1942.0	1942.0	1994.0	1994.0	1994.0	1940.0	1940.0	1987.0	1987.0	1987.0	1957.0	1957.0	1968.0	1968.0	1968.0	1931.0	1931.0	1926.0	1926.0	1926.0	1955.0	1955.0	1918.0	1918.0	1918.0	1970.0	1970.0	1934.0	1934.0	1934.0	1955.0	1955.0	1916.0	1916.0	1935.0	1935.0	1935.0	1915.0	1915.0	1932.0	1932.0	1932.0	1907.0	1907.0	1942.0	1942.0	1942.0	1942.0	1942.0	1957.0	1957.0	1957.0	1913.0	1913.0	1927.0	1927.0	1927.0	1946.0	1946.0	1909.0	1909.0	1909.0	1919.0	1919.0	1900.0	1900.0	1900.0	1932.0	1932.0	1934.0	1934.0	1934.0	1894.0	1894.0	1894.0	1894.0	1894.0	1901.0	1901.0	1909.0	1909.0	1909.0	1928.0	1928.0	1884.0	1884.0	1884.0	1885.0	1885.0	1916.0	1916.0	1916.0	1886.0	1886.0	1897.0	1897.0	1897.0	1914.0	1914.0	1875.0	1875.0	1875.0	1881.0	1881.0	1901.0	1901.0	1901.0	1918.0	1918.0	1879.0	1879.0	1879.0	1904.0	1904.0	1924.0	1924.0	1924.0	1854.0	1854.0	1911.0	1911.0	1911.0	1897.0	1897.0	1879.0	1879.0	1879.0	1914.0	1914.0	1864.0	1864.0	1864.0	1875.0	1875.0	1898.0	1898.0	1898.0	1908.0	1908.0	1878.0	1878.0	1878.0	1871.0	1871.0	1916.0	1916.0	1916.0	1886.0	1886.0	1860.0	1860.0	1860.0	1856.0	1856.0	1921.0	1921.0	1921.0	1920.0	1920.0	1911.0	1911.0	1911.0	1911.0	1911.0	1918.0	1918.0	1918.0	1911.0	1911.0	1889.0	1889.0	1889.0	1880.0	1880.0	1855.0	1855.0	1855.0	1868.0	1868.0	1858.0	1858.0	1858.0	1907.0	1907.0	1864.0	1864.0	1864.0	1868.0	1868.0	1899.0	1899.0	1899.0	1858.0	1858.0	1846.0	1846.0	1846.0	1892.0	1892.0	1899.0	1899.0	1899.0	1841.0	1841.0	1868.0	1868.0	1868.0	1887.0	1887.0	1875.0	1875.0	1875.0	1868.0	1868.0	1856.0	1856.0	1856.0	1882.0	1882.0	1863.0	1863.0	1863.0	1854.0	1854.0	1895.0	1895.0	1895.0	1871.0	1871.0	1877.0	1877.0	1877.0	1918.0	1918.0	1930.0	1930.0	1887.0	1887.0	1887.0	1905.0	1905.0	1904.0	1904.0	1904.0	1933.0	1933.0	1933.0	1933.0	1933.0	1931.0	1931.0	1950.0	1950.0	1950.0	1972.0	1972.0	2015.0	2015.0	2015.0	2013.0	2013.0	2044.0	2044.0	2044.0	2017.0	2017.0	2072.0	2072.0	2072.0	2066.0	2066.0	2064.0	2064.0	2064.0	2068.0	2068.0	2076.0	2076.0	2076.0	2154.0	2154.0	2124.0	2124.0	2124.0	2132.0	2132.0	2183.0	2183.0	2183.0	2195.0	2195.0	2189.0	2189.0	2189.0	2160.0	2160.0	2193.0	2193.0	2193.0	2222.0	2222.0	2233.0	2233.0	2233.0	2228.0	2228.0	2206.0	2206.0	2206.0	2241.0	2241.0	2279.0	2279.0	2279.0	2266.0	2266.0	2289.0	2289.0	2289.0	2240.0	2240.0	2261.0	2261.0	2261.0	2283.0	2283.0	2297.0	2297.0	2297.0	2255.0	2255.0	2283.0	2283.0	2283.0	2301.0	2301.0	2310.0	2310.0	2310.0	2261.0	2261.0	2319.0	2319.0	2319.0	2289.0	2289.0	2318.0	2318.0	2318.0	2315.0	2315.0	2331.0	2331.0	2331.0	2327.0	2327.0	2317.0	2317.0	2317.0	2279.0	2279.0	2328.0	2328.0	2328.0	2332.0	2332.0	2307.0	2307.0	2307.0	2336.0	2336.0	2283.0	2283.0	2283.0	2303.0	2303.0	2298.0	2298.0	2298.0	2306.0	2306.0	2316.0	2316.0	2316.0	2318.0	2318.0	2315.0	2315.0	2315.0	2293.0	2293.0	2325.0	2325.0	2325.0	2282.0	2282.0	2310.0	2310.0	2310.0	2323.0	2323.0	2333.0	2333.0	2333.0	2306.0	2306.0	2295.0	2295.0	2295.0	2312.0	2312.0	2281.0	2281.0	2281.0	2291.0	2291.0	2280.0	2280.0	2280.0	2308.0	2308.0	2327.0	2327.0	2327.0	2333.0	2333.0	2269.0	2269.0	2269.0	2310.0	2310.0	2270.0	2270.0	2270.0	2289.0	2289.0	2279.0	2279.0	2302.0	2302.0	2302.0	2311.0	2311.0	2261.0	2261.0	2261.0	2258.0	2258.0	2245.0	2245.0	2245.0	2233.0	2233.0	2273.0	2273.0	2273.0	2270.0	2270.0	2249.0	2249.0	2249.0	2230.0	2230.0	2234.0	2234.0	2234.0	2257.0	2257.0	2191.0	2191.0	2191.0	2198.0	2198.0	2248.0	2248.0	2248.0	2202.0	2202.0	2195.0	2195.0	2195.0	2183.0	2183.0	2182.0	2182.0	2182.0	2155.0	2155.0	2180.0	2180.0	2180.0	2182.0	2182.0	2128.0	2128.0	2128.0	2120.0	2120.0	2120.0	2120.0	2120.0	2150.0	2150.0	2101.0	2101.0	2101.0	2095.0	2095.0	2127.0	2127.0	2127.0	2119.0	2119.0	2128.0	2128.0	2128.0	2124.0	2124.0	2111.0	2111.0	2111.0	2117.0	2117.0	2097.0	2097.0	2097.0	2104.0	2104.0	2076.0	2076.0	2076.0	2088.0	2088.0	2059.0	2059.0	2059.0	2046.0	2046.0	2079.0	2079.0	2079.0	2044.0	2044.0	2065.0	2065.0	2065.0	2077.0	2077.0	2049.0	2049.0	2049.0	2050.0	2050.0	2032.0	2032.0	2032.0	2038.0	2038.0	2064.0	2064.0	2064.0	2040.0	2040.0	2030.0	2030.0	2030.0	2031.0	2031.0	2018.0	2018.0	2018.0	2007.0	2007.0	2054.0	2054.0	2054.0	2040.0	2040.0	2039.0	2039.0	2039.0	2040.0	2040.0	1996.0	1996.0	1996.0	2047.0	2047.0	1988.0	1988.0	1988.0	1987.0	1987.0	2025.0	2025.0	2025.0	2035.0	2035.0	2024.0	2024.0	2024.0	2029.0	2029.0	1990.0	1990.0	1990.0	1980.0	1980.0	2000.0	2000.0	2000.0	1993.0	1993.0	1964.0	1964.0	1964.0	2015.0	2015.0	2003.0	2003.0	2003.0	1972.0	1972.0	2001.0	2001.0	2001.0	1998.0	1998.0	1965.0	1965.0	1965.0	1976.0	1976.0	1954.0	1954.0	1954.0	1975.0	1975.0	1980.0	1980.0	1980.0	1971.0	1971.0	1950.0	1950.0	1987.0	1987.0	1987.0	1940.0	1940.0	1968.0	1968.0	1968.0	1953.0	1953.0	1971.0	1971.0	1971.0	1974.0	1974.0	1965.0	1965.0	1965.0	1921.0	1921.0	1941.0	1941.0	1941.0	1932.0	1932.0	1930.0	1930.0	1930.0	1940.0	1940.0	1948.0	1948.0	1948.0	1944.0	1944.0	1922.0	1922.0	1922.0	1949.0	1949.0	1891.0	1891.0	1891.0	1915.0	1915.0	1894.0	1894.0	1894.0	1881.0	1881.0	1903.0	1903.0	1903.0	1886.0	1886.0	1878.0	1878.0	1878.0	1857.0	1857.0	1868.0	1868.0	1868.0	1912.0	1912.0	1888.0	1888.0	1888.0	1870.0	1870.0	1907.0	1907.0	1907.0	1863.0	1863.0	1864.0	1864.0	1864.0	1892.0	1892.0	1850.0	1850.0	1850.0	1843.0	1843.0	1848.0	1848.0	1848.0	1838.0	1838.0	1842.0	1842.0	1842.0	1821.0	1821.0	1849.0	1849.0	1849.0	1847.0	1847.0	1841.0	1841.0	1841.0	1856.0	1856.0	1820.0	1820.0	1820.0	1831.0	1831.0	1865.0	1865.0	1865.0	1878.0	1878.0	1821.0	1821.0	1821.0	1801.0	1801.0	1847.0	1847.0	1847.0	1800.0	1800.0	1826.0	1826.0	1826.0	1843.0	1843.0	1807.0	1807.0	1807.0	1817.0	1817.0	1820.0	1820.0	1820.0	1847.0	1847.0	1822.0	1822.0	1822.0	1806.0	1806.0	1826.0	1826.0	1826.0	1785.0	1785.0	1816.0	1816.0	1816.0	1815.0	1815.0	1809.0	1809.0	1809.0	1791.0	1791.0	1836.0	1836.0	1836.0	1813.0	1813.0	1819.0	1819.0	1819.0	1803.0	1803.0	1791.0	1791.0	1791.0	1842.0	1842.0	1786.0	1786.0	1786.0	1785.0	1785.0	1830.0	1830.0	1830.0	1820.0	1820.0	1786.0	1786.0	1786.0	1804.0	1804.0	1801.0	1801.0	1801.0	1803.0	1803.0	1837.0	1837.0	1837.0	1804.0	1804.0	1801.0	1801.0	1826.0	1826.0	1826.0	1784.0	1784.0	1819.0	1819.0	1819.0	1767.0	1767.0	1822.0	1822.0	1822.0	1767.0	1767.0	1793.0	1793.0	1793.0	1764.0	1764.0	1771.0	1771.0	1771.0	1774.0	1774.0	1782.0	1782.0	1782.0	1777.0	1777.0	1814.0	1814.0	1814.0	1781.0	1781.0	1794.0	1794.0	1794.0	1763.0	1763.0	1808.0	1808.0	1808.0	1748.0	1748.0	1797.0	1797.0	1797.0	1776.0	1776.0	1730.0	1730.0	1730.0	1728.0	1728.0	1785.0	1785.0	1785.0	1780.0	1780.0	1782.0	1782.0	1782.0	1729.0	1729.0	1759.0	1759.0	1759.0	1769.0	1769.0	1774.0	1774.0	1774.0	1739.0	1739.0	1737.0	1737.0	1737.0	1729.0	1729.0	1767.0	1767.0	1767.0	1729.0	1729.0	1697.0	1697.0	1697.0	1741.0	1741.0	1722.0	1722.0	1722.0	1732.0	1732.0	1758.0	1758.0	1758.0	1739.0	1739.0	1745.0	1745.0	1745.0	1715.0	1715.0	1695.0	1695.0	1695.0	1746.0	1746.0	1700.0	1700.0	1700.0	1747.0	1747.0	1717.0	1717.0	1717.0	1731.0	1731.0	1754.0	1754.0	1754.0	1737.0	1737.0	1721.0	1721.0	1721.0	1728.0	1728.0	1726.0	1726.0	1726.0	1735.0	1735.0	1703.0	1703.0	1703.0	1750.0	1750.0	1735.0	1735.0	1735.0	1737.0	1737.0	1729.0	1729.0	1729.0	1693.0	1693.0	1713.0	1713.0	1713.0	1714.0	1714.0	1705.0	1705.0	1705.0	1712.0	1712.0	1748.0	1748.0	1748.0	1712.0	1712.0	1702.0	1702.0	1702.0	1712.0	1712.0	1753.0	1753.0	1753.0	1774.0	1774.0	1763.0	1763.0	1763.0	1750.0	1750.0	1751.0	1751.0	1751.0	1725.0	1725.0	1746.0	1746.0	1746.0	1796.0	1796.0	1765.0	1765.0	1765.0	1762.0	1762.0	1828.0	1828.0	1828.0	1815.0	1815.0	1827.0	1827.0	1870.0	1870.0	1870.0	1877.0	1877.0	1856.0	1856.0	1856.0	1885.0	1885.0	1888.0	1888.0	1888.0	1938.0	1938.0	1921.0	1921.0	1921.0	1938.0	1938.0	1944.0	1944.0	1944.0	1993.0	1993.0	1980.0	1980.0	1980.0	2006.0	2006.0	2007.0	2007.0	2007.0	2011.0	2011.0	2034.0	2034.0	2034.0	2015.0	2015.0	2038.0	2038.0	2038.0	2050.0	2050.0	2050.0	2050.0	2050.0	2092.0	2092.0	2057.0	2057.0	2057.0	2055.0	2055.0	2067.0	2067.0	2067.0	2118.0	2118.0	2079.0	2079.0	2079.0	2108.0	2108.0	2089.0	2089.0	2089.0	2121.0	2121.0	2140.0	2140.0	2140.0	2094.0	2094.0	2140.0	2140.0	2140.0	2126.0	2126.0	2145.0	2145.0	2145.0	2124.0	2124.0	2103.0	2103.0	2103.0	2127.0	2127.0	2150.0	2150.0	2150.0	2114.0	2114.0	2121.0	2121.0	2121.0	2108.0	2108.0	2107.0	2107.0	2107.0	2145.0	2145.0	2119.0	2119.0	2119.0	2172.0	2172.0	2122.0	2122.0	2122.0	2149.0	2149.0	2176.0	2176.0	2176.0	2162.0	2162.0	2134.0	2134.0	2134.0	2136.0	2136.0	2143.0	2143.0	2143.0	2117.0	2117.0	2135.0	2135.0	2135.0	2156.0	2156.0	2169.0	2169.0	2169.0	2131.0	2131.0	2133.0	2133.0	2133.0	2124.0	2124.0	2147.0	2147.0	2147.0	2156.0	2156.0	2093.0	2093.0	2093.0	2127.0	2127.0	2096.0	2096.0	2096.0	2141.0	2141.0	2121.0	2121.0	2121.0	2125.0	2125.0	2109.0	2109.0	2109.0	2142.0	2142.0	2136.0	2136.0	2136.0	2106.0	2106.0	2113.0	2113.0	2113.0	2108.0	2108.0	2136.0	2136.0	2136.0	2094.0	2094.0	2102.0	2102.0	2102.0	2081.0	2081.0	2081.0	2081.0	2081.0	2082.0	2082.0	2084.0	2084.0	2084.0	2050.0	2050.0	2075.0	2075.0	2075.0	2043.0	2043.0	2029.0	2029.0	2067.0	2067.0	2067.0	2044.0	2044.0	2021.0	2021.0	2021.0	2034.0	2034.0	2042.0	2042.0	2042.0	2044.0	2044.0	2019.0	2019.0	2019.0	2026.0	2026.0	2016.0	2016.0	2016.0	1987.0	1987.0	2010.0	2010.0	2010.0	2007.0	2007.0	2025.0	2025.0	2025.0	1988.0	1988.0	1979.0	1979.0	1979.0	1971.0	1971.0	1983.0	1983.0	1983.0	1947.0	1947.0	1993.0	1993.0	1993.0	1951.0	1951.0	1944.0	1944.0	1944.0	1946.0	1946.0	1956.0	1956.0	1956.0	1985.0	1985.0	1961.0	1961.0	1961.0	1944.0	1944.0	1949.0	1949.0	1949.0	1990.0	1990.0	1971.0	1971.0	1971.0	1936.0	1936.0	1981.0	1981.0	1981.0	1945.0	1945.0	1934.0	1934.0	1934.0	1959.0	1959.0	1951.0	1951.0	1951.0	1932.0	1932.0	1951.0	1951.0	1951.0	1929.0	1929.0	1967.0	1967.0	1967.0	1948.0	1948.0	1975.0	1975.0	1975.0	1963.0	1963.0	1955.0	1955.0	1955.0	1960.0	1960.0	1935.0	1935.0	1935.0	1939.0	1939.0	1957.0	1957.0	1957.0	1937.0	1937.0	1973.0	1973.0	1973.0	1916.0	1916.0	1913.0	1913.0	1913.0	1953.0	1953.0	1928.0	1928.0	1928.0	1923.0	1923.0	1948.0	1948.0	1948.0	1900.0	1900.0	1953.0	1953.0	1953.0	1902.0	1902.0	1911.0	1911.0	1911.0	1936.0	1936.0	1928.0	1928.0	1928.0	1929.0	1929.0	1888.0	1888.0	1888.0	1895.0	1895.0	1921.0	1921.0	1921.0	1950.0	1950.0	1916.0	1916.0	1916.0	1896.0	1896.0	1923.0	1923.0	1923.0	1891.0	1891.0	1920.0	1920.0	1920.0	1884.0	1884.0	1885.0	1885.0	1885.0	1893.0	1893.0	1919.0	1919.0	1919.0	1893.0	1893.0	1931.0	1931.0	1931.0	1929.0	1929.0	1922.0	1922.0	1922.0	1897.0	1897.0	1860.0	1860.0	1875.0	1875.0	1875.0	1900.0	1900.0	1920.0	1920.0	1920.0	1876.0	1876.0	1870.0	1870.0	1870.0	1907.0	1907.0	1866.0	1866.0	1866.0	1878.0	1878.0	1911.0	1911.0	1911.0	1896.0	1896.0	1871.0	1871.0	1871.0	1902.0	1902.0	1866.0	1866.0	1866.0	1876.0	1876.0	1900.0	1900.0	1900.0	1852.0	1852.0	1878.0	1878.0	1878.0	1856.0	1856.0	1893.0	1893.0	1893.0	1866.0	1866.0	1855.0	1855.0	1855.0	1894.0	1894.0	1841.0	1841.0	1841.0	1889.0	1889.0	1840.0	1840.0	1840.0	1850.0	1850.0	1844.0	1844.0	1844.0	1852.0	1852.0	1878.0	1878.0	1878.0	1835.0	1835.0	1827.0	1827.0	1827.0	1858.0	1858.0	1849.0	1849.0	1849.0	1877.0	1877.0	1843.0	1843.0	1843.0	1875.0	1875.0	1820.0	1820.0	1820.0	1872.0	1872.0	1835.0	1835.0	1835.0	1840.0	1840.0	1823.0	1823.0	1823.0	1887.0	1887.0	1864.0	1864.0	1864.0	1838.0	1838.0	1839.0	1839.0	1839.0	1836.0	1836.0	1830.0	1830.0	1830.0	1830.0	1830.0	1866.0	1866.0	1866.0	1835.0	1835.0	1863.0	1863.0	1863.0	1857.0	1857.0	1852.0	1852.0	1852.0	1827.0	1827.0	1810.0	1810.0	1810.0	1872.0	1872.0	1873.0	1873.0	1873.0	1854.0	1854.0	1835.0	1835.0	1835.0	1842.0	1842.0	1821.0	1821.0	1821.0	1818.0	1818.0	1803.0	1803.0	1803.0	1847.0	1847.0	1834.0	1834.0	1834.0	1830.0	1830.0	1857.0	1857.0	1857.0	1823.0	1823.0	1866.0	1866.0	1866.0	1845.0	1845.0	1863.0	1863.0	1863.0	1880.0	1880.0	1823.0	1823.0	1823.0	1883.0	1883.0	1832.0	1832.0	1832.0	1826.0	1826.0	1863.0	1863.0	1863.0	1871.0	1871.0	1841.0	1841.0	1841.0	1826.0	1826.0	1823.0	1823.0	1823.0	1824.0	1824.0	1863.0	1863.0	1850.0	1850.0	1850.0	1872.0	1872.0	1866.0	1866.0	1866.0	1859.0	1859.0	1841.0	1841.0	1841.0	1818.0	1818.0	1839.0	1839.0	1839.0	1818.0	1818.0	1842.0	1842.0	1842.0	1841.0	1841.0	1864.0	1864.0	1864.0	1839.0	1839.0	1863.0	1863.0	1863.0	1837.0	1837.0	1840.0	1840.0	1840.0	1881.0	1881.0	1843.0	1843.0	1843.0	1855.0	1855.0	1879.0	1879.0	1879.0	1820.0	1820.0	1864.0	1864.0	1864.0	1871.0	1871.0	1831.0	1831.0	1831.0	1883.0	1883.0	1862.0	1862.0	1862.0	1866.0	1866.0	1872.0	1872.0	1872.0	1864.0	1864.0	1885.0	1885.0	1885.0	1829.0	1829.0	1879.0	1879.0	1879.0	1827.0	1827.0	1886.0	1886.0	1886.0	1827.0	1827.0	1852.0	1852.0	1852.0	1877.0	1877.0	1870.0	1870.0	1870.0	1818.0	1818.0	1856.0	1856.0	1856.0	1836.0	1836.0	1876.0	1876.0	1876.0	1881.0	1881.0	1827.0	1827.0	1827.0	1835.0	1835.0	1839.0	1839.0	1839.0	1836.0	1836.0	1888.0	1888.0	1888.0	1843.0	1843.0	1887.0	1887.0	1887.0	1875.0	1875.0	1845.0	1845.0	1845.0	1900.0	1900.0	1856.0	1856.0	1856.0	1860.0	1860.0	1912.0	1912.0	1912.0	1917.0	1917.0	1935.0	1935.0	1935.0	1894.0	1894.0	1951.0	1951.0	1951.0	1959.0	1959.0	1944.0	1944.0	1944.0	1942.0	1942.0	1953.0	1953.0	1953.0	1964.0	1964.0	2025.0	2025.0	2025.0	2033.0	2033.0	2006.0	2006.0	2006.0	2048.0	2048.0	2067.0	2067.0	2067.0	2055.0	2055.0	2048.0	2048.0	2048.0	2083.0	2083.0	2107.0	2107.0	2107.0	2116.0	2116.0	2139.0	2139.0	2139.0	2168.0	2168.0	2146.0	2146.0	2146.0	2163.0	2163.0	2148.0	2148.0	2148.0	2191.0	2191.0	2181.0	2181.0	2184.0	2184.0	2184.0	2194.0	2194.0	2238.0	2238.0	2238.0	2217.0	2217.0	2213.0	2213.0	2213.0	2251.0	2251.0	2268.0	2268.0	2268.0	2281.0	2281.0	2279.0	2279.0	2279.0	2253.0	2253.0	2282.0	2282.0	2282.0	2264.0	2264.0	2279.0	2279.0	2279.0	2272.0	2272.0	2267.0	2267.0	2267.0	2304.0	2304.0	2303.0	2303.0	2303.0	2337.0	2337.0	2317.0	2317.0	2317.0	2297.0	2297.0	2298.0	2298.0	2298.0	2302.0	2302.0	2302.0	2302.0	2302.0	2309.0	2309.0	2354.0	2354.0	2354.0	2345.0	2345.0	2363.0	2363.0	2363.0	2303.0	2303.0	2341.0	2341.0	2341.0	2337.0	2337.0	2333.0	2333.0	2333.0	2321.0	2321.0	2346.0	2346.0	2346.0	2340.0	2340.0	2370.0	2370.0	2370.0	2350.0	2350.0	2359.0	2359.0	2359.0	2353.0	2353.0	2340.0	2340.0	2340.0	2383.0	2383.0	2358.0	2358.0	2358.0	2373.0	2373.0	2360.0	2360.0	2360.0	2334.0	2334.0	2334.0	2334.0	2334.0	2384.0	2384.0	2341.0	2341.0	2341.0	2340.0	2340.0	2332.0	2332.0	2332.0	2339.0	2339.0	2382.0	2382.0	2382.0	2373.0	2373.0	2343.0	2343.0	2343.0	2383.0	2383.0	2332.0	2332.0	2332.0	2332.0	2332.0	2372.0	2372.0	2372.0	2367.0	2367.0	2338.0	2338.0	2338.0	2332.0	2332.0	2347.0	2347.0	2347.0	2360.0	2360.0	2336.0	2336.0	2336.0	2345.0	2345.0	2318.0	2318.0	2318.0	2290.0	2290.0	2319.0	2319.0	2319.0	2306.0	2306.0	2284.0	2284.0	2284.0	2315.0	2315.0	2318.0	2318.0	2318.0	2299.0	2299.0	2264.0	2264.0	2264.0	2298.0	2298.0	2261.0	2261.0	2261.0	2261.0	2261.0	2279.0	2279.0	2279.0	2267.0	2267.0	2261.0	2261.0	2261.0	2269.0	2269.0	2269.0	2269.0	2248.0	2248.0	2248.0	2257.0	2257.0	2215.0	2215.0	2215.0	2187.0	2187.0	2231.0	2231.0	2231.0	2200.0	2200.0	2204.0	2204.0	2204.0	2217.0	2217.0	2212.0	2212.0	2212.0	2227.0	2227.0	2209.0	2209.0	2209.0	2174.0	2174.0	2186.0	