1690.0	1722.0	1722.0	1722.0	1693.0	1693.0	1737.0	1737.0	1737.0	1706.0	1706.0	1673.0	1673.0	1673.0	1697.0	1697.0	1667.0	1667.0	1667.0	1679.0	1679.0	1682.0	1682.0	1682.0	1709.0	1709.0	1700.0	1700.0	1700.0	1695.0	1695.0	1695.0	1695.0	1695.0	1664.0	1664.0	1659.0	1659.0	1659.0	1686.0	1686.0	1648.0	1648.0	1648.0	1624.0	1624.0	1656.0	1656.0	1656.0	1615.0	1615.0	1639.0	1639.0	1639.0	1637.0	1637.0	1606.0	1606.0	1606.0	1647.0	1647.0	1660.0	1660.0	1660.0	1610.0	1610.0	1598.0	1598.0	1598.0	1616.0	1616.0	1607.0	1607.0	1607.0	1623.0	1623.0	1599.0	1599.0	1599.0	1598.0	1598.0	1604.0	1604.0	1604.0	1647.0	1647.0	1639.0	1639.0	1639.0	1618.0	1618.0	1630.0	1630.0	1630.0	1623.0	1623.0	1618.0	1618.0	1618.0	1624.0	1624.0	1628.0	1628.0	1628.0	1626.0	1626.0	1627.0	1627.0	1627.0	1593.0	1593.0	1608.0	1608.0	1608.0	1608.0	1608.0	1603.0	1603.0	1603.0	1557.0	1557.0	1602.0	1602.0	1602.0	1557.0	1557.0	1554.0	1554.0	1554.0	1570.0	1570.0	1548.0	1548.0	1548.0	1619.0	1619.0	1592.0	1592.0	1592.0	1607.0	1607.0	1599.0	1599.0	1599.0	1575.0	1575.0	1575.0	1575.0	1575.0	1617.0	1617.0	1587.0	1587.0	1587.0	1612.0	1612.0	1572.0	1572.0	1572.0	1606.0	1606.0	1553.0	1553.0	1553.0	1616.0	1616.0	1578.0	1578.0	1578.0	1608.0	1608.0	1612.0	1612.0	1612.0	1562.0	1562.0	1587.0	1587.0	1587.0	1563.0	1563.0	1606.0	1606.0	1606.0	1609.0	1609.0	1612.0	1612.0	1612.0	1574.0	1574.0	1621.0	1621.0	1576.0	1576.0	1576.0	1577.0	1577.0	1605.0	1605.0	1605.0	1569.0	1569.0	1566.0	1566.0	1566.0	1615.0	1615.0	1568.0	1568.0	1568.0	1617.0	1617.0	1574.0	1574.0	1574.0	1618.0	1618.0	1579.0	1579.0	1579.0	1568.0	1568.0	1580.0	1580.0	1580.0	1572.0	1572.0	1570.0	1570.0	1570.0	1607.0	1607.0	1586.0	1586.0	1586.0	1563.0	1563.0	1565.0	1565.0	1565.0	1580.0	1580.0	1616.0	1616.0	1616.0	1583.0	1583.0	1588.0	1588.0	1588.0	1589.0	1589.0	1593.0	1593.0	1593.0	1576.0	1576.0	1599.0	1599.0	1599.0	1568.0	1568.0	1579.0	1579.0	1579.0	1620.0	1620.0	1582.0	1582.0	1582.0	1624.0	1624.0	1577.0	1577.0	1577.0	1561.0	1561.0	1601.0	1601.0	1601.0	1576.0	1576.0	1564.0	1564.0	1564.0	1601.0	1601.0	1548.0	1548.0	1548.0	1553.0	1553.0	1614.0	1614.0	1614.0	1575.0	1575.0	1587.0	1587.0	1587.0	1607.0	1607.0	1560.0	1560.0	1560.0	1603.0	1603.0	1606.0	1606.0	1606.0	1620.0	1620.0	1608.0	1608.0	1608.0	1622.0	1622.0	1584.0	1584.0	1584.0	1626.0	1626.0	1671.0	1671.0	1671.0	1667.0	1667.0	1660.0	1660.0	1660.0	1729.0	1729.0	1753.0	1753.0	1753.0	1746.0	1746.0	1790.0	1790.0	1790.0	1830.0	1830.0	1854.0	1854.0	1854.0	1834.0	1834.0	1878.0	1878.0	1878.0	1975.0	1975.0	1955.0	1955.0	1955.0	1999.0	1999.0	2017.0	2017.0	2017.0	2087.0	2087.0	2143.0	2143.0	2143.0	2171.0	2171.0	2160.0	2160.0	2160.0	2219.0	2219.0	2200.0	2200.0	2200.0	2253.0	2253.0	2297.0	2297.0	2297.0	2286.0	2286.0	2354.0	2354.0	2354.0	2330.0	2330.0	2383.0	2383.0	2383.0	2406.0	2406.0	2382.0	2382.0	2454.0	2454.0	2454.0	2464.0	2464.0	2435.0	2435.0	2435.0	2434.0	2434.0	2479.0	2479.0	2479.0	2514.0	2514.0	2519.0	2519.0	2519.0	2529.0	2529.0	2502.0	2502.0	2502.0	2523.0	2523.0	2511.0	2511.0	2511.0	2533.0	2533.0	2558.0	2558.0	2558.0	2546.0	2546.0	2587.0	2587.0	2587.0	2585.0	2585.0	2570.0	2570.0	2570.0	2534.0	2534.0	2571.0	2571.0	2571.0	2566.0	2566.0	2546.0	2546.0	2546.0	2544.0	2544.0	2582.0	2582.0	2582.0	2559.0	2559.0	2545.0	2545.0	2545.0	2587.0	2587.0	2578.0	2578.0	2578.0	2559.0	2559.0	2547.0	2547.0	2547.0	2549.0	2549.0	2594.0	2594.0	2594.0	2595.0	2595.0	2566.0	2566.0	2566.0	2581.0	2581.0	2526.0	2526.0	2526.0	2531.0	2531.0	2574.0	2574.0	2574.0	2540.0	2540.0	2527.0	2527.0	2527.0	2506.0	2506.0	2542.0	2542.0	2542.0	2545.0	2545.0	2511.0	2511.0	2511.0	2513.0	2513.0	2524.0	2524.0	2524.0	2481.0	2481.0	2523.0	2523.0	2523.0	2469.0	2469.0	2515.0	2515.0	2515.0	2470.0	2470.0	2497.0	2497.0	2497.0	2507.0	2507.0	2442.0	2442.0	2442.0	2482.0	2482.0	2476.0	2476.0	2476.0	2424.0	2424.0	2405.0	2405.0	2405.0	2437.0	2437.0	2450.0	2450.0	2450.0	2393.0	2393.0	2389.0	2389.0	2389.0	2428.0	2428.0	2382.0	2382.0	2382.0	2363.0	2363.0	2350.0	2350.0	2350.0	2397.0	2397.0	2390.0	2390.0	2390.0	2388.0	2388.0	2367.0	2367.0	2367.0	2315.0	2315.0	2356.0	2356.0	2356.0	2320.0	2320.0	2312.0	2312.0	2312.0	2323.0	2323.0	2306.0	2306.0	2306.0	2253.0	2253.0	2248.0	2248.0	2248.0	2233.0	2233.0	2241.0	2241.0	2241.0	2259.0	2259.0	2198.0	2198.0	2199.0	2199.0	2199.0	2196.0	2196.0	2171.0	2171.0	2171.0	2202.0	2202.0	2159.0	2159.0	2159.0	2148.0	2148.0	2164.0	2164.0	2164.0	2155.0	2155.0	2151.0	2151.0	2151.0	2137.0	2137.0	2141.0	2141.0	2141.0	2122.0	2122.0	2086.0	2086.0	2086.0	2075.0	2075.0	2065.0	2065.0	2065.0	2123.0	2123.0	2109.0	2109.0	2109.0	2084.0	2084.0	2084.0	2084.0	2084.0	2053.0	2053.0	2090.0	2090.0	2090.0	2055.0	2055.0	2073.0	2073.0	2073.0	2104.0	2104.0	2047.0	2047.0	2047.0	2091.0	2091.0	2033.0	2033.0	2033.0	2035.0	2035.0	2057.0	2057.0	2057.0	2042.0	2042.0	2088.0	2088.0	2088.0	2062.0	2062.0	2076.0	2076.0	2076.0	2082.0	2082.0	2069.0	2069.0	2069.0	2012.0	2012.0	2064.0	2064.0	2064.0	2036.0	2036.0	2059.0	2059.0	2059.0	2024.0	2024.0	2061.0	2061.0	2061.0	2020.0	2020.0	2039.0	2039.0	2039.0	2045.0	2045.0	2015.0	2015.0	2015.0	1996.0	1996.0	1997.0	1997.0	1997.0	1984.0	1984.0	2024.0	2024.0	2024.0	2025.0	2025.0	1973.0	1973.0	1973.0	1976.0	1976.0	1971.0	1971.0	1971.0	1972.0	1972.0	2014.0	2014.0	2014.0	1981.0	1981.0	1985.0	1985.0	1985.0	1965.0	1965.0	1946.0	1946.0	1946.0	2004.0	2004.0	1958.0	1958.0	1958.0	1956.0	1956.0	1961.0	1961.0	1961.0	1955.0	1955.0	1926.0	1926.0	1926.0	1924.0	1924.0	1900.0	1900.0	1900.0	1927.0	1927.0	1938.0	1938.0	1938.0	1957.0	1957.0	1893.0	1893.0	1893.0	1889.0	1889.0	1931.0	1931.0	1931.0	1884.0	1884.0	1928.0	1928.0	1928.0	1875.0	1875.0	1932.0	1932.0	1932.0	1874.0	1874.0	1846.0	1846.0	1846.0	1910.0	1910.0	1855.0	1855.0	1855.0	1836.0	1836.0	1840.0	1840.0	1902.0	1902.0	1902.0	1876.0	1876.0	1837.0	1837.0	1837.0	1879.0	1879.0	1822.0	1822.0	1822.0	1870.0	1870.0	1859.0	1859.0	1859.0	1878.0	1878.0	1870.0	1870.0	1870.0	1824.0	1824.0	1827.0	1827.0	1827.0	1846.0	1846.0	1817.0	1817.0	1817.0	1825.0	1825.0	1836.0	1836.0	1836.0	1795.0	1795.0	1783.0	1783.0	1783.0	1795.0	1795.0	1819.0	1819.0	1819.0	1783.0	1783.0	1824.0	1824.0	1824.0	1749.0	1749.0	1764.0	1764.0	1764.0	1776.0	1776.0	1780.0	1780.0	1780.0	1800.0	1800.0	1784.0	1784.0	1784.0	1786.0	1786.0	1772.0	1772.0	1772.0	1756.0	1756.0	1788.0	1788.0	1788.0	1730.0	1730.0	1798.0	1798.0	1798.0	1771.0	1771.0	1739.0	1739.0	1739.0	1720.0	1720.0	1743.0	1743.0	1743.0	1717.0	1717.0	1773.0	1773.0	1773.0	1764.0	1764.0	1753.0	1753.0	1753.0	1718.0	1718.0	1768.0	1768.0	1768.0	1711.0	1711.0	1737.0	1737.0	1737.0	1686.0	1686.0	1726.0	1726.0	1726.0	1758.0	1758.0	1698.0	1698.0	1698.0	1729.0	1729.0	1680.0	1680.0	1680.0	1731.0	1731.0	1679.0	1679.0	1679.0	1666.0	1666.0	1713.0	1713.0	1713.0	1728.0	1728.0	1727.0	1727.0	1727.0	1687.0	1687.0	1687.0	1687.0	1687.0	1682.0	1682.0	1701.0	1701.0	1701.0	1718.0	1718.0	1711.0	1711.0	1711.0	1732.0	1732.0	1724.0	1724.0	1724.0	1696.0	1696.0	1728.0	1728.0	1728.0	1683.0	1683.0	1695.0	1695.0	1695.0	1683.0	1683.0	1729.0	1729.0	1729.0	1721.0	1721.0	1681.0	1681.0	1681.0	1670.0	1670.0	1687.0	1687.0	1687.0	1674.0	1674.0	1678.0	1678.0	1678.0	1655.0	1655.0	1716.0	1716.0	1716.0	1661.0	1661.0	1656.0	1656.0	1689.0	1689.0	1689.0	1709.0	1709.0	1652.0	1652.0	1652.0	1669.0	1669.0	1711.0	1711.0	1711.0	1699.0	1699.0	1680.0	1680.0	1680.0	1680.0	1680.0	1712.0	1712.0	1712.0	1671.0	1671.0	1662.0	1662.0	1662.0	1691.0	1691.0	1676.0	1676.0	1676.0	1655.0	1655.0	1692.0	1692.0	1692.0	1662.0	1662.0	1641.0	1641.0	1641.0	1686.0	1686.0	1711.0	1711.0	1711.0	1684.0	1684.0	1706.0	1706.0	1706.0	1676.0	1676.0	1655.0	1655.0	1655.0	1691.0	1691.0	1699.0	1699.0	1699.0	1641.0	1641.0	1631.0	1631.0	1631.0	1636.0	1636.0	1685.0	1685.0	1685.0	1688.0	1688.0	1671.0	1671.0	1671.0	1655.0	1655.0	1700.0	1700.0	1700.0	1695.0	1695.0	1628.0	1628.0	1628.0	1688.0	1688.0	1636.0	1636.0	1636.0	1640.0	1640.0	1680.0	1680.0	1680.0	1670.0	1670.0	1689.0	1689.0	1689.0	1677.0	1677.0	1629.0	1629.0	1629.0	1680.0	1680.0	1684.0	1684.0	1684.0	1667.0	1667.0	1655.0	1655.0	1655.0	1689.0	1689.0	1634.0	1634.0	1634.0	1642.0	1642.0	1611.0	1611.0	1611.0	1638.0	1638.0	1671.0	1671.0	1671.0	1680.0	1680.0	1615.0	1615.0	1615.0	1614.0	1614.0	1614.0	1614.0	1614.0	1618.0	1618.0	1644.0	1644.0	1644.0	1681.0	1681.0	1678.0	1678.0	1678.0	1629.0	1629.0	1666.0	1666.0	1666.0	1655.0	1655.0	1627.0	1627.0	1627.0	1619.0	1619.0	1663.0	1663.0	1663.0	1658.0	1658.0	1648.0	1648.0	1648.0	1631.0	1631.0	1683.0	1683.0	1683.0	1644.0	1644.0	1644.0	1644.0	1644.0	1663.0	1663.0	1689.0	1689.0	1689.0	1690.0	1690.0	1759.0	1759.0	1759.0	1738.0	1738.0	1779.0	1779.0	1779.0	1811.0	1811.0	1861.0	1861.0	1861.0	1878.0	1878.0	1935.0	1935.0	1909.0	1909.0	1909.0	1962.0	1962.0	2000.0	2000.0	2000.0	2053.0	2053.0	2051.0	2051.0	2051.0	2133.0	2133.0	2143.0	2143.0	2143.0	2154.0	2154.0	2207.0	2207.0	2207.0	2238.0	2238.0	2252.0	2252.0	2252.0	2325.0	2325.0	2320.0	2320.0	2320.0	2333.0	2333.0	2419.0	2419.0	2419.0	2405.0	2405.0	2427.0	2427.0	2427.0	2465.0	2465.0	2454.0	2454.0	2454.0	2493.0	2493.0	2478.0	2478.0	2478.0	2488.0	2488.0	2552.0	2552.0	2552.0	2517.0	2517.0	2532.0	2532.0	2532.0	2565.0	2565.0	2550.0	2550.0	2550.0	2568.0	2568.0	2621.0	2621.0	2621.0	2596.0	2596.0	2627.0	2627.0	2627.0	2642.0	2642.0	2654.0	2654.0	2654.0	2663.0	2663.0	2618.0	2618.0	2618.0	2629.0	2629.0	2665.0	2665.0	2665.0	2631.0	2631.0	2630.0	2630.0	2630.0	2627.0	2627.0	2680.0	2680.0	2680.0	2660.0	2660.0	2680.0	2680.0	2680.0	2627.0	2627.0	2693.0	2693.0	2693.0	2690.0	2690.0	2650.0	2650.0	2650.0	2680.0	2680.0	2642.0	2642.0	2642.0	2677.0	2677.0	2629.0	2629.0	2629.0	2679.0	2679.0	2652.0	2652.0	2652.0	2694.0	2694.0	2666.0	2666.0	2666.0	2645.0	2645.0	2642.0	2642.0	2642.0	2616.0	2616.0	2669.0	2669.0	2669.0	2671.0	2671.0	2651.0	2651.0	2651.0	2603.0	2603.0	2610.0	2610.0	2610.0	2642.0	2642.0	2618.0	2618.0	2618.0	2574.0	2574.0	2623.0	2623.0	2623.0	2577.0	2577.0	2612.0	2612.0	2612.0	2610.0	2610.0	2605.0	2605.0	2605.0	2583.0	2583.0	2612.0	2612.0	2612.0	2532.0	2532.0	2542.0	2542.0	2542.0	2571.0	2571.0	2529.0	2529.0	2529.0	2541.0	2541.0	2514.0	2514.0	2514.0	2551.0	2551.0	2542.0	2542.0	2496.0	2496.0	2496.0	2489.0	2489.0	2523.0	2523.0	2523.0	2511.0	2511.0	2527.0	2527.0	2527.0	2487.0	2487.0	2450.0	2450.0	2450.0	2488.0	2488.0	2481.0	2481.0	2481.0	2465.0	2465.0	2449.0	2449.0	2449.0	2427.0	2427.0	2374.0	2374.0	2374.0	2411.0	2411.0	2375.0	2375.0	2375.0	2384.0	2384.0	2391.0	2391.0	2391.0	2330.0	2330.0	2365.0	2365.0	2365.0	2323.0	2323.0	2334.0	2334.0	2334.0	2331.0	2331.0	2258.0	2258.0	2258.0	2304.0	2304.0	2264.0	2264.0	2264.0	2233.0	2233.0	2215.0	2215.0	2215.0	2244.0	2244.0	2208.0	2208.0	2208.0	2184.0	2184.0	2211.0	2211.0	2211.0	2210.0	2210.0	2210.0	2210.0	2210.0	2201.0	2201.0	2145.0	2145.0	2145.0	2199.0	2199.0	2160.0	2160.0	2160.0	2181.0	2181.0	2171.0	2171.0	2171.0	2111.0	2111.0	2106.0	2106.0	2106.0	2108.0	2108.0	2132.0	2132.0	2132.0	2124.0	2124.0	2110.0	2110.0	2110.0	2069.0	2069.0	2074.0	2074.0	2074.0	2073.0	2073.0	2070.0	2070.0	2070.0	2060.0	2060.0	2119.0	2119.0	2119.0	2113.0	2113.0	2056.0	2056.0	2056.0	2105.0	2105.0	2094.0	2094.0	2094.0	2046.0	2046.0	2038.0	2038.0	2038.0	2036.0	2036.0	2085.0	2085.0	2085.0	2054.0	2054.0	2088.0	2088.0	2088.0	2084.0	2084.0	2036.0	2036.0	2036.0	2051.0	2051.0	2062.0	2062.0	2062.0	2015.0	2015.0	2027.0	2027.0	2027.0	2035.0	2035.0	1995.0	1995.0	1995.0	2051.0	2051.0	2036.0	2036.0	2036.0	1978.0	1978.0	1995.0	1995.0	1995.0	1986.0	1986.0	2024.0	2024.0	2024.0	1986.0	1986.0	1967.0	1967.0	1967.0	1949.0	1949.0	1956.0	1956.0	1956.0	1966.0	1966.0	1999.0	1999.0	1971.0	1971.0	1971.0	1988.0	1988.0	1927.0	1927.0	1927.0	1912.0	1912.0	1941.0	1941.0	1941.0	1969.0	1969.0	1949.0	1949.0	1949.0	1922.0	1922.0	1940.0	1940.0	1940.0	1889.0	1889.0	1897.0	1897.0	1897.0	1942.0	1942.0	1913.0	1913.0	1913.0	1905.0	1905.0	1914.0	1914.0	1914.0	1861.0	1861.0	1900.0	1900.0	1900.0	1868.0	1868.0	1868.0	1868.0	1868.0	1835.0	1835.0	1890.0	1890.0	1890.0	1859.0	1859.0	1849.0	1849.0	1849.0	1865.0	1865.0	1856.0	1856.0	1856.0	1862.0	1862.0	1825.0	1825.0	1825.0	1795.0	1795.0	1778.0	1778.0	1778.0	1823.0	1823.0	1831.0	1831.0	1831.0	1779.0	1779.0	1799.0	1799.0	1799.0	1784.0	1784.0	1754.0	1754.0	1754.0	1781.0	1781.0	1793.0	1793.0	1793.0	1785.0	1785.0	1755.0	1755.0	1755.0	1736.0	1736.0	1787.0	1787.0	1787.0	1759.0	1759.0	1718.0	1718.0	1718.0	1710.0	1710.0	1727.0	1727.0	1727.0	1752.0	1752.0	1743.0	1743.0	1743.0	1704.0	1704.0	1724.0	1724.0	1724.0	1707.0	1707.0	1748.0	1748.0	1748.0	1747.0	1747.0	1672.0	1672.0	1672.0	1723.0	1723.0	1694.0	1694.0	1694.0	1663.0	1663.0	1693.0	1693.0	1693.0	1673.0	1673.0	1688.0	1688.0	1688.0	1663.0	1663.0	1648.0	1648.0	1648.0	1712.0	1712.0	1701.0	1701.0	1701.0	1689.0	1689.0	1686.0	1686.0	1686.0	1669.0	1669.0	1648.0	1648.0	1648.0	1678.0	1678.0	1656.0	1656.0	1656.0	1674.0	1674.0	1638.0	1638.0	1638.0	1672.0	1672.0	1619.0	1619.0	1619.0	1672.0	1672.0	1623.0	1623.0	1623.0	1603.0	1603.0	1598.0	1598.0	1598.0	1607.0	1607.0	1626.0	1626.0	1626.0	1658.0	1658.0	1613.0	1613.0	1613.0	1610.0	1610.0	1634.0	1634.0	1640.0	1640.0	1640.0	1647.0	1647.0	1623.0	1623.0	1623.0	1600.0	1600.0	1603.0	1603.0	1603.0	1607.0	1607.0	1587.0	1587.0	1587.0	1596.0	1596.0	1605.0	1605.0	1605.0	1606.0	1606.0	1580.0	1580.0	1580.0	1614.0	1614.0	1590.0	1590.0	1590.0	1582.0	1582.0	1583.0	1583.0	1583.0	1638.0	1638.0	1571.0	1571.0	1571.0	1584.0	1584.0	1618.0	1618.0	1618.0	1595.0	1595.0	1609.0	1609.0	1609.0	1578.0	1578.0	1557.0	1557.0	1557.0	1563.0	1563.0	1555.0	1555.0	1555.0	1607.0	1607.0	1602.0	1602.0	1602.0	1542.0	1542.0	1562.0	1562.0	1562.0	1610.0	1610.0	1608.0	1608.0	1608.0	1563.0	1563.0	1556.0	1556.0	1556.0	1598.0	1598.0	1565.0	1565.0	1565.0	1593.0	1593.0	1602.0	1602.0	1602.0	1534.0	1534.0	1605.0	1605.0	1605.0	1551.0	1551.0	1582.0	1582.0	1582.0	1610.0	1610.0	1543.0	1543.0	1543.0	1538.0	1538.0	1595.0	1595.0	1595.0	1574.0	1574.0	1583.0	1583.0	1583.0	1561.0	1561.0	1529.0	1529.0	1529.0	1582.0	1582.0	1584.0	1584.0	1584.0	1548.0	1548.0	1530.0	1530.0	1530.0	1561.0	1561.0	1545.0	1545.0	1545.0	1573.0	1573.0	1520.0	1520.0	1520.0	1571.0	1571.0	1579.0	1579.0	1579.0	1571.0	1571.0	1551.0	1551.0	1551.0	1545.0	1545.0	1511.0	1511.0	1511.0	1533.0	1533.0	1557.0	1557.0	1557.0	1549.0	1549.0	1562.0	1562.0	1562.0	1538.0	1538.0	1522.0	1522.0	1522.0	1525.0	1525.0	1559.0	1559.0	1559.0	1510.0	1510.0	1531.0	1531.0	1531.0	1501.0	1501.0	1552.0	1552.0	1552.0	1535.0	1535.0	1547.0	1547.0	1547.0	1491.0	1491.0	1500.0	1500.0	1500.0	1484.0	1484.0	1495.0	1495.0	1516.0	1516.0	1516.0	1508.0	1508.0	1487.0	1487.0	1487.0	1484.0	1484.0	1497.0	1497.0	1497.0	1514.0	1514.0	1552.0	1552.0	1552.0	1510.0	1510.0	1542.0	1542.0	1542.0	1543.0	1543.0	1528.0	1528.0	1528.0	1551.0	1551.0	1548.0	1548.0	1548.0	1600.0	1600.0	1618.0	1618.0	1618.0	1584.0	1584.0	1594.0	1594.0	1594.0	1645.0	1645.0	1651.0	1651.0	1651.0	1693.0	1693.0	1730.0	1730.0	1730.0	1787.0	1787.0	1828.0	1828.0	1828.0	1876.0	1876.0	1864.0	1864.0	1864.0	1953.0	1953.0	1974.0	1974.0	1974.0	2016.0	2016.0	2016.0	2016.0	2016.0	2030.0	