1804.0	1804.0	1824.0	1824.0	1820.0	1820.0	1820.0	1827.0	1827.0	1839.0	1839.0	1839.0	1861.0	1861.0	1838.0	1838.0	1838.0	1851.0	1851.0	1853.0	1853.0	1853.0	1822.0	1822.0	1826.0	1826.0	1826.0	1840.0	1840.0	1849.0	1849.0	1849.0	1878.0	1878.0	1854.0	1854.0	1850.0	1850.0	1850.0	1881.0	1881.0	1882.0	1882.0	1882.0	1902.0	1902.0	1888.0	1888.0	1888.0	1917.0	1917.0	1929.0	1929.0	1929.0	1954.0	1954.0	1988.0	1988.0	1988.0	1970.0	1970.0	2002.0	2002.0	2002.0	2021.0	2021.0	2026.0	2026.0	2026.0	2056.0	2056.0	2073.0	2073.0	2073.0	2085.0	2085.0	2099.0	2099.0	2099.0	2119.0	2119.0	2160.0	2160.0	2160.0	2167.0	2167.0	2191.0	2191.0	2191.0	2190.0	2190.0	2215.0	2215.0	2215.0	2224.0	2224.0	2230.0	2230.0	2230.0	2253.0	2253.0	2281.0	2281.0	2281.0	2273.0	2273.0	2265.0	2265.0	2265.0	2307.0	2307.0	2290.0	2290.0	2290.0	2311.0	2311.0	2327.0	2327.0	2327.0	2318.0	2318.0	2352.0	2352.0	2352.0	2335.0	2335.0	2355.0	2355.0	2355.0	2356.0	2356.0	2360.0	2360.0	2360.0	2359.0	2359.0	2356.0	2356.0	2356.0	2358.0	2358.0	2376.0	2376.0	2376.0	2366.0	2366.0	2389.0	2389.0	2389.0	2375.0	2375.0	2375.0	2375.0	2375.0	2363.0	2363.0	2371.0	2371.0	2371.0	2371.0	2371.0	2381.0	2381.0	2381.0	2368.0	2368.0	2377.0	2377.0	2377.0	2394.0	2394.0	2388.0	2388.0	2388.0	2386.0	2386.0	2395.0	2395.0	2395.0	2386.0	2386.0	2367.0	2367.0	2367.0	2376.0	2376.0	2389.0	2389.0	2389.0	2379.0	2379.0	2383.0	2383.0	2383.0	2374.0	2374.0	2391.0	2391.0	2391.0	2383.0	2383.0	2383.0	2383.0	2383.0	2383.0	2383.0	2398.0	2398.0	2398.0	2364.0	2364.0	2389.0	2389.0	2389.0	2365.0	2365.0	2365.0	2365.0	2365.0	2362.0	2362.0	2374.0	2374.0	2374.0	2372.0	2372.0	2360.0	2360.0	2360.0	2362.0	2362.0	2357.0	2357.0	2357.0	2358.0	2358.0	2368.0	2368.0	2368.0	2338.0	2338.0	2370.0	2370.0	2342.0	2342.0	2342.0	2344.0	2344.0	2323.0	2323.0	2323.0	2350.0	2350.0	2327.0	2327.0	2327.0	2325.0	2325.0	2324.0	2324.0	2324.0	2318.0	2318.0	2329.0	2329.0	2329.0	2309.0	2309.0	2316.0	2316.0	2316.0	2313.0	2313.0	2292.0	2292.0	2292.0	2290.0	2290.0	2285.0	2285.0	2285.0	2299.0	2299.0	2305.0	2305.0	2305.0	2292.0	2292.0	2271.0	2271.0	2271.0	2292.0	2292.0	2263.0	2263.0	2263.0	2273.0	2273.0	2268.0	2268.0	2268.0	2258.0	2258.0	2235.0	2235.0	2235.0	2224.0	2224.0	2227.0	2227.0	2227.0	2236.0	2236.0	2220.0	2220.0	2220.0	2189.0	2189.0	2205.0	2205.0	2205.0	2185.0	2185.0	2199.0	2199.0	2199.0	2183.0	2183.0	2179.0	2179.0	2179.0	2151.0	2151.0	2142.0	2142.0	2142.0	2147.0	2147.0	2156.0	2156.0	2156.0	2136.0	2136.0	2131.0	2131.0	2131.0	2131.0	2131.0	2099.0	2099.0	2099.0	2127.0	2127.0	2124.0	2124.0	2124.0	2099.0	2099.0	2111.0	2111.0	2111.0	2090.0	2090.0	2075.0	2075.0	2075.0	2109.0	2109.0	2101.0	2101.0	2101.0	2067.0	2067.0	2064.0	2064.0	2064.0	2086.0	2086.0	2078.0	2078.0	2078.0	2057.0	2057.0	2075.0	2075.0	2075.0	2068.0	2068.0	2086.0	2086.0	2086.0	2063.0	2063.0	2061.0	2061.0	2061.0	2061.0	2061.0	2053.0	2053.0	2053.0	2074.0	2074.0	2055.0	2055.0	2055.0	2051.0	2051.0	2059.0	2059.0	2059.0	2043.0	2043.0	2039.0	2039.0	2039.0	2041.0	2041.0	2059.0	2059.0	2059.0	2028.0	2028.0	2049.0	2049.0	2049.0	2040.0	2040.0	2025.0	2025.0	2025.0	2037.0	2037.0	2029.0	2029.0	2029.0	2045.0	2045.0	2016.0	2016.0	2016.0	2047.0	2047.0	2021.0	2021.0	2019.0	2019.0	2019.0	2007.0	2007.0	2021.0	2021.0	2021.0	1997.0	1997.0	1997.0	1997.0	1997.0	2000.0	2000.0	1990.0	1990.0	1990.0	1987.0	1987.0	2001.0	2001.0	2001.0	1986.0	1986.0	2007.0	2007.0	2007.0	1994.0	1994.0	1978.0	1978.0	1978.0	1973.0	1973.0	1976.0	1976.0	1976.0	1980.0	1980.0	1959.0	1959.0	1959.0	1943.0	1943.0	1953.0	1953.0	1953.0	1952.0	1952.0	1968.0	1968.0	1968.0	1956.0	1956.0	1927.0	1927.0	1927.0	1947.0	1947.0	1928.0	1928.0	1928.0	1934.0	1934.0	1943.0	1943.0	1943.0	1936.0	1936.0	1940.0	1940.0	1940.0	1929.0	1929.0	1911.0	1911.0	1911.0	1916.0	1916.0	1903.0	1903.0	1903.0	1906.0	1906.0	1923.0	1923.0	1923.0	1911.0	1911.0	1923.0	1923.0	1923.0	1902.0	1902.0	1891.0	1891.0	1891.0	1891.0	1891.0	1877.0	1877.0	1877.0	1872.0	1872.0	1903.0	1903.0	1903.0	1888.0	1888.0	1883.0	1883.0	1883.0	1871.0	1871.0	1861.0	1861.0	1861.0	1864.0	1864.0	1871.0	1871.0	1871.0	1874.0	1874.0	1882.0	1882.0	1882.0	1887.0	1887.0	1870.0	1870.0	1870.0	1848.0	1848.0	1867.0	1867.0	1867.0	1861.0	1861.0	1847.0	1847.0	1847.0	1857.0	1857.0	1858.0	1858.0	1858.0	1862.0	1862.0	1840.0	1840.0	1840.0	1848.0	1848.0	1839.0	1839.0	1839.0	1840.0	1840.0	1839.0	1839.0	1839.0	1829.0	1829.0	1854.0	1854.0	1854.0	1842.0	1842.0	1814.0	1814.0	1814.0	1834.0	1834.0	1828.0	1828.0	1828.0	1815.0	1815.0	1812.0	1812.0	1812.0	1824.0	1824.0	1843.0	1843.0	1843.0	1814.0	1814.0	1800.0	1800.0	1800.0	1817.0	1817.0	1807.0	1807.0	1807.0	1799.0	1799.0	1818.0	1818.0	1806.0	1806.0	1806.0	1823.0	1823.0	1821.0	1821.0	1821.0	1834.0	1834.0	1811.0	1811.0	1811.0	1815.0	1815.0	1831.0	1831.0	1831.0	1795.0	1795.0	1818.0	1818.0	1818.0	1799.0	1799.0	1792.0	1792.0	1792.0	1790.0	1790.0	1797.0	1797.0	1797.0	1790.0	1790.0	1795.0	1795.0	1795.0	1811.0	1811.0	1803.0	1803.0	1803.0	1788.0	1788.0	1788.0	1788.0	1788.0	1799.0	1799.0	1788.0	1788.0	1788.0	1805.0	1805.0	1787.0	1787.0	1787.0	1805.0	1805.0	1788.0	1788.0	1788.0	1788.0	1788.0	1798.0	1798.0	1798.0	1790.0	1790.0	1792.0	1792.0	1792.0	1795.0	1795.0	1796.0	1796.0	1796.0	1802.0	1802.0	1807.0	1807.0	1807.0	1791.0	1791.0	1787.0	1787.0	1787.0	1803.0	1803.0	1814.0	1814.0	1814.0	1801.0	1801.0	1777.0	1777.0	1777.0	1792.0	1792.0	1798.0	1798.0	1798.0	1778.0	1778.0	1784.0	1784.0	1784.0	1787.0	1787.0	1783.0	1783.0	1783.0	1816.0	1816.0	1794.0	1794.0	1794.0	1789.0	1789.0	1793.0	1793.0	1793.0	1789.0	1789.0	1796.0	1796.0	1796.0	1782.0	1782.0	1768.0	1768.0	1768.0	1780.0	1780.0	1781.0	1781.0	1781.0	1796.0	1796.0	1788.0	1788.0	1788.0	1783.0	1783.0	1782.0	1782.0	1782.0	1771.0	1771.0	1778.0	1778.0	1778.0	1792.0	1792.0	1782.0	1782.0	1782.0	1791.0	1791.0	1771.0	1771.0	1771.0	1782.0	1782.0	1781.0	1781.0	1781.0	1775.0	1775.0	1774.0	1774.0	1774.0	1785.0	1785.0	1768.0	1768.0	1768.0	1795.0	1795.0	1778.0	1778.0	1778.0	1787.0	1787.0	1779.0	1779.0	1779.0	1803.0	1803.0	1809.0	1809.0	1809.0	1776.0	1776.0	1770.0	1770.0	1770.0	1795.0	1795.0	1787.0	1787.0	1787.0	1799.0	1799.0	1788.0	1788.0	1782.0	1782.0	1782.0	1770.0	1770.0	1802.0	1802.0	1802.0	1772.0	1772.0	1769.0	1769.0	1769.0	1788.0	1788.0	1776.0	1776.0	1776.0	1774.0	1774.0	1782.0	1782.0	1782.0	1784.0	1784.0	1772.0	1772.0	1772.0	1767.0	1767.0	1763.0	1763.0	1763.0	1787.0	1787.0	1774.0	1774.0	1774.0	1787.0	1787.0	1797.0	1797.0	1797.0	1780.0	1780.0	1775.0	1775.0	1775.0	1781.0	1781.0	1803.0	1803.0	1803.0	1788.0	1788.0	1784.0	1784.0	1784.0	1789.0	1789.0	1786.0	1786.0	1786.0	1772.0	1772.0	1792.0	1792.0	1792.0	1765.0	1765.0	1802.0	1802.0	1802.0	1799.0	1799.0	1797.0	1797.0	1797.0	1796.0	1796.0	1813.0	1813.0	1813.0	1837.0	1837.0	1831.0	1831.0	1831.0	1823.0	1823.0	1839.0	1839.0	1839.0	1886.0	1886.0	1877.0	1877.0	1877.0	1882.0	1882.0	1909.0	1909.0	1909.0	1940.0	1940.0	1939.0	1939.0	1939.0	1984.0	1984.0	1996.0	1996.0	1996.0	2012.0	2012.0	2034.0	2034.0	2034.0	2037.0	2037.0	2055.0	2055.0	2055.0	2071.0	2071.0	2097.0	2097.0	2097.0	2116.0	2116.0	2120.0	2120.0	2120.0	2168.0	2168.0	2161.0	2161.0	2161.0	2190.0	2190.0	2204.0	2204.0	2204.0	2201.0	2201.0	2232.0	2232.0	2232.0	2237.0	2237.0	2263.0	2263.0	2263.0	2258.0	2258.0	2278.0	2278.0	2278.0	2307.0	2307.0	2270.0	2270.0	2270.0	2274.0	2274.0	2296.0	2296.0	2296.0	2334.0	2334.0	2326.0	2326.0	2326.0	2319.0	2319.0	2335.0	2335.0	2335.0	2322.0	2322.0	2339.0	2339.0	2339.0	2360.0	2360.0	2330.0	2330.0	2330.0	2340.0	2340.0	2329.0	2329.0	2329.0	2347.0	2347.0	2328.0	2328.0	2328.0	2356.0	2356.0	2361.0	2361.0	2374.0	2374.0	2374.0	2340.0	2340.0	2336.0	2336.0	2336.0	2343.0	2343.0	2371.0	2371.0	2371.0	2367.0	2367.0	2375.0	2375.0	2375.0	2343.0	2343.0	2341.0	2341.0	2341.0	2353.0	2353.0	2359.0	2359.0	2359.0	2374.0	2374.0	2372.0	2372.0	2372.0	2350.0	2350.0	2341.0	2341.0	2341.0	2347.0	2347.0	2348.0	2348.0	2348.0	2364.0	2364.0	2358.0	2358.0	2358.0	2344.0	2344.0	2336.0	2336.0	2336.0	2345.0	2345.0	2336.0	2336.0	2336.0	2336.0	2336.0	2350.0	2350.0	2350.0	2317.0	2317.0	2336.0	2336.0	2336.0	2348.0	2348.0	2340.0	2340.0	2340.0	2331.0	2331.0	2322.0	2322.0	2322.0	2320.0	2320.0	2310.0	2310.0	2310.0	2319.0	2319.0	2315.0	2315.0	2315.0	2333.0	2333.0	2317.0	2317.0	2317.0	2312.0	2312.0	2296.0	2296.0	2296.0	2296.0	2296.0	2304.0	2304.0	2304.0	2312.0	2312.0	2280.0	2280.0	2280.0	2295.0	2295.0	2287.0	2287.0	2287.0	2274.0	2274.0	2280.0	2280.0	2280.0	2284.0	2284.0	2286.0	2286.0	2286.0	2261.0	2261.0	2251.0	2251.0	2251.0	2246.0	2246.0	2229.0	2229.0	2229.0	2255.0	2255.0	2216.0	2216.0	2216.0	2231.0	2231.0	2210.0	2210.0	2210.0	2203.0	2203.0	2199.0	2199.0	2199.0	2187.0	2187.0	2184.0	2184.0	2184.0	2183.0	2183.0	2161.0	2161.0	2161.0	2173.0	2173.0	2161.0	2161.0	2161.0	2150.0	2150.0	2145.0	2145.0	2145.0	2132.0	2132.0	2139.0	2139.0	2139.0	2126.0	2126.0	2141.0	2141.0	2141.0	2115.0	2115.0	2122.0	2122.0	2122.0	2110.0	2110.0	2092.0	2092.0	2092.0	2138.0	2138.0	2108.0	2108.0	2108.0	2098.0	2098.0	2099.0	2099.0	2099.0	2119.0	2119.0	2083.0	2083.0	2083.0	2117.0	2117.0	2087.0	2087.0	2102.0	2102.0	2102.0	2111.0	2111.0	2074.0	2074.0	2074.0	2099.0	2099.0	2070.0	2070.0	2070.0	2084.0	2084.0	2057.0	2057.0	2057.0	2090.0	2090.0	2095.0	2095.0	2095.0	2076.0	2076.0	2068.0	2068.0	2068.0	2063.0	2063.0	2065.0	2065.0	2065.0	2061.0	2061.0	2051.0	2051.0	2051.0	2080.0	2080.0	2071.0	2071.0	2071.0	2051.0	2051.0	2027.0	2027.0	2027.0	2051.0	2051.0	2065.0	2065.0	2065.0	2073.0	2073.0	2027.0	2027.0	2027.0	2060.0	2060.0	2038.0	2038.0	2038.0	2030.0	2030.0	2028.0	2028.0	2028.0	2030.0	2030.0	2050.0	2050.0	2050.0	2023.0	2023.0	2029.0	2029.0	2029.0	2022.0	2022.0	2040.0	2040.0	2040.0	2024.0	2024.0	2003.0	2003.0	2003.0	2023.0	2023.0	2023.0	2023.0	2023.0	2002.0	2002.0	2006.0	2006.0	2006.0	1996.0	1996.0	2005.0	2005.0	2005.0	1985.0	1985.0	1998.0	1998.0	1998.0	2008.0	2008.0	2005.0	2005.0	2005.0	1982.0	1982.0	1971.0	1971.0	1971.0	1989.0	1989.0	1988.0	1988.0	1988.0	1983.0	1983.0	1969.0	1969.0	1969.0	1974.0	1974.0	1969.0	1969.0	1969.0	1946.0	1946.0	1961.0	1961.0	1961.0	1961.0	1961.0	1954.0	1954.0	1954.0	1937.0	1937.0	1941.0	1941.0	1941.0	1954.0	1954.0	1941.0	1941.0	1941.0	1928.0	1928.0	1939.0	1939.0	1939.0	1925.0	1925.0	1940.0	1940.0	1940.0	1926.0	1926.0	1906.0	1906.0	1906.0	1903.0	1903.0	1936.0	1936.0	1936.0	1889.0	1889.0	1888.0	1888.0	1888.0	1890.0	1890.0	1895.0	1895.0	1895.0	1905.0	1905.0	1875.0	1875.0	1875.0	1867.0	1867.0	1867.0	1867.0	1867.0	1868.0	1868.0	1845.0	1845.0	1845.0	1864.0	1864.0	1861.0	1861.0	1857.0	1857.0	1857.0	1819.0	1819.0	1853.0	1853.0	1853.0	1812.0	1812.0	1844.0	1844.0	1844.0	1817.0	1817.0	1811.0	1811.0	1811.0	1807.0	1807.0	1796.0	1796.0	1796.0	1791.0	1791.0	1818.0	1818.0	1818.0	1781.0	1781.0	1800.0	1800.0	1800.0	1774.0	1774.0	1777.0	1777.0	1777.0	1751.0	1751.0	1750.0	1750.0	1750.0	1747.0	1747.0	1726.0	1726.0	1726.0	1732.0	1732.0	1709.0	1709.0	1709.0	1714.0	1714.0	1699.0	1699.0	1699.0	1690.0	1690.0	1666.0	1666.0	1666.0	1648.0	1648.0	1631.0	1631.0	1631.0	1616.0	1616.0	1623.0	1623.0	1623.0	1584.0	1584.0	1565.0	1565.0	1565.0	1571.0	1571.0	1536.0	1536.0	1536.0	1500.0	1500.0	1529.0	1529.0	1529.0	1500.0	1500.0	1477.0	1477.0	1477.0	1445.0	1445.0	1466.0	1466.0	1466.0	1446.0	1446.0	1402.0	1402.0	1402.0	1419.0	1419.0	1385.0	1385.0	1385.0	1393.0	1393.0	1387.0	1387.0	1387.0	1345.0	1345.0	1368.0	1368.0	1368.0	1367.0	1367.0	1326.0	1326.0	1326.0	1305.0	1305.0	1331.0	1331.0	1331.0	1324.0	1324.0	1308.0	1308.0	1308.0	1295.0	1295.0	1284.0	1284.0	1284.0	1294.0	1294.0	1288.0	1288.0	1288.0	1298.0	1298.0	1287.0	1287.0	1287.0	1279.0	1279.0	1283.0	1283.0	1283.0	1286.0	1286.0	1272.0	1272.0	1272.0	1300.0	1300.0	1303.0	1303.0	1303.0	1303.0	1303.0	1308.0	1308.0	1308.0	1292.0	1292.0	1296.0	1296.0	1296.0	1296.0	1296.0	1294.0	1294.0	1294.0	1286.0	1286.0	1273.0	1273.0	1273.0	1296.0	1296.0	1275.0	1275.0	1275.0	1290.0	1290.0	1291.0	1291.0	1291.0	1282.0	1282.0	1299.0	1299.0	1299.0	1274.0	1274.0	1295.0	1295.0	1291.0	1291.0	1291.0	1317.0	1317.0	1302.0	1302.0	1302.0	1318.0	1318.0	1289.0	1289.0	1289.0	1309.0	1309.0	1292.0	1292.0	1292.0	1315.0	1315.0	1295.0	1295.0	1295.0	1324.0	1324.0	1305.0	1305.0	1305.0	1295.0	1295.0	1304.0	1304.0	1304.0	1311.0	1311.0	1337.0	1337.0	1337.0	1330.0	1330.0	1347.0	1347.0	1347.0	1314.0	1314.0	1314.0	1314.0	1314.0	1331.0	1331.0	1346.0	1346.0	1346.0	1351.0	1351.0	1389.0	1389.0	1389.0	1388.0	1388.0	1365.0	1365.0	1365.0	1410.0	1410.0	1405.0	1405.0	1405.0	1432.0	1432.0	1434.0	1434.0	1434.0	1447.0	1447.0	1464.0	1464.0	1464.0	1467.0	1467.0	1508.0	1508.0	1508.0	1511.0	1511.0	1546.0	1546.0	1546.0	1535.0	1535.0	1568.0	1568.0	1568.0	1564.0	1564.0	1587.0	1587.0	1587.0	1635.0	1635.0	1641.0	1641.0	1641.0	1655.0	1655.0	1679.0	1679.0	1679.0	1696.0	1696.0	1709.0	1709.0	1709.0	1749.0	1749.0	1760.0	1760.0	1760.0	1769.0	1769.0	1768.0	1768.0	1768.0	1795.0	1795.0	1812.0	1812.0	1812.0	1850.0	1850.0	1876.0	1876.0	1876.0	1873.0	1873.0	1930.0	1930.0	1930.0	1939.0	1939.0	1977.0	1977.0	1977.0	1986.0	1986.0	2000.0	2000.0	2000.0	2045.0	2045.0	2080.0	2080.0	2080.0	2111.0	2111.0	2133.0	2133.0	2133.0	2144.0	2144.0	2180.0	2180.0	2180.0	2214.0	2214.0	2222.0	2222.0	2222.0	2273.0	2273.0	2288.0	2288.0	2288.0	2316.0	2316.0	2350.0	2350.0	2350.0	2365.0	2365.0	2387.0	2387.0	2387.0	2411.0	2411.0	2433.0	2433.0	2433.0	2469.0	2469.0	2520.0	2520.0	2520.0	2518.0	2518.0	2520.0	2520.0	2520.0	2556.0	2556.0	2581.0	2581.0	2581.0	2604.0	2604.0	2602.0	2602.0	2613.0	2613.0	2613.0	2634.0	2634.0	2655.0	2655.0	2655.0	2642.0	2642.0	2651.0	2651.0	2651.0	2665.0	2665.0	2694.0	2694.0	2694.0	2676.0	2676.0	2694.0	2694.0	2694.0	2694.0	2694.0	2697.0	2697.0	2697.0	2710.0	2710.0	2719.0	2719.0	2719.0	2715.0	2715.0	2691.0	2691.0	2691.0	2722.0	2722.0	2720.0	2720.0	2720.0	2715.0	2715.0	2718.0	2718.0	2718.0	2730.0	2730.0	2695.0	2695.0	2695.0	2726.0	2726.0	2699.0	2699.0	2699.0	2727.0	2727.0	2720.0	2720.0	2720.0	2719.0	2719.0	2708.0	2708.0	2708.0	2708.0	2708.0	2709.0	2709.0	2709.0	2705.0	2705.0	2716.0	2716.0	2716.0	2692.0	2692.0	2678.0	2678.0	2678.0	2668.0	2668.0	2673.0	2673.0	2673.0	2669.0	2669.0	2669.0	2669.0	2669.0	2667.0	2667.0	2688.0	2688.0	2688.0	2663.0	2663.0	2655.0	2655.0	2655.0	2664.0	2664.0	2638.0	2638.0	2638.0	2663.0	2663.0	2666.0	2666.0	2666.0	2653.0	2653.0	2636.0	2636.0	2636.0	2656.0	2656.0	2645.0	2645.0	2645.0	2639.0	2639.0	2629.0	2629.0	2629.0	2639.0	2639.0	2635.0	2635.0	2635.0	2632.0	2632.0	2617.0	2617.0	2617.0	2630.0	2630.0	2631.0	2631.0	2631.0	2599.0	2599.0	2624.0	2624.0	2624.0	2620.0	2620.0	2607.0	2607.0	2607.0	2614.0	2614.0	2585.0	2585.0	2585.0	2601.0	2601.0	2597.0	2597.0	2597.0	2591.0	2591.0	2599.0	2599.0	2599.0	2600.0	2600.0	2569.0	2569.0	2569.0	2564.0	2564.0	2579.0	2579.0	2579.0	2570.0	2570.0	2565.0	2565.0	2565.0	2556.0	2556.0	2544.0	2544.0	2544.0	2556.0	2556.0	2562.0	2562.0	2562.0	2523.0	2523.0	2530.0	2530.0	2530.0	2516.0	2516.0	2535.0	2535.0	2520.0	2520.0	2520.0	2506.0	2506.0	2491.0	2491.0	2491.0	2491.0	2491.0	2486.0	2486.0	2486.0	2499.0	2499.0	2477.0	2477.0	2477.0	2483.0	2483.0	2472.0	2472.0	2472.0	2474.0	