2527.0	2527.0	2527.0	2556.0	2556.0	2550.0	2550.0	2550.0	2545.0	2545.0	2506.0	2506.0	2506.0	2490.0	2490.0	2498.0	2498.0	2498.0	2493.0	2493.0	2467.0	2467.0	2467.0	2473.0	2473.0	2452.0	2452.0	2452.0	2491.0	2491.0	2473.0	2473.0	2473.0	2443.0	2443.0	2411.0	2411.0	2411.0	2413.0	2413.0	2380.0	2380.0	2380.0	2426.0	2426.0	2350.0	2350.0	2350.0	2344.0	2344.0	2328.0	2328.0	2328.0	2352.0	2352.0	2350.0	2350.0	2350.0	2303.0	2303.0	2292.0	2292.0	2292.0	2299.0	2299.0	2267.0	2267.0	2267.0	2270.0	2270.0	2270.0	2270.0	2270.0	2235.0	2235.0	2241.0	2241.0	2241.0	2190.0	2190.0	2215.0	2215.0	2215.0	2193.0	2193.0	2169.0	2169.0	2169.0	2167.0	2167.0	2167.0	2167.0	2167.0	2150.0	2150.0	2141.0	2141.0	2141.0	2130.0	2130.0	2062.0	2062.0	2062.0	2066.0	2066.0	2071.0	2071.0	2071.0	2091.0	2091.0	2086.0	2086.0	2086.0	2039.0	2039.0	2032.0	2032.0	2032.0	2026.0	2026.0	2031.0	2031.0	2031.0	2010.0	2010.0	2035.0	2035.0	2035.0	2015.0	2015.0	1972.0	1972.0	1972.0	2002.0	2002.0	1970.0	1970.0	1970.0	1962.0	1962.0	1939.0	1939.0	1988.0	1988.0	1988.0	1936.0	1936.0	1956.0	1956.0	1956.0	1985.0	1985.0	1971.0	1971.0	1971.0	1976.0	1976.0	1919.0	1919.0	1919.0	1909.0	1909.0	1913.0	1913.0	1913.0	1912.0	1912.0	1907.0	1907.0	1907.0	1968.0	1968.0	1941.0	1941.0	1941.0	1913.0	1913.0	1945.0	1945.0	1945.0	1907.0	1907.0	1894.0	1894.0	1894.0	1894.0	1894.0	1872.0	1872.0	1872.0	1911.0	1911.0	1909.0	1909.0	1909.0	1893.0	1893.0	1930.0	1930.0	1930.0	1913.0	1913.0	1900.0	1900.0	1900.0	1861.0	1861.0	1908.0	1908.0	1908.0	1883.0	1883.0	1874.0	1874.0	1874.0	1856.0	1856.0	1845.0	1845.0	1845.0	1897.0	1897.0	1842.0	1842.0	1842.0	1824.0	1824.0	1882.0	1882.0	1882.0	1820.0	1820.0	1825.0	1825.0	1825.0	1875.0	1875.0	1863.0	1863.0	1863.0	1852.0	1852.0	1850.0	1850.0	1850.0	1826.0	1826.0	1835.0	1835.0	1835.0	1789.0	1789.0	1791.0	1791.0	1791.0	1772.0	1772.0	1821.0	1821.0	1821.0	1768.0	1768.0	1802.0	1802.0	1802.0	1790.0	1790.0	1757.0	1757.0	1757.0	1799.0	1799.0	1746.0	1746.0	1746.0	1751.0	1751.0	1769.0	1769.0	1769.0	1738.0	1738.0	1757.0	1757.0	1757.0	1730.0	1730.0	1753.0	1753.0	1753.0	1724.0	1724.0	1712.0	1712.0	1712.0	1730.0	1730.0	1752.0	1752.0	1752.0	1739.0	1739.0	1689.0	1689.0	1689.0	1693.0	1693.0	1741.0	1741.0	1741.0	1722.0	1722.0	1669.0	1669.0	1669.0	1725.0	1725.0	1662.0	1662.0	1662.0	1679.0	1679.0	1715.0	1715.0	1715.0	1697.0	1697.0	1703.0	1703.0	1703.0	1646.0	1646.0	1667.0	1667.0	1667.0	1659.0	1659.0	1692.0	1692.0	1692.0	1660.0	1660.0	1660.0	1660.0	1666.0	1666.0	1666.0	1667.0	1667.0	1646.0	1646.0	1646.0	1643.0	1643.0	1623.0	1623.0	1623.0	1673.0	1673.0	1621.0	1621.0	1621.0	1611.0	1611.0	1635.0	1635.0	1635.0	1650.0	1650.0	1601.0	1601.0	1601.0	1643.0	1643.0	1639.0	1639.0	1639.0	1650.0	1650.0	1644.0	1644.0	1644.0	1599.0	1599.0	1644.0	1644.0	1644.0	1599.0	1599.0	1605.0	1605.0	1605.0	1624.0	1624.0	1587.0	1587.0	1587.0	1608.0	1608.0	1649.0	1649.0	1649.0	1627.0	1627.0	1588.0	1588.0	1588.0	1607.0	1607.0	1635.0	1635.0	1635.0	1615.0	1615.0	1604.0	1604.0	1604.0	1633.0	1633.0	1585.0	1585.0	1585.0	1630.0	1630.0	1570.0	1570.0	1570.0	1628.0	1628.0	1579.0	1579.0	1579.0	1584.0	1584.0	1568.0	1568.0	1568.0	1647.0	1647.0	1612.0	1612.0	1612.0	1601.0	1601.0	1625.0	1625.0	1625.0	1611.0	1611.0	1616.0	1616.0	1616.0	1576.0	1576.0	1613.0	1613.0	1613.0	1575.0	1575.0	1604.0	1604.0	1604.0	1585.0	1585.0	1623.0	1623.0	1623.0	1615.0	1615.0	1568.0	1568.0	1568.0	1595.0	1595.0	1563.0	1563.0	1563.0	1604.0	1604.0	1608.0	1608.0	1608.0	1560.0	1560.0	1616.0	1616.0	1616.0	1577.0	1577.0	1559.0	1559.0	1559.0	1568.0	1568.0	1562.0	1562.0	1562.0	1577.0	1577.0	1620.0	1620.0	1620.0	1591.0	1591.0	1631.0	1631.0	1631.0	1584.0	1584.0	1598.0	1598.0	1598.0	1600.0	1600.0	1669.0	1669.0	1669.0	1642.0	1642.0	1650.0	1650.0	1650.0	1695.0	1695.0	1722.0	1722.0	1722.0	1694.0	1694.0	1759.0	1759.0	1759.0	1779.0	1779.0	1766.0	1766.0	1766.0	1842.0	1842.0	1870.0	1870.0	1870.0	1879.0	1879.0	1918.0	1918.0	1918.0	1945.0	1945.0	1980.0	1980.0	2058.0	2058.0	2058.0	2059.0	2059.0	2148.0	2148.0	2148.0	2143.0	2143.0	2181.0	2181.0	2181.0	2204.0	2204.0	2266.0	2266.0	2266.0	2331.0	2331.0	2359.0	2359.0	2359.0	2379.0	2379.0	2417.0	2417.0	2417.0	2406.0	2406.0	2419.0	2419.0	2419.0	2443.0	2443.0	2479.0	2479.0	2479.0	2533.0	2533.0	2533.0	2533.0	2533.0	2587.0	2587.0	2567.0	2567.0	2567.0	2612.0	2612.0	2595.0	2595.0	2595.0	2618.0	2618.0	2609.0	2609.0	2609.0	2627.0	2627.0	2631.0	2631.0	2631.0	2623.0	2623.0	2668.0	2668.0	2668.0	2644.0	2644.0	2645.0	2645.0	2645.0	2655.0	2655.0	2679.0	2679.0	2679.0	2668.0	2668.0	2712.0	2712.0	2712.0	2655.0	2655.0	2663.0	2663.0	2663.0	2656.0	2656.0	2662.0	2662.0	2662.0	2649.0	2649.0	2680.0	2680.0	2680.0	2666.0	2666.0	2657.0	2657.0	2657.0	2669.0	2669.0	2659.0	2659.0	2659.0	2648.0	2648.0	2680.0	2680.0	2680.0	2631.0	2631.0	2625.0	2625.0	2625.0	2663.0	2663.0	2661.0	2661.0	2661.0	2604.0	2604.0	2611.0	2611.0	2611.0	2625.0	2625.0	2610.0	2610.0	2610.0	2584.0	2584.0	2574.0	2574.0	2574.0	2631.0	2631.0	2563.0	2563.0	2563.0	2550.0	2550.0	2572.0	2572.0	2572.0	2530.0	2530.0	2529.0	2529.0	2529.0	2524.0	2524.0	2532.0	2532.0	2532.0	2495.0	2495.0	2500.0	2500.0	2500.0	2479.0	2479.0	2490.0	2490.0	2490.0	2472.0	2472.0	2510.0	2510.0	2510.0	2495.0	2495.0	2501.0	2501.0	2501.0	2444.0	2444.0	2460.0	2460.0	2460.0	2445.0	2445.0	2427.0	2427.0	2427.0	2439.0	2439.0	2412.0	2412.0	2412.0	2420.0	2420.0	2402.0	2402.0	2402.0	2350.0	2350.0	2357.0	2357.0	2347.0	2347.0	2347.0	2341.0	2341.0	2338.0	2338.0	2338.0	2273.0	2273.0	2262.0	2262.0	2262.0	2226.0	2226.0	2268.0	2268.0	2268.0	2199.0	2199.0	2191.0	2191.0	2191.0	2246.0	2246.0	2226.0	2226.0	2226.0	2190.0	2190.0	2207.0	2207.0	2207.0	2161.0	2161.0	2133.0	2133.0	2133.0	2131.0	2131.0	2156.0	2156.0	2156.0	2131.0	2131.0	2100.0	2100.0	2100.0	2098.0	2098.0	2101.0	2101.0	2101.0	2093.0	2093.0	2068.0	2068.0	2068.0	2060.0	2060.0	2062.0	2062.0	2062.0	2038.0	2038.0	2007.0	2007.0	2007.0	2006.0	2006.0	2031.0	2031.0	2031.0	1986.0	1986.0	1989.0	1989.0	1989.0	1987.0	1987.0	1993.0	1993.0	1993.0	2004.0	2004.0	2015.0	2015.0	2015.0	1943.0	1943.0	1955.0	1955.0	1955.0	1977.0	1977.0	1944.0	1944.0	1944.0	1943.0	1943.0	1989.0	1989.0	1989.0	1986.0	1986.0	1930.0	1930.0	1930.0	1935.0	1935.0	1930.0	1930.0	1930.0	1925.0	1925.0	1938.0	1938.0	1938.0	1908.0	1908.0	1902.0	1902.0	1902.0	1968.0	1968.0	1902.0	1902.0	1902.0	1886.0	1886.0	1930.0	1930.0	1930.0	1899.0	1899.0	1927.0	1927.0	1927.0	1884.0	1884.0	1875.0	1875.0	1875.0	1924.0	1924.0	1906.0	1906.0	1906.0	1929.0	1929.0	1885.0	1885.0	1885.0	1886.0	1886.0	1903.0	1903.0	1903.0	1859.0	1859.0	1888.0	1888.0	1888.0	1887.0	1887.0	1868.0	1868.0	1868.0	1867.0	1867.0	1839.0	1839.0	1839.0	1852.0	1852.0	1849.0	1849.0	1849.0	1883.0	1883.0	1855.0	1855.0	1855.0	1849.0	1849.0	1867.0	1867.0	1867.0	1866.0	1866.0	1834.0	1834.0	1834.0	1858.0	1858.0	1822.0	1822.0	1822.0	1825.0	1825.0	1824.0	1824.0	1820.0	1820.0	1820.0	1797.0	1797.0	1833.0	1833.0	1833.0	1791.0	1791.0	1801.0	1801.0	1801.0	1803.0	1803.0	1776.0	1776.0	1776.0	1824.0	1824.0	1769.0	1769.0	1769.0	1800.0	1800.0	1806.0	1806.0	1806.0	1740.0	1740.0	1741.0	1741.0	1741.0	1782.0	1782.0	1787.0	1787.0	1787.0	1746.0	1746.0	1740.0	1740.0	1740.0	1754.0	1754.0	1712.0	1712.0	1712.0	1722.0	1722.0	1712.0	1712.0	1712.0	1763.0	1763.0	1732.0	1732.0	1732.0	1693.0	1693.0	1687.0	1687.0	1687.0	1746.0	1746.0	1710.0	1710.0	1710.0	1694.0	1694.0	1713.0	1713.0	1713.0	1680.0	1680.0	1719.0	1719.0	1719.0	1695.0	1695.0	1677.0	1677.0	1677.0	1676.0	1676.0	1703.0	1703.0	1703.0	1677.0	1677.0	1676.0	1676.0	1676.0	1704.0	1704.0	1639.0	1639.0	1639.0	1684.0	1684.0	1649.0	1649.0	1649.0	1663.0	1663.0	1658.0	1658.0	1658.0	1647.0	1647.0	1673.0	1673.0	1673.0	1665.0	1665.0	1634.0	1634.0	1634.0	1689.0	1689.0	1662.0	1662.0	1662.0	1623.0	1623.0	1656.0	1656.0	1656.0	1641.0	1641.0	1632.0	1632.0	1632.0	1678.0	1678.0	1662.0	1662.0	1662.0	1643.0	1643.0	1619.0	1619.0	1619.0	1656.0	1656.0	1635.0	1635.0	1635.0	1637.0	1637.0	1628.0	1628.0	1628.0	1647.0	1647.0	1645.0	1645.0	1645.0	1621.0	1621.0	1652.0	1652.0	1652.0	1629.0	1629.0	1607.0	1607.0	1607.0	1595.0	1595.0	1635.0	1635.0	1635.0	1631.0	1631.0	1582.0	1582.0	1582.0	1626.0	1626.0	1629.0	1629.0	1629.0	1628.0	1628.0	1570.0	1570.0	1570.0	1623.0	1623.0	1606.0	1606.0	1606.0	1616.0	1616.0	1591.0	1591.0	1591.0	1624.0	1624.0	1602.0	1602.0	1602.0	1560.0	1560.0	1609.0	1609.0	1557.0	1557.0	1557.0	1551.0	1551.0	1559.0	1559.0	1559.0	1546.0	1546.0	1562.0	1562.0	1562.0	1601.0	1601.0	1548.0	1548.0	1548.0	1579.0	1579.0	1549.0	1549.0	1549.0	1602.0	1602.0	1572.0	1572.0	1572.0	1561.0	1561.0	1540.0	1540.0	1540.0	1561.0	1561.0	1592.0	1592.0	1592.0	1570.0	1570.0	1609.0	1609.0	1609.0	1609.0	1609.0	1564.0	1564.0	1564.0	1624.0	1624.0	1597.0	1597.0	1597.0	1633.0	1633.0	1624.0	1624.0	1624.0	1638.0	1638.0	1652.0	1652.0	1652.0	1710.0	1710.0	1761.0	1761.0	1761.0	1747.0	1747.0	1802.0	1802.0	1802.0	1852.0	1852.0	1839.0	1839.0	1839.0	1885.0	1885.0	1911.0	1911.0	1911.0	1951.0	1951.0	2023.0	2023.0	2023.0	2079.0	2079.0	2072.0	2072.0	2072.0	2117.0	2117.0	2187.0	2187.0	2187.0	2198.0	2198.0	2261.0	2261.0	2261.0	2299.0	2299.0	2310.0	2310.0	2310.0	2365.0	2365.0	2393.0	2393.0	2393.0	2376.0	2376.0	2422.0	2422.0	2422.0	2471.0	2471.0	2462.0	2462.0	2462.0	2471.0	2471.0	2538.0	2538.0	2538.0	2537.0	2537.0	2544.0	2544.0	2544.0	2575.0	2575.0	2615.0	2615.0	2615.0	2615.0	2615.0	2584.0	2584.0	2584.0	2644.0	2644.0	2654.0	2654.0	2654.0	2649.0	2649.0	2618.0	2618.0	2618.0	2625.0	2625.0	2673.0	2673.0	2673.0	2653.0	2653.0	2691.0	2691.0	2691.0	2658.0	2658.0	2695.0	2695.0	2695.0	2672.0	2672.0	2662.0	2662.0	2662.0	2700.0	2700.0	2670.0	2670.0	2670.0	2648.0	2648.0	2692.0	2692.0	2692.0	2639.0	2639.0	2672.0	2672.0	2672.0	2695.0	2695.0	2686.0	2686.0	2686.0	2658.0	2658.0	2669.0	2669.0	2669.0	2688.0	2688.0	2639.0	2639.0	2680.0	2680.0	2680.0	2630.0	2630.0	2669.0	2669.0	2669.0	2655.0	2655.0	2634.0	2634.0	2634.0	2617.0	2617.0	2658.0	2658.0	2658.0	2604.0	2604.0	2642.0	2642.0	2642.0	2614.0	2614.0	2634.0	2634.0	2634.0	2592.0	2592.0	2571.0	2571.0	2571.0	2575.0	2575.0	2560.0	2560.0	2560.0	2558.0	2558.0	2593.0	2593.0	2593.0	2569.0	2569.0	2526.0	2526.0	2526.0	2532.0	2532.0	2532.0	2532.0	2532.0	2523.0	2523.0	2498.0	2498.0	2498.0	2489.0	2489.0	2523.0	2523.0	2523.0	2467.0	2467.0	2515.0	2515.0	2515.0	2503.0	2503.0	2467.0	2467.0	2467.0	2424.0	2424.0	2408.0	2408.0	2408.0	2456.0	2456.0	2408.0	2408.0	2408.0	2436.0	2436.0	2416.0	2416.0	2416.0	2380.0	2380.0	2371.0	2371.0	2371.0	2327.0	2327.0	2370.0	2370.0	2370.0	2327.0	2327.0	2297.0	2297.0	2297.0	2272.0	2272.0	2277.0	2277.0	2277.0	2252.0	2252.0	2279.0	2279.0	2279.0	2265.0	2265.0	2202.0	2202.0	2202.0	2187.0	2187.0	2215.0	2215.0	2215.0	2203.0	2203.0	2156.0	2156.0	2156.0	2156.0	2156.0	2118.0	2118.0	2118.0	2107.0	2107.0	2147.0	2147.0	2147.0	2135.0	2135.0	2117.0	2117.0	2117.0	2076.0	2076.0	2116.0	2116.0	2116.0	2050.0	2050.0	2088.0	2088.0	2088.0	2095.0	2095.0	2060.0	2060.0	2060.0	2020.0	2020.0	2038.0	2038.0	2038.0	2048.0	2048.0	2007.0	2007.0	2007.0	2014.0	2014.0	2014.0	2014.0	2014.0	1995.0	1995.0	2004.0	2004.0	2004.0	1961.0	1961.0	2006.0	2006.0	2006.0	1965.0	1965.0	1969.0	1969.0	1969.0	1980.0	1980.0	1994.0	1994.0	1994.0	1944.0	1944.0	1931.0	1931.0	1931.0	1981.0	1981.0	1925.0	1925.0	1966.0	1966.0	1966.0	1922.0	1922.0	1930.0	1930.0	1930.0	1905.0	1905.0	1908.0	1908.0	1908.0	1941.0	1941.0	1912.0	1912.0	1912.0	1935.0	1935.0	1935.0	1935.0	1935.0	1888.0	1888.0	1939.0	1939.0	1939.0	1937.0	1937.0	1878.0	1878.0	1878.0	1907.0	1907.0	1885.0	1885.0	1885.0	1921.0	1921.0	1895.0	1895.0	1895.0	1906.0	1906.0	1906.0	1906.0	1906.0	1903.0	1903.0	1865.0	1865.0	1865.0	1847.0	1847.0	1883.0	1883.0	1883.0	1861.0	1861.0	1855.0	1855.0	1855.0	1838.0	1838.0	1831.0	1831.0	1831.0	1878.0	1878.0	1874.0	1874.0	1874.0	1859.0	1859.0	1808.0	1808.0	1808.0	1823.0	1823.0	1802.0	1802.0	1802.0	1788.0	1788.0	1832.0	1832.0	1832.0	1845.0	1845.0	1785.0	1785.0	1785.0	1770.0	1770.0	1812.0	1812.0	1812.0	1820.0	1820.0	1764.0	1764.0	1764.0	1769.0	1769.0	1748.0	1748.0	1748.0	1744.0	1744.0	1774.0	1774.0	1774.0	1784.0	1784.0	1772.0	1772.0	1772.0	1787.0	1787.0	1752.0	1752.0	1752.0	1761.0	1761.0	1711.0	1711.0	1711.0	1739.0	1739.0	1715.0	1715.0	1715.0	1702.0	1702.0	1736.0	1736.0	1736.0	1741.0	1741.0	1700.0	1700.0	1700.0	1681.0	1681.0	1721.0	1721.0	1721.0	1711.0	1711.0	1678.0	1678.0	1678.0	1717.0	1717.0	1716.0	1716.0	1716.0	1703.0	1703.0	1653.0	1653.0	1653.0	1663.0	1663.0	1639.0	1639.0	1639.0	1639.0	1639.0	1630.0	1630.0	1630.0	1648.0	1648.0	1684.0	1684.0	1684.0	1677.0	1677.0	1633.0	1633.0	1633.0	1650.0	1650.0	1670.0	1670.0	1670.0	1667.0	1667.0	1652.0	1652.0	1652.0	1647.0	1647.0	1620.0	1620.0	1620.0	1654.0	1654.0	1628.0	1628.0	1628.0	1599.0	1599.0	1643.0	1643.0	1633.0	1633.0	1633.0	1647.0	1647.0	1647.0	1647.0	1647.0	1602.0	1602.0	1593.0	1593.0	1593.0	1596.0	1596.0	1604.0	1604.0	1604.0	1589.0	1589.0	1642.0	1642.0	1642.0	1621.0	1621.0	1638.0	1638.0	1638.0	1578.0	1578.0	1631.0	1631.0	1631.0	1569.0	1569.0	1633.0	1633.0	1633.0	1572.0	1572.0	1572.0	1572.0	1572.0	1607.0	1607.0	1627.0	1627.0	1627.0	1624.0	1624.0	1603.0	1603.0	1603.0	1626.0	1626.0	1627.0	1627.0	1627.0	1607.0	1607.0	1558.0	1558.0	1558.0	1595.0	1595.0	1580.0	1580.0	1580.0	1565.0	1565.0	1559.0	1559.0	1559.0	1558.0	1558.0	1547.0	1547.0	1547.0	1553.0	1553.0	1543.0	1543.0	1543.0	1577.0	1577.0	1570.0	1570.0	1570.0	1603.0	1603.0	1606.0	1606.0	1606.0	1606.0	1606.0	1542.0	1542.0	1542.0	1564.0	1564.0	1551.0	1551.0	1551.0	1589.0	1589.0	1566.0	1566.0	1566.0	1587.0	1587.0	1564.0	1564.0	1564.0	1557.0	1557.0	1596.0	1596.0	1596.0	1585.0	1585.0	1533.0	1533.0	1533.0	1560.0	1560.0	1537.0	1537.0	1537.0	1578.0	1578.0	1559.0	1559.0	1559.0	1519.0	1519.0	1580.0	1580.0	1580.0	1532.0	1532.0	1593.0	1593.0	1593.0	1593.0	1593.0	1545.0	1545.0	1545.0	1586.0	1586.0	1611.0	1611.0	1611.0	1572.0	1572.0	1640.0	1640.0	1640.0	1624.0	1624.0	1616.0	1616.0	1616.0	1700.0	1700.0	1707.0	1707.0	1707.0	1694.0	1694.0	1764.0	1764.0	1764.0	1770.0	1770.0	1803.0	1803.0	1803.0	1799.0	1799.0	1849.0	1849.0	1849.0	1910.0	1910.0	1961.0	1961.0	1961.0	2005.0	2005.0	1991.0	1991.0	1991.0	2080.0	2080.0	2131.0	2131.0	2131.0	2164.0	2164.0	2197.0	2197.0	2176.0	2176.0	2176.0	2270.0	2270.0	2260.0	2260.0	2260.0	2356.0	2356.0	2334.0	2334.0	2334.0	2354.0	2354.0	2379.0	2379.0	2379.0	2475.0	2475.0	2483.0	2483.0	2483.0	2511.0	2511.0	2482.0	2482.0	2482.0	2567.0	2567.0	2572.0	2572.0	2572.0	2602.0	2602.0	2590.0	2590.0	2590.0	2635.0	2635.0	2616.0	2616.0	2616.0	2607.0	2607.0	2625.0	2625.0	2625.0	2626.0	2626.0	2689.0	2689.0	2689.0	2684.0	2684.0	2638.0	2638.0	2638.0	2667.0	2667.0	2664.0	2664.0	2664.0	2658.0	2658.0	2709.0	2709.0	2709.0	2721.0	2721.0	2672.0	2672.0	2672.0	2697.0	2697.0	2669.0	2669.0	2669.0	2704.0	2704.0	2719.0	2719.0	2719.0	2679.0	2679.0	2719.0	2719.0	2719.0	2711.0	2711.0	2666.0	2666.0	2666.0	2690.0	2690.0	2658.0	2658.0	2658.0	2658.0	2658.0	2685.0	2685.0	2685.0	2703.0	2703.0	2673.0	2673.0	2673.0	2652.0	2652.0	2689.0	2689.0	2689.0	2639.0	2639.0	2664.0	2664.0	2664.0	2666.0	2666.0	2638.0	2638.0	2638.0	2621.0	2621.0	