2171.0	2171.0	2152.0	2152.0	2152.0	2210.0	2210.0	2145.0	2145.0	2145.0	2146.0	2146.0	2122.0	2122.0	2122.0	2131.0	2131.0	2180.0	2180.0	2180.0	2168.0	2168.0	2153.0	2153.0	2153.0	2120.0	2120.0	2129.0	2129.0	2129.0	2143.0	2143.0	2078.0	2078.0	2076.0	2076.0	2076.0	2055.0	2055.0	2068.0	2068.0	2068.0	2078.0	2078.0	2096.0	2096.0	2096.0	2112.0	2112.0	2037.0	2037.0	2037.0	2054.0	2054.0	2035.0	2035.0	2035.0	2089.0	2089.0	2089.0	2089.0	2089.0	2070.0	2070.0	2049.0	2049.0	2049.0	2048.0	2048.0	2006.0	2006.0	2006.0	2010.0	2010.0	2074.0	2074.0	2074.0	1992.0	1992.0	1996.0	1996.0	1996.0	1997.0	1997.0	2021.0	2021.0	2021.0	2042.0	2042.0	2008.0	2008.0	2008.0	2004.0	2004.0	1971.0	1971.0	1971.0	1995.0	1995.0	1966.0	1966.0	1966.0	1995.0	1995.0	2010.0	2010.0	2010.0	1974.0	1974.0	1950.0	1950.0	1950.0	1996.0	1996.0	2011.0	2011.0	2011.0	1949.0	1949.0	2002.0	2002.0	2002.0	1963.0	1963.0	1959.0	1959.0	1959.0	1975.0	1975.0	1983.0	1983.0	1983.0	1997.0	1997.0	1986.0	1986.0	1986.0	1981.0	1981.0	1948.0	1948.0	1948.0	1910.0	1910.0	1961.0	1961.0	1961.0	1955.0	1955.0	1955.0	1955.0	1955.0	1899.0	1899.0	1890.0	1890.0	1890.0	1956.0	1956.0	1882.0	1882.0	1882.0	1937.0	1937.0	1924.0	1924.0	1924.0	1867.0	1867.0	1922.0	1922.0	1922.0	1877.0	1877.0	1945.0	1945.0	1945.0	1864.0	1864.0	1913.0	1913.0	1913.0	1904.0	1904.0	1868.0	1868.0	1868.0	1898.0	1898.0	1915.0	1915.0	1915.0	1867.0	1867.0	1847.0	1847.0	1847.0	1882.0	1882.0	1880.0	1880.0	1880.0	1886.0	1886.0	1834.0	1834.0	1834.0	1859.0	1859.0	1837.0	1837.0	1837.0	1884.0	1884.0	1888.0	1888.0	1888.0	1861.0	1861.0	1861.0	1861.0	1861.0	1826.0	1826.0	1813.0	1813.0	1813.0	1844.0	1844.0	1861.0	1861.0	1861.0	1839.0	1839.0	1827.0	1827.0	1847.0	1847.0	1847.0	1867.0	1867.0	1804.0	1804.0	1804.0	1840.0	1840.0	1791.0	1791.0	1791.0	1836.0	1836.0	1839.0	1839.0	1839.0	1807.0	1807.0	1778.0	1778.0	1778.0	1790.0	1790.0	1850.0	1850.0	1850.0	1812.0	1812.0	1839.0	1839.0	1839.0	1828.0	1828.0	1767.0	1767.0	1767.0	1768.0	1768.0	1762.0	1762.0	1762.0	1771.0	1771.0	1798.0	1798.0	1798.0	1772.0	1772.0	1754.0	1754.0	1754.0	1776.0	1776.0	1774.0	1774.0	1774.0	1758.0	1758.0	1788.0	1788.0	1788.0	1743.0	1743.0	1750.0	1750.0	1750.0	1759.0	1759.0	1760.0	1760.0	1760.0	1737.0	1737.0	1743.0	1743.0	1743.0	1764.0	1764.0	1779.0	1779.0	1779.0	1813.0	1813.0	1802.0	1802.0	1802.0	1798.0	1798.0	1792.0	1792.0	1792.0	1734.0	1734.0	1764.0	1764.0	1764.0	1763.0	1763.0	1766.0	1766.0	1766.0	1786.0	1786.0	1742.0	1742.0	1742.0	1787.0	1787.0	1787.0	1787.0	1787.0	1739.0	1739.0	1774.0	1774.0	1774.0	1767.0	1767.0	1764.0	1764.0	1764.0	1745.0	1745.0	1749.0	1749.0	1749.0	1726.0	1726.0	1779.0	1779.0	1779.0	1776.0	1776.0	1735.0	1735.0	1735.0	1777.0	1777.0	1716.0	1716.0	1716.0	1715.0	1715.0	1717.0	1717.0	1717.0	1760.0	1760.0	1762.0	1762.0	1762.0	1757.0	1757.0	1746.0	1746.0	1746.0	1713.0	1713.0	1769.0	1769.0	1769.0	1767.0	1767.0	1704.0	1704.0	1704.0	1731.0	1731.0	1715.0	1715.0	1715.0	1736.0	1736.0	1701.0	1701.0	1701.0	1737.0	1737.0	1762.0	1762.0	1762.0	1706.0	1706.0	1701.0	1701.0	1701.0	1752.0	1752.0	1700.0	1700.0	1700.0	1738.0	1738.0	1712.0	1712.0	1712.0	1700.0	1700.0	1753.0	1753.0	1756.0	1756.0	1756.0	1741.0	1741.0	1692.0	1692.0	1692.0	1762.0	1762.0	1703.0	1703.0	1703.0	1679.0	1679.0	1739.0	1739.0	1739.0	1742.0	1742.0	1735.0	1735.0	1735.0	1685.0	1685.0	1702.0	1702.0	1702.0	1722.0	1722.0	1687.0	1687.0	1687.0	1699.0	1699.0	1691.0	1691.0	1691.0	1679.0	1679.0	1733.0	1733.0	1733.0	1717.0	1717.0	1717.0	1717.0	1717.0	1743.0	1743.0	1733.0	1733.0	1733.0	1673.0	1673.0	1686.0	1686.0	1686.0	1714.0	1714.0	1704.0	1704.0	1704.0	1702.0	1702.0	1684.0	1684.0	1684.0	1684.0	1684.0	1692.0	1692.0	1692.0	1753.0	1753.0	1712.0	1712.0	1712.0	1726.0	1726.0	1751.0	1751.0	1751.0	1734.0	1734.0	1766.0	1766.0	1766.0	1806.0	1806.0	1828.0	1828.0	1828.0	1837.0	1837.0	1808.0	1808.0	1808.0	1798.0	1798.0	1887.0	1887.0	1887.0	1845.0	1845.0	1908.0	1908.0	1908.0	1880.0	1880.0	1904.0	1904.0	1904.0	1917.0	1917.0	1925.0	1925.0	1925.0	1950.0	1950.0	2014.0	2014.0	2014.0	2006.0	2006.0	2012.0	2012.0	2012.0	2106.0	2106.0	2099.0	2099.0	2099.0	2066.0	2066.0	2096.0	2096.0	2096.0	2135.0	2135.0	2124.0	2124.0	2124.0	2180.0	2180.0	2163.0	2163.0	2163.0	2203.0	2203.0	2250.0	2250.0	2250.0	2269.0	2269.0	2212.0	2212.0	2212.0	2258.0	2258.0	2244.0	2244.0	2244.0	2265.0	2265.0	2267.0	2267.0	2267.0	2344.0	2344.0	2326.0	2326.0	2326.0	2370.0	2370.0	2313.0	2313.0	2313.0	2380.0	2380.0	2321.0	2321.0	2321.0	2326.0	2326.0	2394.0	2394.0	2394.0	2406.0	2406.0	2411.0	2411.0	2411.0	2383.0	2383.0	2368.0	2368.0	2368.0	2367.0	2367.0	2396.0	2396.0	2396.0	2442.0	2442.0	2379.0	2379.0	2449.0	2449.0	2449.0	2440.0	2440.0	2431.0	2431.0	2431.0	2427.0	2427.0	2403.0	2403.0	2403.0	2419.0	2419.0	2458.0	2458.0	2458.0	2408.0	2408.0	2399.0	2399.0	2399.0	2423.0	2423.0	2408.0	2408.0	2408.0	2414.0	2414.0	2407.0	2407.0	2407.0	2458.0	2458.0	2459.0	2459.0	2459.0	2489.0	2489.0	2438.0	2438.0	2438.0	2484.0	2484.0	2423.0	2423.0	2423.0	2462.0	2462.0	2477.0	2477.0	2477.0	2457.0	2457.0	2414.0	2414.0	2414.0	2451.0	2451.0	2476.0	2476.0	2476.0	2428.0	2428.0	2452.0	2452.0	2452.0	2452.0	2452.0	2462.0	2462.0	2462.0	2431.0	2431.0	2478.0	2478.0	2478.0	2484.0	2484.0	2411.0	2411.0	2411.0	2455.0	2455.0	2495.0	2495.0	2495.0	2439.0	2439.0	2427.0	2427.0	2427.0	2447.0	2447.0	2412.0	2412.0	2412.0	2424.0	2424.0	2415.0	2415.0	2415.0	2398.0	2398.0	2412.0	2412.0	2412.0	2420.0	2420.0	2395.0	2395.0	2395.0	2419.0	2419.0	2368.0	2368.0	2368.0	2382.0	2382.0	2370.0	2370.0	2370.0	2341.0	2341.0	2374.0	2374.0	2374.0	2374.0	2374.0	2325.0	2325.0	2325.0	2325.0	2325.0	2357.0	2357.0	2357.0	2364.0	2364.0	2286.0	2286.0	2286.0	2266.0	2266.0	2302.0	2302.0	2302.0	2299.0	2299.0	2303.0	2303.0	2303.0	2294.0	2294.0	2236.0	2236.0	2236.0	2262.0	2262.0	2257.0	2257.0	2257.0	2191.0	2191.0	2182.0	2182.0	2182.0	2190.0	2190.0	2166.0	2166.0	2166.0	2151.0	2151.0	2151.0	2151.0	2151.0	2174.0	2174.0	2129.0	2129.0	2129.0	2147.0	2147.0	2130.0	2130.0	2130.0	2139.0	2139.0	2117.0	2117.0	2117.0	2161.0	2161.0	2153.0	2153.0	2153.0	2087.0	2087.0	2125.0	2125.0	2137.0	2137.0	2137.0	2105.0	2105.0	2110.0	2110.0	2110.0	2078.0	2078.0	2088.0	2088.0	2088.0	2108.0	2108.0	2051.0	2051.0	2051.0	2101.0	2101.0	2087.0	2087.0	2087.0	2061.0	2061.0	2029.0	2029.0	2029.0	2100.0	2100.0	2079.0	2079.0	2079.0	2017.0	2017.0	2015.0	2015.0	2015.0	2013.0	2013.0	2046.0	2046.0	2046.0	2082.0	2082.0	2051.0	2051.0	2051.0	2061.0	2061.0	2018.0	2018.0	2018.0	2013.0	2013.0	2055.0	2055.0	2055.0	2049.0	2049.0	2045.0	2045.0	2045.0	2047.0	2047.0	2028.0	2028.0	2028.0	1975.0	1975.0	2000.0	2000.0	2000.0	1967.0	1967.0	1974.0	1974.0	1974.0	2012.0	2012.0	1998.0	1998.0	1998.0	1982.0	1982.0	1980.0	1980.0	1980.0	2007.0	2007.0	1950.0	1950.0	1950.0	1939.0	1939.0	1938.0	1938.0	1938.0	1968.0	1968.0	1991.0	1991.0	1991.0	1938.0	1938.0	1938.0	1938.0	1938.0	1983.0	1983.0	1940.0	1940.0	1940.0	1974.0	1974.0	1916.0	1916.0	1916.0	1967.0	1967.0	1955.0	1955.0	1955.0	1902.0	1902.0	1926.0	1926.0	1926.0	1972.0	1972.0	1948.0	1948.0	1948.0	1953.0	1953.0	1961.0	1961.0	1961.0	1910.0	1910.0	1892.0	1892.0	1892.0	1946.0	1946.0	1933.0	1933.0	1933.0	1888.0	1888.0	1886.0	1886.0	1886.0	1887.0	1887.0	1930.0	1930.0	1930.0	1870.0	1870.0	1880.0	1880.0	1880.0	1876.0	1876.0	1901.0	1901.0	1901.0	1923.0	1923.0	1886.0	1886.0	1886.0	1893.0	1893.0	1904.0	1904.0	1904.0	1904.0	1904.0	1878.0	1878.0	1878.0	1873.0	1873.0	1897.0	1897.0	1897.0	1827.0	1827.0	1855.0	1855.0	1855.0	1864.0	1864.0	1872.0	1872.0	1872.0	1865.0	1865.0	1831.0	1831.0	1831.0	1872.0	1872.0	1833.0	1833.0	1828.0	1828.0	1828.0	1845.0	1845.0	1813.0	1813.0	1813.0	1830.0	1830.0	1844.0	1844.0	1844.0	1779.0	1779.0	1793.0	1793.0	1793.0	1802.0	1802.0	1812.0	1812.0	1812.0	1783.0	1783.0	1782.0	1782.0	1782.0	1851.0	1851.0	1831.0	1831.0	1831.0	1839.0	1839.0	1815.0	1815.0	1815.0	1769.0	1769.0	1768.0	1768.0	1768.0	1771.0	1771.0	1753.0	1753.0	1753.0	1785.0	1785.0	1758.0	1758.0	1758.0	1817.0	1817.0	1808.0	1808.0	1808.0	1807.0	1807.0	1756.0	1756.0	1756.0	1794.0	1794.0	1798.0	1798.0	1798.0	1811.0	1811.0	1812.0	1812.0	1812.0	1813.0	1813.0	1804.0	1804.0	1804.0	1751.0	1751.0	1800.0	1800.0	1800.0	1743.0	1743.0	1747.0	1747.0	1747.0	1749.0	1749.0	1730.0	1730.0	1730.0	1735.0	1735.0	1800.0	1800.0	1800.0	1736.0	1736.0	1781.0	1781.0	1781.0	1798.0	1798.0	1726.0	1726.0	1726.0	1774.0	1774.0	1794.0	1794.0	1794.0	1765.0	1765.0	1716.0	1716.0	1716.0	1780.0	1780.0	1773.0	1773.0	1773.0	1796.0	1796.0	1772.0	1772.0	1772.0	1785.0	1785.0	1768.0	1768.0	1768.0	1718.0	1718.0	1764.0	1764.0	1764.0	1774.0	1774.0	1785.0	1785.0	1785.0	1746.0	1746.0	1714.0	1714.0	1714.0	1778.0	1778.0	1720.0	1720.0	1720.0	1733.0	1733.0	1710.0	1710.0	1710.0	1715.0	1715.0	1760.0	1760.0	1760.0	1751.0	1751.0	1722.0	1722.0	1722.0	1760.0	1760.0	1714.0	1714.0	1714.0	1774.0	1774.0	1699.0	1699.0	1699.0	1729.0	1729.0	1713.0	1713.0	1713.0	1712.0	1712.0	1745.0	1745.0	1745.0	1694.0	1694.0	1750.0	1750.0	1750.0	1747.0	1747.0	1760.0	1760.0	1760.0	1752.0	1752.0	1714.0	1714.0	1732.0	1732.0	1732.0	1693.0	1693.0	1702.0	1702.0	1702.0	1726.0	1726.0	1722.0	1722.0	1722.0	1739.0	1739.0	1754.0	1754.0	1754.0	1722.0	1722.0	1720.0	1720.0	1720.0	1728.0	1728.0	1688.0	1688.0	1688.0	1735.0	1735.0	1714.0	1714.0	1714.0	1740.0	1740.0	1702.0	1702.0	1702.0	1697.0	1697.0	1757.0	1757.0	1757.0	1687.0	1687.0	1718.0	1718.0	1718.0	1725.0	1725.0	1735.0	1735.0	1735.0	1763.0	1763.0	1722.0	1722.0	1722.0	1744.0	1744.0	1792.0	1792.0	1792.0	1730.0	1730.0	1768.0	1768.0	1768.0	1790.0	1790.0	1783.0	1783.0	1783.0	1839.0	1839.0	1859.0	1859.0	1859.0	1810.0	1810.0	1888.0	1888.0	1888.0	1875.0	1875.0	1924.0	1924.0	1924.0	1925.0	1925.0	1966.0	1966.0	1966.0	1960.0	1960.0	2005.0	2005.0	2005.0	1967.0	1967.0	2010.0	2010.0	2010.0	2049.0	2049.0	2053.0	2053.0	2053.0	2058.0	2058.0	2112.0	2112.0	2112.0	2139.0	2139.0	2114.0	2114.0	2114.0	2163.0	2163.0	2171.0	2171.0	2171.0	2179.0	2179.0	2185.0	2185.0	2185.0	2191.0	2191.0	2223.0	2223.0	2223.0	2273.0	2273.0	2261.0	2261.0	2261.0	2315.0	2315.0	2262.0	2262.0	2262.0	2265.0	2265.0	2312.0	2312.0	2312.0	2296.0	2296.0	2350.0	2350.0	2350.0	2311.0	2311.0	2311.0	2311.0	2311.0	2338.0	2338.0	2403.0	2403.0	2403.0	2409.0	2409.0	2347.0	2347.0	2347.0	2405.0	2405.0	2428.0	2428.0	2428.0	2359.0	2359.0	2375.0	2375.0	2375.0	2375.0	2375.0	2439.0	2439.0	2439.0	2414.0	2414.0	2385.0	2385.0	2385.0	2416.0	2416.0	2442.0	2442.0	2442.0	2393.0	2393.0	2458.0	2458.0	2458.0	2426.0	2426.0	2436.0	2436.0	2391.0	2391.0	2391.0	2442.0	2442.0	2432.0	2432.0	2432.0	2445.0	2445.0	2400.0	2400.0	2400.0	2457.0	2457.0	2421.0	2421.0	2421.0	2417.0	2417.0	2454.0	2454.0	2454.0	2461.0	2461.0	2446.0	2446.0	2446.0	2457.0	2457.0	2447.0	2447.0	2447.0	2473.0	2473.0	2465.0	2465.0	2465.0	2475.0	2475.0	2424.0	2424.0	2424.0	2460.0	2460.0	2460.0	2460.0	2460.0	2399.0	2399.0	2455.0	2455.0	2455.0	2441.0	2441.0	2461.0	2461.0	2461.0	2396.0	2396.0	2445.0	2445.0	2445.0	2396.0	2396.0	2435.0	2435.0	2435.0	2453.0	2453.0	2388.0	2388.0	2388.0	2427.0	2427.0	2422.0	2422.0	2422.0	2415.0	2415.0	2376.0	2376.0	2376.0	2432.0	2432.0	2419.0	2419.0	2419.0	2364.0	2364.0	2414.0	2414.0	2414.0	2347.0	2347.0	2345.0	2345.0	2345.0	2356.0	2356.0	2371.0	2371.0	2371.0	2338.0	2338.0	2299.0	2299.0	2299.0	2305.0	2305.0	2288.0	2288.0	2288.0	2290.0	2290.0	2289.0	2289.0	2289.0	2284.0	2284.0	2281.0	2281.0	2281.0	2308.0	2308.0	2267.0	2267.0	2267.0	2262.0	2262.0	2225.0	2225.0	2225.0	2215.0	2215.0	2269.0	2269.0	2269.0	2241.0	2241.0	2236.0	2236.0	2236.0	2226.0	2226.0	2226.0	2226.0	2226.0	2167.0	2167.0	2221.0	2221.0	2221.0	2168.0	2168.0	2126.0	2126.0	2126.0	2186.0	2186.0	2127.0	2127.0	2127.0	2111.0	2111.0	2145.0	2145.0	2145.0	2143.0	2143.0	2117.0	2117.0	2117.0	2112.0	2112.0	2071.0	2071.0	2071.0	2064.0	2064.0	2107.0	2107.0	2107.0	2067.0	2067.0	2086.0	2086.0	2086.0	2098.0	2098.0	2107.0	2107.0	2107.0	2029.0	2029.0	2094.0	2094.0	2094.0	2023.0	2023.0	2002.0	2002.0	2002.0	2054.0	2054.0	1995.0	1995.0	2062.0	2062.0	2062.0	2044.0	2044.0	2003.0	2003.0	2003.0	2028.0	2028.0	2038.0	2038.0	2038.0	2030.0	2030.0	2010.0	2010.0	2010.0	2015.0	2015.0	2018.0	2018.0	2018.0	2018.0	2018.0	1966.0	1966.0	1966.0	2021.0	2021.0	2024.0	2024.0	2024.0	2007.0	2007.0	1958.0	1958.0	1958.0	1969.0	1969.0	1950.0	1950.0	1950.0	1994.0	1994.0	2001.0	2001.0	2001.0	1953.0	1953.0	1996.0	1996.0	1996.0	1921.0	1921.0	1967.0	1967.0	1967.0	1947.0	1947.0	1934.0	1934.0	1934.0	1939.0	1939.0	1930.0	1930.0	1930.0	1941.0	1941.0	1903.0	1903.0	1903.0	1961.0	1961.0	1965.0	1965.0	1965.0	1956.0	1956.0	1928.0	1928.0	1928.0	1926.0	1926.0	1938.0	1938.0	1938.0	1888.0	1888.0	1920.0	1920.0	1920.0	1926.0	1926.0	1902.0	1902.0	1902.0	1854.0	1854.0	1854.0	1854.0	1854.0	1859.0	1859.0	1909.0	1909.0	1909.0	1898.0	1898.0	1906.0	1906.0	1906.0	1852.0	1852.0	1868.0	1868.0	1868.0	1884.0	1884.0	1895.0	1895.0	1895.0	1875.0	1875.0	1876.0	1876.0	1876.0	1839.0	1839.0	1812.0	1812.0	1812.0	1820.0	1820.0	1848.0	1848.0	1848.0	1874.0	1874.0	1841.0	1841.0	1841.0	1812.0	1812.0	1868.0	1868.0	1868.0	1802.0	1802.0	1806.0	1806.0	1806.0	1817.0	1817.0	1847.0	1847.0	1847.0	1854.0	1854.0	1801.0	1801.0	1801.0	1783.0	1783.0	1788.0	1788.0	1788.0	1772.0	1772.0	1808.0	1808.0	1808.0	1836.0	1836.0	1790.0	1790.0	1790.0	1782.0	1782.0	1832.0	1832.0	1832.0	1762.0	1762.0	1823.0	1823.0	1823.0	1754.0	1754.0	1816.0	1816.0	1816.0	1748.0	1748.0	1746.0	1746.0	1746.0	1743.0	1743.0	1797.0	1797.0	1801.0	1801.0	1801.0	1746.0	1746.0	1779.0	1779.0	1779.0	1776.0	1776.0	1768.0	1768.0	1768.0	1777.0	1777.0	1742.0	1742.0	1742.0	1739.0	1739.0	1763.0	1763.0	1763.0	1731.0	1731.0	1772.0	1772.0	1772.0	1761.0	1761.0	1715.0	1715.0	1715.0	1713.0	1713.0	1770.0	1770.0	1770.0	1750.0	1750.0	1713.0	1713.0	1713.0	1752.0	1752.0	1732.0	1732.0	1732.0	1776.0	1776.0	1762.0	1762.0	1762.0	1701.0	1701.0	1739.0	1739.0	1739.0	1715.0	1715.0	1691.0	1691.0	1691.0	1763.0	1763.0	1684.0	1684.0	1684.0	1730.0	1730.0	1728.0	1728.0	1728.0	1734.0	1734.0	1751.0	1751.0	1751.0	1700.0	1700.0	1745.0	1745.0	1745.0	1731.0	1731.0	1709.0	1709.0	1709.0	1682.0	1682.0	1684.0	1684.0	1684.0	1675.0	1675.0	1715.0	1715.0	1715.0	1734.0	1734.0	1678.0	1678.0	1678.0	1712.0	1712.0	1688.0	1688.0	1688.0	1675.0	1675.0	1685.0	1685.0	1685.0	1675.0	1675.0	1679.0	1679.0	1679.0	1738.0	1738.0	1699.0	1699.0	1699.0	1749.0	1749.0	1701.0	1701.0	1701.0	1743.0	1743.0	1671.0	1671.0	1671.0	1739.0	1739.0	1662.0	1662.0	1662.0	1736.0	1736.0	1734.0	1734.0	1734.0	1661.0	1661.0	1731.0	1731.0	1731.0	1680.0	1680.0	1682.0	1682.0	1682.0	1683.0	1683.0	1702.0	1702.0	1702.0	1694.0	1694.0	1723.0	1723.0	1723.0	1682.0	1682.0	1727.0	1727.0	1727.0	1647.0	1647.0	1705.0	1705.0	1705.0	1695.0	1695.0	1694.0	1694.0	1694.0	1699.0	1699.0	1723.0	1723.0	1723.0	1662.0	1662.0	1651.0	1651.0	1651.0	1718.0	1718.0	1662.0	1662.0	1662.0	1691.0	1691.0	1662.0	1662.0	1662.0	1667.0	1667.0	1719.0	1719.0	1712.0	1712.0	1712.0	1716.0	1716.0	1650.0	1650.0	1650.0	1713.0	1713.0	1657.0	1657.0	1657.0	1650.0	1650.0	1692.0	1692.0	1692.0	1635.0	1635.0	1653.0	1653.0	1653.0	1674.0	1674.0	1696.0	1696.0	1696.0	1635.0	1635.0	1646.0	