2158.0	2158.0	2131.0	2131.0	2131.0	2143.0	2143.0	2061.0	2061.0	2061.0	2055.0	2055.0	2099.0	2099.0	2099.0	2115.0	2115.0	2081.0	2081.0	2081.0	2093.0	2093.0	2082.0	2082.0	2082.0	2076.0	2076.0	2038.0	2038.0	2038.0	2077.0	2077.0	2027.0	2027.0	2027.0	2083.0	2083.0	2012.0	2012.0	2012.0	2075.0	2075.0	2008.0	2008.0	2059.0	2059.0	2059.0	2004.0	2004.0	2087.0	2087.0	2087.0	2025.0	2025.0	2064.0	2064.0	2064.0	2036.0	2036.0	2003.0	2003.0	2003.0	2053.0	2053.0	2028.0	2028.0	2028.0	2028.0	2028.0	2050.0	2050.0	2050.0	1985.0	1985.0	2023.0	2023.0	2023.0	1969.0	1969.0	2010.0	2010.0	2010.0	1999.0	1999.0	1958.0	1958.0	1958.0	1980.0	1980.0	1996.0	1996.0	1996.0	2011.0	2011.0	1946.0	1946.0	1946.0	1991.0	1991.0	1944.0	1944.0	1944.0	2005.0	2005.0	1993.0	1993.0	1993.0	2005.0	2005.0	1931.0	1931.0	1931.0	1995.0	1995.0	1980.0	1980.0	1980.0	1970.0	1970.0	1973.0	1973.0	1973.0	1962.0	1962.0	1968.0	1968.0	1968.0	1956.0	1956.0	1882.0	1882.0	1882.0	1870.0	1870.0	1903.0	1903.0	1903.0	1875.0	1875.0	1850.0	1850.0	1850.0	1904.0	1904.0	1912.0	1912.0	1912.0	1859.0	1859.0	1879.0	1879.0	1879.0	1864.0	1864.0	1834.0	1834.0	1834.0	1906.0	1906.0	1820.0	1820.0	1820.0	1844.0	1844.0	1900.0	1900.0	1900.0	1821.0	1821.0	1864.0	1864.0	1864.0	1858.0	1858.0	1793.0	1793.0	1793.0	1827.0	1827.0	1799.0	1799.0	1799.0	1849.0	1849.0	1784.0	1784.0	1784.0	1846.0	1846.0	1819.0	1819.0	1819.0	1799.0	1799.0	1826.0	1826.0	1826.0	1774.0	1774.0	1822.0	1822.0	1822.0	1768.0	1768.0	1766.0	1766.0	1766.0	1832.0	1832.0	1821.0	1821.0	1821.0	1821.0	1821.0	1825.0	1825.0	1825.0	1794.0	1794.0	1753.0	1753.0	1753.0	1799.0	1799.0	1748.0	1748.0	1748.0	1819.0	1819.0	1759.0	1759.0	1759.0	1732.0	1732.0	1741.0	1741.0	1741.0	1755.0	1755.0	1810.0	1810.0	1810.0	1723.0	1723.0	1775.0	1775.0	1775.0	1794.0	1794.0	1793.0	1793.0	1772.0	1772.0	1772.0	1800.0	1800.0	1753.0	1753.0	1753.0	1726.0	1726.0	1792.0	1792.0	1792.0	1786.0	1786.0	1701.0	1701.0	1701.0	1714.0	1714.0	1740.0	1740.0	1740.0	1739.0	1739.0	1739.0	1739.0	1739.0	1746.0	1746.0	1726.0	1726.0	1726.0	1730.0	1730.0	1766.0	1766.0	1766.0	1763.0	1763.0	1751.0	1751.0	1751.0	1724.0	1724.0	1681.0	1681.0	1681.0	1708.0	1708.0	1736.0	1736.0	1736.0	1734.0	1734.0	1712.0	1712.0	1712.0	1739.0	1739.0	1707.0	1707.0	1707.0	1684.0	1684.0	1706.0	1706.0	1706.0	1672.0	1672.0	1707.0	1707.0	1707.0	1703.0	1703.0	1755.0	1755.0	1755.0	1736.0	1736.0	1692.0	1692.0	1692.0	1748.0	1748.0	1702.0	1702.0	1702.0	1723.0	1723.0	1683.0	1683.0	1683.0	1680.0	1680.0	1671.0	1671.0	1671.0	1703.0	1703.0	1723.0	1723.0	1723.0	1647.0	1647.0	1653.0	1653.0	1653.0	1723.0	1723.0	1644.0	1644.0	1644.0	1735.0	1735.0	1644.0	1644.0	1644.0	1732.0	1732.0	1640.0	1640.0	1640.0	1721.0	1721.0	1643.0	1643.0	1643.0	1695.0	1695.0	1688.0	1688.0	1688.0	1719.0	1719.0	1716.0	1716.0	1716.0	1637.0	1637.0	1650.0	1650.0	1650.0	1657.0	1657.0	1683.0	1683.0	1683.0	1707.0	1707.0	1684.0	1684.0	1684.0	1695.0	1695.0	1708.0	1708.0	1708.0	1753.0	1753.0	1768.0	1768.0	1768.0	1747.0	1747.0	1800.0	1800.0	1800.0	1814.0	1814.0	1811.0	1811.0	1811.0	1815.0	1815.0	1783.0	1783.0	1783.0	1858.0	1858.0	1889.0	1889.0	1889.0	1927.0	1927.0	1911.0	1911.0	1911.0	1962.0	1962.0	1993.0	1993.0	1993.0	1931.0	1931.0	2032.0	2032.0	2032.0	2037.0	2037.0	2081.0	2081.0	2078.0	2078.0	2078.0	2104.0	2104.0	2055.0	2055.0	2055.0	2144.0	2144.0	2138.0	2138.0	2138.0	2176.0	2176.0	2170.0	2170.0	2170.0	2122.0	2122.0	2216.0	2216.0	2216.0	2184.0	2184.0	2161.0	2161.0	2161.0	2191.0	2191.0	2225.0	2225.0	2225.0	2246.0	2246.0	2252.0	2252.0	2252.0	2197.0	2197.0	2185.0	2185.0	2185.0	2220.0	2220.0	2247.0	2247.0	2247.0	2268.0	2268.0	2275.0	2275.0	2275.0	2196.0	2196.0	2239.0	2239.0	2239.0	2232.0	2232.0	2205.0	2205.0	2205.0	2202.0	2202.0	2232.0	2232.0	2232.0	2225.0	2225.0	2213.0	2213.0	2213.0	2278.0	2278.0	2215.0	2215.0	2215.0	2211.0	2211.0	2244.0	2244.0	2244.0	2211.0	2211.0	2245.0	2245.0	2245.0	2209.0	2209.0	2284.0	2284.0	2284.0	2301.0	2301.0	2226.0	2226.0	2226.0	2302.0	2302.0	2229.0	2229.0	2229.0	2223.0	2223.0	2252.0	2252.0	2252.0	2249.0	2249.0	2317.0	2317.0	2317.0	2259.0	2259.0	2293.0	2293.0	2293.0	2296.0	2296.0	2341.0	2341.0	2341.0	2339.0	2339.0	2304.0	2304.0	2304.0	2316.0	2316.0	2320.0	2320.0	2320.0	2332.0	2332.0	2309.0	2309.0	2309.0	2369.0	2369.0	2284.0	2284.0	2284.0	2287.0	2287.0	2301.0	2301.0	2301.0	2315.0	2315.0	2294.0	2294.0	2294.0	2372.0	2372.0	2300.0	2300.0	2300.0	2346.0	2346.0	2300.0	2300.0	2300.0	2327.0	2327.0	2296.0	2296.0	2296.0	2327.0	2327.0	2380.0	2380.0	2380.0	2388.0	2388.0	2306.0	2306.0	2306.0	2298.0	2298.0	2304.0	2304.0	2304.0	2379.0	2379.0	2294.0	2294.0	2294.0	2355.0	2355.0	2337.0	2337.0	2337.0	2321.0	2321.0	2293.0	2293.0	2293.0	2324.0	2324.0	2267.0	2267.0	2313.0	2313.0	2313.0	2302.0	2302.0	2273.0	2273.0	2273.0	2235.0	2235.0	2223.0	2223.0	2223.0	2228.0	2228.0	2212.0	2212.0	2212.0	2229.0	2229.0	2174.0	2174.0	2174.0	2169.0	2169.0	2237.0	2237.0	2237.0	2203.0	2203.0	2227.0	2227.0	2227.0	2182.0	2182.0	2119.0	2119.0	2119.0	2174.0	2174.0	2127.0	2127.0	2127.0	2181.0	2181.0	2181.0	2181.0	2181.0	2148.0	2148.0	2124.0	2124.0	2124.0	2150.0	2150.0	2130.0	2130.0	2130.0	2071.0	2071.0	2056.0	2056.0	2056.0	2070.0	2070.0	2041.0	2041.0	2041.0	2112.0	2112.0	2118.0	2118.0	2118.0	2034.0	2034.0	2106.0	2106.0	2106.0	2037.0	2037.0	2111.0	2111.0	2111.0	2075.0	2075.0	2026.0	2026.0	2026.0	2022.0	2022.0	2082.0	2082.0	2082.0	2103.0	2103.0	2034.0	2034.0	2034.0	2028.0	2028.0	2014.0	2014.0	2014.0	2075.0	2075.0	2032.0	2032.0	2032.0	2049.0	2049.0	2017.0	2017.0	2017.0	2073.0	2073.0	1992.0	1992.0	1992.0	2001.0	2001.0	1981.0	1981.0	1981.0	1987.0	1987.0	2035.0	2035.0	2035.0	2034.0	2034.0	1976.0	1976.0	1976.0	2036.0	2036.0	1970.0	1970.0	1970.0	1983.0	1983.0	1947.0	1947.0	1947.0	1974.0	1974.0	1971.0	1971.0	1971.0	1967.0	1967.0	1968.0	1968.0	1968.0	1963.0	1963.0	1978.0	1978.0	1978.0	1978.0	1978.0	1906.0	1906.0	1906.0	1976.0	1976.0	1913.0	1913.0	1913.0	1929.0	1929.0	1921.0	1921.0	1921.0	1920.0	1920.0	1893.0	1893.0	1893.0	1904.0	1904.0	1933.0	1933.0	1933.0	1895.0	1895.0	1861.0	1861.0	1861.0	1871.0	1871.0	1902.0	1902.0	1902.0	1892.0	1892.0	1851.0	1851.0	1851.0	1845.0	1845.0	1891.0	1891.0	1891.0	1825.0	1825.0	1839.0	1839.0	1842.0	1842.0	1842.0	1851.0	1851.0	1895.0	1895.0	1895.0	1835.0	1835.0	1885.0	1885.0	1885.0	1855.0	1855.0	1803.0	1803.0	1803.0	1858.0	1858.0	1879.0	1879.0	1879.0	1819.0	1819.0	1782.0	1782.0	1782.0	1794.0	1794.0	1868.0	1868.0	1868.0	1826.0	1826.0	1851.0	1851.0	1851.0	1768.0	1768.0	1833.0	1833.0	1833.0	1815.0	1815.0	1760.0	1760.0	1760.0	1771.0	1771.0	1790.0	1790.0	1790.0	1797.0	1797.0	1741.0	1741.0	1741.0	1783.0	1783.0	1797.0	1797.0	1797.0	1779.0	1779.0	1804.0	1804.0	1804.0	1765.0	1765.0	1742.0	1742.0	1742.0	1742.0	1742.0	1809.0	1809.0	1809.0	1728.0	1728.0	1738.0	1738.0	1738.0	1747.0	1747.0	1743.0	1743.0	1743.0	1723.0	1723.0	1728.0	1728.0	1728.0	1715.0	1715.0	1777.0	1777.0	1777.0	1748.0	1748.0	1753.0	1753.0	1753.0	1775.0	1775.0	1782.0	1782.0	1782.0	1770.0	1770.0	1695.0	1695.0	1695.0	1753.0	1753.0	1711.0	1711.0	1711.0	1698.0	1698.0	1701.0	1701.0	1701.0	1783.0	1783.0	1771.0	1771.0	1771.0	1775.0	1775.0	1769.0	1769.0	1769.0	1745.0	1745.0	1696.0	1696.0	1696.0	1689.0	1689.0	1715.0	1715.0	1715.0	1752.0	1752.0	1685.0	1685.0	1685.0	1702.0	1702.0	1684.0	1684.0	1684.0	1677.0	1677.0	1686.0	1686.0	1686.0	1725.0	1725.0	1751.0	1751.0	1751.0	1728.0	1728.0	1739.0	1739.0	1739.0	1751.0	1751.0	1750.0	1750.0	1750.0	1677.0	1677.0	1682.0	1682.0	1682.0	1672.0	1672.0	1695.0	1695.0	1695.0	1729.0	1729.0	1711.0	1711.0	1711.0	1727.0	1727.0	1657.0	1657.0	1657.0	1666.0	1666.0	1728.0	1728.0	1728.0	1734.0	1734.0	1659.0	1659.0	1645.0	1645.0	1645.0	1682.0	1682.0	1651.0	1651.0	1651.0	1642.0	1642.0	1718.0	1718.0	1718.0	1701.0	1701.0	1644.0	1644.0	1644.0	1716.0	1716.0	1714.0	1714.0	1714.0	1637.0	1637.0	1655.0	1655.0	1655.0	1667.0	1667.0	1661.0	1661.0	1661.0	1668.0	1668.0	1692.0	1692.0	1692.0	1718.0	1718.0	1648.0	1648.0	1648.0	1662.0	1662.0	1689.0	1689.0	1689.0	1732.0	1732.0	1702.0	1702.0	1702.0	1704.0	1704.0	1732.0	1732.0	1732.0	1717.0	1717.0	1760.0	1760.0	1760.0	1781.0	1781.0	1716.0	1716.0	1716.0	1815.0	1815.0	1832.0	1832.0	1832.0	1775.0	1775.0	1872.0	1872.0	1872.0	1874.0	1874.0	1895.0	1895.0	1895.0	1867.0	1867.0	1953.0	1953.0	1953.0	1960.0	1960.0	1973.0	1973.0	1973.0	1977.0	1977.0	2017.0	2017.0	2017.0	2010.0	2010.0	2047.0	2047.0	2047.0	2022.0	2022.0	2109.0	2109.0	2109.0	2083.0	2083.0	2131.0	2131.0	2131.0	2107.0	2107.0	2184.0	2184.0	2184.0	2104.0	2104.0	2144.0	2144.0	2144.0	2187.0	2187.0	2144.0	2144.0	2144.0	2172.0	2172.0	2154.0	2154.0	2154.0	2203.0	2203.0	2195.0	2195.0	2195.0	2243.0	2243.0	2248.0	2248.0	2248.0	2175.0	2175.0	2253.0	2253.0	2253.0	2192.0	2192.0	2177.0	2177.0	2177.0	2240.0	2240.0	2243.0	2243.0	2243.0	2196.0	2196.0	2187.0	2187.0	2187.0	2217.0	2217.0	2234.0	2234.0	2234.0	2245.0	2245.0	2248.0	2248.0	2248.0	2189.0	2189.0	2249.0	2249.0	2249.0	2204.0	2204.0	2188.0	2188.0	2188.0	2231.0	2231.0	2245.0	2245.0	2245.0	2272.0	2272.0	2190.0	2190.0	2190.0	2204.0	2204.0	2211.0	2211.0	2211.0	2249.0	2249.0	2228.0	2228.0	2228.0	2244.0	2244.0	2217.0	2217.0	2249.0	2249.0	2249.0	2218.0	2218.0	2289.0	2289.0	2289.0	2304.0	2304.0	2228.0	2228.0	2228.0	2296.0	2296.0	2311.0	2311.0	2311.0	2311.0	2311.0	2315.0	2315.0	2315.0	2255.0	2255.0	2273.0	2273.0	2273.0	2329.0	2329.0	2325.0	2325.0	2325.0	2294.0	2294.0	2314.0	2314.0	2314.0	2272.0	2272.0	2272.0	2272.0	2272.0	2266.0	2266.0	2366.0	2366.0	2366.0	2281.0	2281.0	2271.0	2271.0	2271.0	2293.0	2293.0	2292.0	2292.0	2292.0	2344.0	2344.0	2276.0	2276.0	2276.0	2284.0	2284.0	2343.0	2343.0	2343.0	2332.0	2332.0	2275.0	2275.0	2275.0	2342.0	2342.0	2339.0	2339.0	2339.0	2269.0	2269.0	2272.0	2272.0	2272.0	2304.0	2304.0	2248.0	2248.0	2248.0	2239.0	2239.0	2316.0	2316.0	2316.0	2311.0	2311.0	2301.0	2301.0	2301.0	2217.0	2217.0	2291.0	2291.0	2291.0	2212.0	2212.0	2192.0	2192.0	2192.0	2214.0	2214.0	2266.0	2266.0	2266.0	2174.0	2174.0	2186.0	2186.0	2186.0	2188.0	2188.0	2132.0	2132.0	2132.0	2156.0	2156.0	2193.0	2193.0	2193.0	2125.0	2125.0	2126.0	2126.0	2126.0	2164.0	2164.0	2121.0	2121.0	2121.0	2086.0	2086.0	2059.0	2059.0	2059.0	2135.0	2135.0	2068.0	2068.0	2068.0	2041.0	2041.0	2067.0	2067.0	2067.0	2109.0	2109.0	2067.0	2067.0	2067.0	2107.0	2107.0	2115.0	2115.0	2115.0	2103.0	2103.0	2016.0	2016.0	2016.0	2079.0	2079.0	2071.0	2071.0	2071.0	2084.0	2084.0	2018.0	2018.0	2018.0	2103.0	2103.0	2066.0	2066.0	2066.0	2100.0	2100.0	2080.0	2080.0	2080.0	2079.0	2079.0	2011.0	2011.0	2011.0	2065.0	2065.0	2003.0	2003.0	2003.0	2078.0	2078.0	2005.0	2005.0	2014.0	2014.0	2014.0	2070.0	2070.0	1991.0	1991.0	1991.0	2029.0	2029.0	1993.0	1993.0	1993.0	2058.0	2058.0	2050.0	2050.0	2050.0	2045.0	2045.0	1989.0	1989.0	1989.0	1956.0	1956.0	1975.0	1975.0	1975.0	1998.0	1998.0	1947.0	1947.0	1947.0	1942.0	1942.0	2016.0	2016.0	2016.0	1933.0	1933.0	2007.0	2007.0	2007.0	2001.0	2001.0	1999.0	1999.0	1999.0	1995.0	1995.0	1945.0	1945.0	1945.0	1980.0	1980.0	1987.0	1987.0	1987.0	1985.0	1985.0	1902.0	1902.0	1902.0	1970.0	1970.0	1897.0	1897.0	1897.0	1924.0	1924.0	1879.0	1879.0	1879.0	1890.0	1890.0	1953.0	1953.0	1953.0	1858.0	1858.0	1927.0	1927.0	1927.0	1859.0	1859.0	1864.0	1864.0	1864.0	1902.0	1902.0	1922.0	1922.0	1922.0	1918.0	1918.0	1861.0	1861.0	1861.0	1869.0	1869.0	1823.0	1823.0	1823.0	1889.0	1889.0	1841.0	1841.0	1841.0	1811.0	1811.0	1849.0	1849.0	1849.0	1881.0	1881.0	1848.0	1848.0	1848.0	1879.0	1879.0	1844.0	1844.0	1844.0	1788.0	1788.0	1792.0	1792.0	1792.0	1788.0	1788.0	1785.0	1785.0	1785.0	1853.0	1853.0	1844.0	1844.0	1844.0	1816.0	1816.0	1769.0	1769.0	1769.0	1786.0	1786.0	1851.0	1851.0	1851.0	1766.0	1766.0	1770.0	1770.0	1770.0	1753.0	1753.0	1835.0	1835.0	1835.0	1772.0	1772.0	1818.0	1818.0	1818.0	1787.0	1787.0	1740.0	1740.0	1740.0	1763.0	1763.0	1756.0	1756.0	1756.0	1808.0	1808.0	1745.0	1745.0	1745.0	1803.0	1803.0	1730.0	1730.0	1730.0	1727.0	1727.0	1777.0	1777.0	1777.0	1794.0	1794.0	1808.0	1808.0	1808.0	1740.0	1740.0	1806.0	1806.0	1806.0	1739.0	1739.0	1790.0	1790.0	1713.0	1713.0	1713.0	1714.0	1714.0	1770.0	1770.0	1770.0	1782.0	1782.0	1710.0	1710.0	1710.0	1716.0	1716.0	1709.0	1709.0	1709.0	1723.0	1723.0	1702.0	1702.0	1702.0	1754.0	1754.0	1700.0	1700.0	1700.0	1715.0	1715.0	1776.0	1776.0	1776.0	1706.0	1706.0	1771.0	1771.0	1771.0	1698.0	1698.0	1700.0	1700.0	1700.0	1691.0	1691.0	1715.0	1715.0	1715.0	1691.0	1691.0	1715.0	1715.0	1715.0	1761.0	1761.0	1708.0	1708.0	1708.0	1690.0	1690.0	1751.0	1751.0	1751.0	1756.0	1756.0	1677.0	1677.0	1677.0	1762.0	1762.0	1691.0	1691.0	1691.0	1751.0	1751.0	1666.0	1666.0	1666.0	1695.0	1695.0	1664.0	1664.0	1664.0	1685.0	1685.0	1665.0	1665.0	1665.0	1743.0	1743.0	1741.0	1741.0	1741.0	1719.0	1719.0	1705.0	1705.0	1705.0	1660.0	1660.0	1694.0	1694.0	1694.0	1646.0	1646.0	1704.0	1704.0	1704.0	1708.0	1708.0	1648.0	1648.0	1648.0	1679.0	1679.0	1703.0	1703.0	1703.0	1641.0	1641.0	1638.0	1638.0	1638.0	1652.0	1652.0	1669.0	1669.0	1669.0	1731.0	1731.0	1672.0	1672.0	1672.0	1674.0	1674.0	1699.0	1699.0	1699.0	1685.0	1685.0	1745.0	1745.0	1745.0	1722.0	1722.0	1717.0	1717.0	1717.0	1799.0	1799.0	1800.0	1800.0	1800.0	1849.0	1849.0	1812.0	1812.0	1812.0	1828.0	1828.0	1898.0	1898.0	1898.0	1928.0	1928.0	1945.0	1945.0	1945.0	1971.0	1971.0	1928.0	1928.0	1928.0	1944.0	1944.0	2008.0	2008.0	2008.0	1996.0	1996.0	2034.0	2034.0	2034.0	2017.0	2017.0	2062.0	2062.0	2062.0	2107.0	2107.0	2127.0	2127.0	2127.0	2079.0	2079.0	2167.0	2167.0	2167.0	2103.0	2103.0	2193.0	2193.0	2193.0	2131.0	2131.0	2134.0	2134.0	2168.0	2168.0	2168.0	2169.0	2169.0	2192.0	2192.0	2192.0	2208.0	2208.0	2169.0	2169.0	2169.0	2250.0	2250.0	2205.0	2205.0	2205.0	2255.0	2255.0	2173.0	2173.0	2173.0	2254.0	2254.0	2276.0	2276.0	2276.0	2262.0	2262.0	2184.0	2184.0	2184.0	2244.0	2244.0	2232.0	2232.0	2232.0	2210.0	2210.0	2232.0	2232.0	2232.0	2187.0	2187.0	2224.0	2224.0	2224.0	2186.0	2186.0	2255.0	2255.0	2255.0	2204.0	2204.0	2254.0	2254.0	2254.0	2273.0	2273.0	2286.0	2286.0	2286.0	2217.0	2217.0	2213.0	2213.0	2213.0	2287.0	2287.0	2203.0	2203.0	2203.0	2271.0	2271.0	2226.0	2226.0	2226.0	2290.0	2290.0	2276.0	2276.0	2276.0	2308.0	2308.0	2283.0	2283.0	2283.0	2314.0	2314.0	2287.0	2287.0	2287.0	2233.0	2233.0	2320.0	2320.0	2320.0	2306.0	2306.0	2276.0	2276.0	2276.0	2310.0	2310.0	2326.0	2326.0	2326.0	2338.0	2338.0	2277.0	2277.0	2277.0	2270.0	2270.0	2267.0	2267.0	2267.0	2298.0	2298.0	2280.0	2280.0	2280.0	2348.0	2348.0	2311.0	2311.0	2311.0	2287.0	2287.0	2280.0	2280.0	2280.0	2317.0	2317.0	2298.0	2298.0	2298.0	2292.0	2292.0	2353.0	2353.0	2353.0	2361.0	2361.0	2282.0	2282.0	2282.0	2296.0	2296.0	2347.0	2347.0	2347.0	2270.0	2270.0	2268.0	2268.0	2268.0	2280.0	2280.0	2310.0	2310.0	2310.0	2296.0	2296.0	2338.0	2338.0	2338.0	2306.0	2306.0	2310.0	2310.0	2310.0	2311.0	2311.0	2274.0	2274.0	2274.0	2231.0	2231.0	2310.0	2310.0	2310.0	2241.0	2241.0	2263.0	2263.0	2263.0	2210.0	2210.0	2258.0	2258.0	2258.0	2200.0	2200.0	2243.0	2243.0	2243.0	2167.0	2167.0	2156.0	2156.0	2144.0	2144.0	2144.0	2202.0	2202.0	2152.0	2152.0	2152.0	2178.0	2178.0	2118.0	2118.0	2118.0	2166.0	2166.0	2128.0	