1955.0	1955.0	1955.0	1976.0	1976.0	1916.0	1916.0	1916.0	1983.0	1983.0	1975.0	1975.0	1975.0	1928.0	1928.0	1966.0	1966.0	1966.0	1968.0	1968.0	1984.0	1984.0	1984.0	1902.0	1902.0	1904.0	1904.0	1904.0	1918.0	1918.0	1917.0	1917.0	1917.0	1915.0	1915.0	1967.0	1967.0	1967.0	1888.0	1888.0	1913.0	1913.0	1913.0	1922.0	1922.0	1958.0	1958.0	1958.0	1935.0	1935.0	1896.0	1896.0	1896.0	1888.0	1888.0	1960.0	1960.0	1960.0	1911.0	1911.0	1874.0	1874.0	1874.0	1891.0	1891.0	1936.0	1936.0	1936.0	1926.0	1926.0	1892.0	1892.0	1892.0	1937.0	1937.0	1907.0	1907.0	1907.0	1919.0	1919.0	1886.0	1886.0	1886.0	1939.0	1939.0	1870.0	1870.0	1870.0	1897.0	1897.0	1927.0	1927.0	1927.0	1894.0	1894.0	1956.0	1956.0	1956.0	1902.0	1902.0	1878.0	1878.0	1878.0	1941.0	1941.0	1947.0	1947.0	1947.0	1907.0	1907.0	1936.0	1936.0	1936.0	1940.0	1940.0	1957.0	1957.0	1957.0	1956.0	1956.0	1936.0	1936.0	1936.0	1960.0	1960.0	2003.0	2003.0	2003.0	1972.0	1972.0	1984.0	1984.0	1984.0	2070.0	2070.0	2016.0	2016.0	2016.0	2042.0	2042.0	2042.0	2042.0	2042.0	2108.0	2108.0	2066.0	2066.0	2066.0	2164.0	2164.0	2127.0	2127.0	2127.0	2141.0	2141.0	2212.0	2212.0	2212.0	2155.0	2155.0	2244.0	2244.0	2244.0	2224.0	2224.0	2194.0	2194.0	2194.0	2206.0	2206.0	2294.0	2294.0	2294.0	2244.0	2244.0	2241.0	2241.0	2241.0	2263.0	2263.0	2311.0	2311.0	2311.0	2344.0	2344.0	2342.0	2342.0	2351.0	2351.0	2351.0	2344.0	2344.0	2385.0	2385.0	2385.0	2321.0	2321.0	2389.0	2389.0	2389.0	2351.0	2351.0	2368.0	2368.0	2368.0	2363.0	2363.0	2380.0	2380.0	2380.0	2360.0	2360.0	2422.0	2422.0	2422.0	2363.0	2363.0	2414.0	2414.0	2414.0	2453.0	2453.0	2422.0	2422.0	2422.0	2383.0	2383.0	2403.0	2403.0	2403.0	2408.0	2408.0	2404.0	2404.0	2404.0	2388.0	2388.0	2459.0	2459.0	2459.0	2439.0	2439.0	2457.0	2457.0	2457.0	2475.0	2475.0	2443.0	2443.0	2443.0	2421.0	2421.0	2467.0	2467.0	2467.0	2484.0	2484.0	2466.0	2466.0	2466.0	2483.0	2483.0	2474.0	2474.0	2474.0	2490.0	2490.0	2468.0	2468.0	2468.0	2488.0	2488.0	2425.0	2425.0	2425.0	2487.0	2487.0	2474.0	2474.0	2474.0	2420.0	2420.0	2454.0	2454.0	2454.0	2427.0	2427.0	2422.0	2422.0	2422.0	2451.0	2451.0	2425.0	2425.0	2425.0	2487.0	2487.0	2425.0	2425.0	2425.0	2415.0	2415.0	2432.0	2432.0	2432.0	2454.0	2454.0	2418.0	2418.0	2418.0	2409.0	2409.0	2405.0	2405.0	2405.0	2412.0	2412.0	2459.0	2459.0	2459.0	2467.0	2467.0	2406.0	2406.0	2406.0	2408.0	2408.0	2430.0	2430.0	2430.0	2443.0	2443.0	2418.0	2418.0	2418.0	2388.0	2388.0	2458.0	2458.0	2458.0	2368.0	2368.0	2364.0	2364.0	2364.0	2419.0	2419.0	2362.0	2362.0	2362.0	2408.0	2408.0	2352.0	2352.0	2352.0	2366.0	2366.0	2335.0	2335.0	2335.0	2380.0	2380.0	2338.0	2338.0	2338.0	2330.0	2330.0	2316.0	2316.0	2316.0	2316.0	2316.0	2299.0	2299.0	2299.0	2287.0	2287.0	2280.0	2280.0	2280.0	2318.0	2318.0	2338.0	2338.0	2338.0	2348.0	2348.0	2277.0	2277.0	2277.0	2244.0	2244.0	2312.0	2312.0	2280.0	2280.0	2280.0	2304.0	2304.0	2312.0	2312.0	2312.0	2268.0	2268.0	2309.0	2309.0	2309.0	2280.0	2280.0	2233.0	2233.0	2233.0	2273.0	2273.0	2292.0	2292.0	2292.0	2220.0	2220.0	2296.0	2296.0	2296.0	2292.0	2292.0	2283.0	2283.0	2283.0	2300.0	2300.0	2260.0	2260.0	2260.0	2242.0	2242.0	2272.0	2272.0	2272.0	2290.0	2290.0	2215.0	2215.0	2215.0	2276.0	2276.0	2269.0	2269.0	2269.0	2282.0	2282.0	2260.0	2260.0	2260.0	2249.0	2249.0	2257.0	2257.0	2257.0	2282.0	2282.0	2276.0	2276.0	2276.0	2243.0	2243.0	2257.0	2257.0	2257.0	2244.0	2244.0	2279.0	2279.0	2279.0	2252.0	2252.0	2195.0	2195.0	2195.0	2272.0	2272.0	2239.0	2239.0	2239.0	2205.0	2205.0	2198.0	2198.0	2198.0	2203.0	2203.0	2200.0	2200.0	2200.0	2225.0	2225.0	2188.0	2188.0	2188.0	2195.0	2195.0	2256.0	2256.0	2256.0	2217.0	2217.0	2197.0	2197.0	2197.0	2178.0	2178.0	2185.0	2185.0	2185.0	2194.0	2194.0	2216.0	2216.0	2216.0	2180.0	2180.0	2255.0	2255.0	2255.0	2218.0	2218.0	2218.0	2218.0	2218.0	2162.0	2162.0	2165.0	2165.0	2165.0	2184.0	2184.0	2167.0	2167.0	2167.0	2181.0	2181.0	2193.0	2193.0	2193.0	2230.0	2230.0	2155.0	2155.0	2155.0	2218.0	2218.0	2185.0	2185.0	2185.0	2147.0	2147.0	2216.0	2216.0	2216.0	2176.0	2176.0	2197.0	2197.0	2197.0	2153.0	2153.0	2208.0	2208.0	2208.0	2169.0	2169.0	2155.0	2155.0	2155.0	2142.0	2142.0	2174.0	2174.0	2174.0	2201.0	2201.0	2125.0	2125.0	2125.0	2121.0	2121.0	2195.0	2195.0	2195.0	2169.0	2169.0	2130.0	2130.0	2130.0	2186.0	2186.0	2190.0	2190.0	2141.0	2141.0	2141.0	2188.0	2188.0	2109.0	2109.0	2109.0	2151.0	2151.0	2136.0	2136.0	2136.0	2103.0	2103.0	2182.0	2182.0	2182.0	2132.0	2132.0	2155.0	2155.0	2155.0	2105.0	2105.0	2102.0	2102.0	2102.0	2085.0	2085.0	2107.0	2107.0	2107.0	2161.0	2161.0	2159.0	2159.0	2159.0	2086.0	2086.0	2157.0	2157.0	2157.0	2148.0	2148.0	2116.0	2116.0	2116.0	2091.0	2091.0	2101.0	2101.0	2101.0	2113.0	2113.0	2090.0	2090.0	2090.0	2068.0	2068.0	2107.0	2107.0	2107.0	2119.0	2119.0	2093.0	2093.0	2093.0	2055.0	2055.0	2078.0	2078.0	2078.0	2114.0	2114.0	2071.0	2071.0	2071.0	2083.0	2083.0	2099.0	2099.0	2099.0	2038.0	2038.0	2062.0	2062.0	2062.0	2047.0	2047.0	2036.0	2036.0	2036.0	2029.0	2029.0	2053.0	2053.0	2053.0	2100.0	2100.0	2042.0	2042.0	2042.0	2088.0	2088.0	2024.0	2024.0	2024.0	2088.0	2088.0	2088.0	2088.0	2088.0	2071.0	2071.0	2080.0	2080.0	2080.0	2011.0	2011.0	2012.0	2012.0	2012.0	2064.0	2064.0	2040.0	2040.0	2040.0	2075.0	2075.0	2063.0	2063.0	2063.0	2066.0	2066.0	2028.0	2028.0	2028.0	2020.0	2020.0	2009.0	2009.0	2009.0	2039.0	2039.0	2036.0	2036.0	2036.0	2036.0	2036.0	2027.0	2027.0	2027.0	1983.0	1983.0	2035.0	2035.0	2035.0	2037.0	2037.0	1975.0	1975.0	1975.0	2013.0	2013.0	2012.0	2012.0	2012.0	2015.0	2015.0	2025.0	2025.0	2025.0	2030.0	2030.0	2023.0	2023.0	2023.0	2004.0	2004.0	2027.0	2027.0	2027.0	1999.0	1999.0	1994.0	1994.0	1994.0	1983.0	1983.0	2024.0	2024.0	2024.0	2021.0	2021.0	1954.0	1954.0	1954.0	2001.0	2001.0	2018.0	2018.0	2005.0	2005.0	2005.0	2008.0	2008.0	1973.0	1973.0	1973.0	1944.0	1944.0	1967.0	1967.0	1967.0	2021.0	2021.0	1967.0	1967.0	1967.0	1958.0	1958.0	1951.0	1951.0	1951.0	2001.0	2001.0	1947.0	1947.0	1947.0	1940.0	1940.0	1932.0	1932.0	1932.0	1981.0	1981.0	1994.0	1994.0	1994.0	1942.0	1942.0	1969.0	1969.0	1969.0	1981.0	1981.0	1981.0	1981.0	1981.0	1981.0	1981.0	1948.0	1948.0	1948.0	1954.0	1954.0	1947.0	1947.0	1947.0	1931.0	1931.0	1916.0	1916.0	1916.0	1989.0	1989.0	1959.0	1959.0	1959.0	1960.0	1960.0	1921.0	1921.0	1921.0	1927.0	1927.0	1965.0	1965.0	1965.0	1910.0	1910.0	1913.0	1913.0	1913.0	1954.0	1954.0	1958.0	1958.0	1958.0	1943.0	1943.0	1939.0	1939.0	1939.0	1909.0	1909.0	1933.0	1933.0	1933.0	1961.0	1961.0	1890.0	1890.0	1890.0	1967.0	1967.0	1886.0	1886.0	1886.0	1944.0	1944.0	1933.0	1933.0	1933.0	1920.0	1920.0	1891.0	1891.0	1891.0	1877.0	1877.0	1899.0	1899.0	1899.0	1887.0	1887.0	1879.0	1879.0	1879.0	1881.0	1881.0	1905.0	1905.0	1905.0	1901.0	1901.0	1917.0	1917.0	1917.0	1951.0	1951.0	1930.0	1930.0	1930.0	1948.0	1948.0	1891.0	1891.0	1891.0	1963.0	1963.0	1891.0	1891.0	1891.0	1911.0	1911.0	1918.0	1918.0	1918.0	1966.0	1966.0	1938.0	1938.0	1938.0	1983.0	1983.0	1940.0	1940.0	1940.0	2013.0	2013.0	2016.0	2016.0	2016.0	1958.0	1958.0	2002.0	2002.0	2002.0	1987.0	1987.0	2054.0	2054.0	2054.0	2053.0	2053.0	2046.0	2046.0	2046.0	2116.0	2116.0	2090.0	2090.0	2090.0	2150.0	2150.0	2119.0	2119.0	2119.0	2117.0	2117.0	2211.0	2211.0	2211.0	2208.0	2208.0	2211.0	2211.0	2175.0	2175.0	2175.0	2198.0	2198.0	2256.0	2256.0	2256.0	2231.0	2231.0	2297.0	2297.0	2297.0	2311.0	2311.0	2335.0	2335.0	2335.0	2271.0	2271.0	2319.0	2319.0	2319.0	2336.0	2336.0	2321.0	2321.0	2321.0	2368.0	2368.0	2324.0	2324.0	2324.0	2377.0	2377.0	2379.0	2379.0	2379.0	2417.0	2417.0	2423.0	2423.0	2423.0	2391.0	2391.0	2383.0	2383.0	2383.0	2381.0	2381.0	2375.0	2375.0	2375.0	2463.0	2463.0	2393.0	2393.0	2393.0	2413.0	2413.0	2405.0	2405.0	2405.0	2482.0	2482.0	2478.0	2478.0	2478.0	2413.0	2413.0	2471.0	2471.0	2471.0	2480.0	2480.0	2483.0	2483.0	2483.0	2475.0	2475.0	2447.0	2447.0	2447.0	2454.0	2454.0	2499.0	2499.0	2499.0	2463.0	2463.0	2518.0	2518.0	2518.0	2442.0	2442.0	2454.0	2454.0	2454.0	2455.0	2455.0	2511.0	2511.0	2511.0	2505.0	2505.0	2520.0	2520.0	2520.0	2536.0	2536.0	2524.0	2524.0	2524.0	2521.0	2521.0	2477.0	2477.0	2477.0	2471.0	2471.0	2508.0	2508.0	2508.0	2532.0	2532.0	2467.0	2467.0	2467.0	2473.0	2473.0	2467.0	2467.0	2467.0	2479.0	2479.0	2502.0	2502.0	2502.0	2468.0	2468.0	2481.0	2481.0	2481.0	2525.0	2525.0	2469.0	2469.0	2469.0	2525.0	2525.0	2486.0	2486.0	2486.0	2504.0	2504.0	2452.0	2452.0	2452.0	2449.0	2449.0	2506.0	2506.0	2506.0	2506.0	2506.0	2461.0	2461.0	2461.0	2445.0	2445.0	2428.0	2428.0	2428.0	2486.0	2486.0	2491.0	2491.0	2491.0	2485.0	2485.0	2411.0	2411.0	2411.0	2400.0	2400.0	2449.0	2449.0	2449.0	2455.0	2455.0	2392.0	2392.0	2392.0	2374.0	2374.0	2406.0	2406.0	2406.0	2436.0	2436.0	2399.0	2399.0	2353.0	2353.0	2353.0	2348.0	2348.0	2368.0	2368.0	2368.0	2408.0	2408.0	2396.0	2396.0	2396.0	2326.0	2326.0	2343.0	2343.0	2343.0	2363.0	2363.0	2334.0	2334.0	2334.0	2360.0	2360.0	2306.0	2306.0	2306.0	2363.0	2363.0	2362.0	2362.0	2362.0	2326.0	2326.0	2328.0	2328.0	2328.0	2332.0	2332.0	2356.0	2356.0	2356.0	2324.0	2324.0	2349.0	2349.0	2349.0	2310.0	2310.0	2289.0	2289.0	2289.0	2294.0	2294.0	2264.0	2264.0	2264.0	2261.0	2261.0	2264.0	2264.0	2264.0	2300.0	2300.0	2250.0	2250.0	2250.0	2305.0	2305.0	2330.0	2330.0	2330.0	2317.0	2317.0	2264.0	2264.0	2264.0	2276.0	2276.0	2297.0	2297.0	2297.0	2302.0	2302.0	2305.0	2305.0	2305.0	2289.0	2289.0	2288.0	2288.0	2288.0	2265.0	2265.0	2313.0	2313.0	2313.0	2247.0	2247.0	2248.0	2248.0	2248.0	2299.0	2299.0	2284.0	2284.0	2284.0	2242.0	2242.0	2245.0	2245.0	2245.0	2300.0	2300.0	2246.0	2246.0	2246.0	2265.0	2265.0	2247.0	2247.0	2247.0	2307.0	2307.0	2301.0	2301.0	2301.0	2296.0	2296.0	2232.0	2232.0	2232.0	2287.0	2287.0	2258.0	2258.0	2258.0	2274.0	2274.0	2296.0	2296.0	2296.0	2222.0	2222.0	2292.0	2292.0	2292.0	2225.0	2225.0	2295.0	2295.0	2295.0	2250.0	2250.0	2216.0	2216.0	2216.0	2236.0	2236.0	2210.0	2210.0	2210.0	2232.0	2232.0	2280.0	2280.0	2280.0	2245.0	2245.0	2246.0	2246.0	2246.0	2200.0	2200.0	2258.0	2258.0	2258.0	2246.0	2246.0	2267.0	2267.0	2267.0	2203.0	2203.0	2201.0	2201.0	2201.0	2239.0	2239.0	2220.0	2220.0	2220.0	2184.0	2184.0	2196.0	2196.0	2196.0	2183.0	2183.0	2198.0	2198.0	2234.0	2234.0	2234.0	2240.0	2240.0	2203.0	2203.0	2203.0	2239.0	2239.0	2165.0	2165.0	2165.0	2220.0	2220.0	2163.0	2163.0	2163.0	2170.0	2170.0	2187.0	2187.0	2187.0	2200.0	2200.0	2190.0	2190.0	2190.0	2202.0	2202.0	2207.0	2207.0	2207.0	2168.0	2168.0	2142.0	2142.0	2142.0	2194.0	2194.0	2179.0	2179.0	2179.0	2150.0	2150.0	2150.0	2150.0	2150.0	2155.0	2155.0	2127.0	2127.0	2127.0	2129.0	2129.0	2168.0	2168.0	2168.0	2185.0	2185.0	2132.0	2132.0	2132.0	2146.0	2146.0	2115.0	2115.0	2115.0	2187.0	2187.0	2158.0	2158.0	2158.0	2100.0	2100.0	2167.0	2167.0	2167.0	2150.0	2150.0	2152.0	2152.0	2152.0	2176.0	2176.0	2123.0	2123.0	2123.0	2175.0	2175.0	2098.0	2098.0	2098.0	2129.0	2129.0	2091.0	2091.0	2091.0	2125.0	2125.0	2144.0	2144.0	2144.0	2089.0	2089.0	2144.0	2144.0	2144.0	2069.0	2069.0	2126.0	2126.0	2126.0	2118.0	2118.0	2121.0	2121.0	2121.0	2128.0	2128.0	2069.0	2069.0	2069.0	2111.0	2111.0	2122.0	2122.0	2122.0	2099.0	2099.0	2054.0	2054.0	2054.0	2114.0	2114.0	2122.0	2122.0	2122.0	2101.0	2101.0	2061.0	2061.0	2061.0	2036.0	2036.0	2067.0	2067.0	2067.0	2104.0	2104.0	2026.0	2026.0	2026.0	2069.0	2069.0	2067.0	2067.0	2067.0	2027.0	2027.0	2026.0	2026.0	2026.0	2083.0	2083.0	2087.0	2087.0	2087.0	2034.0	2034.0	2060.0	2060.0	2060.0	2049.0	2049.0	2079.0	2079.0	2079.0	2062.0	2062.0	2016.0	2016.0	2016.0	2012.0	2012.0	2078.0	2078.0	2078.0	2008.0	2008.0	2077.0	2077.0	2077.0	2002.0	2002.0	2046.0	2046.0	2046.0	2035.0	2035.0	2044.0	2044.0	2044.0	1986.0	1986.0	2028.0	2028.0	2050.0	2050.0	2050.0	2003.0	2003.0	2056.0	2056.0	2056.0	2054.0	2054.0	1987.0	1987.0	1987.0	1994.0	1994.0	2039.0	2039.0	2039.0	1992.0	1992.0	2034.0	2034.0	2034.0	2011.0	2011.0	1980.0	1980.0	1980.0	2020.0	2020.0	1983.0	1983.0	1983.0	1985.0	1985.0	1970.0	1970.0	1970.0	1963.0	1963.0	1976.0	1976.0	1976.0	1965.0	1965.0	2027.0	2027.0	2027.0	1970.0	1970.0	2008.0	2008.0	2008.0	1951.0	1951.0	1956.0	1956.0	1956.0	1959.0	1959.0	1955.0	1955.0	1955.0	2022.0	2022.0	1950.0	1950.0	1950.0	2003.0	2003.0	1940.0	1940.0	1940.0	1994.0	1994.0	1973.0	1973.0	1973.0	2016.0	2016.0	1932.0	1932.0	1932.0	1998.0	1998.0	2001.0	2001.0	2001.0	1975.0	1975.0	1977.0	1977.0	1977.0	1987.0	1987.0	1987.0	1987.0	1987.0	1978.0	1978.0	1920.0	1920.0	1920.0	1935.0	1935.0	1957.0	1957.0	1957.0	1975.0	1975.0	1963.0	1963.0	1963.0	1954.0	1954.0	1967.0	1967.0	1967.0	1909.0	1909.0	1944.0	1944.0	1944.0	1977.0	1977.0	1950.0	1950.0	1950.0	1912.0	1912.0	1908.0	1908.0	1908.0	1967.0	1967.0	1921.0	1921.0	1921.0	1897.0	1897.0	1906.0	1906.0	1906.0	1966.0	1966.0	1931.0	1931.0	1931.0	1969.0	1969.0	1894.0	1894.0	1894.0	1942.0	1942.0	1924.0	1924.0	1924.0	1918.0	1918.0	1956.0	1956.0	1956.0	1916.0	1916.0	1962.0	1962.0	1962.0	1900.0	1900.0	1939.0	1939.0	1939.0	1971.0	1971.0	1938.0	1938.0	1938.0	1968.0	1968.0	2011.0	2011.0	2011.0	1936.0	1936.0	1964.0	1964.0	1964.0	2017.0	2017.0	1987.0	1987.0	1987.0	1977.0	1977.0	2025.0	2025.0	2025.0	1999.0	1999.0	2085.0	2085.0	2087.0	2087.0	2087.0	2095.0	2095.0	2062.0	2062.0	2062.0	2107.0	2107.0	2104.0	2104.0	2104.0	2123.0	2123.0	2132.0	2132.0	2132.0	2172.0	2172.0	2239.0	2239.0	2239.0	2183.0	2183.0	2194.0	2194.0	2194.0	2267.0	2267.0	2270.0	2270.0	2270.0	2278.0	2278.0	2262.0	2262.0	2262.0	2278.0	2278.0	2299.0	2299.0	2299.0	2370.0	2370.0	2319.0	2319.0	2319.0	2338.0	2338.0	2346.0	2346.0	2346.0	2343.0	2343.0	2361.0	2361.0	2361.0	2367.0	2367.0	2448.0	2448.0	2448.0	2388.0	2388.0	2474.0	2474.0	2474.0	2415.0	2415.0	2484.0	2484.0	2484.0	2492.0	2492.0	2441.0	2441.0	2441.0	2466.0	2466.0	2477.0	2477.0	2477.0	2444.0	2444.0	2503.0	2503.0	2503.0	2467.0	2467.0	2507.0	2507.0	2507.0	2550.0	2550.0	2512.0	2512.0	2512.0	2501.0	2501.0	2507.0	2507.0	2507.0	2501.0	2501.0	2525.0	2525.0	2525.0	2542.0	2542.0	2576.0	2576.0	2576.0	2510.0	2510.0	2579.0	2579.0	2579.0	2524.0	2524.0	2598.0	2598.0	2598.0	2538.0	2538.0	2585.0	2585.0	2585.0	2556.0	2556.0	2605.0	2605.0	2605.0	2529.0	2529.0	2607.0	2607.0	2607.0	2577.0	2577.0	2530.0	2530.0	2530.0	2584.0	2584.0	2562.0	2562.0	2562.0	2606.0	2606.0	2590.0	2590.0	2590.0	2614.0	2614.0	2558.0	2558.0	2558.0	2590.0	2590.0	2535.0	2535.0	2535.0	2582.0	2582.0	2550.0	2550.0	2550.0	2555.0	2555.0	2525.0	2525.0	2525.0	2541.0	2541.0	2592.0	2592.0	2592.0	2524.0	2524.0	2568.0	2568.0	2568.0	2553.0	2553.0	2574.0	2574.0	2574.0	2532.0	2532.0	2523.0	2523.0	2523.0	2580.0	2580.0	2521.0	2521.0	2521.0	2503.0	2503.0	2503.0	2503.0	2503.0	2507.0	2507.0	2525.0	2525.0	2516.0	2516.0	2516.0	2531.0	2531.0	2519.0	2519.0	2519.0	2491.0	2491.0	2542.0	2542.0	2542.0	2528.0	2528.0	2520.0	2520.0	2520.0	2450.0	2450.0	2518.0	2518.0	2518.0	2457.0	2457.0	2440.0	2440.0	2440.0	2425.0	2425.0	2441.0	2441.0	2441.0	2481.0	2481.0	2482.0	2482.0	2482.0	2464.0	2464.0	2477.0	2477.0	2477.0	2438.0	2438.0	2452.0	2452.0	2452.0	2414.0	2414.0	2448.0	2448.0	2448.0	2452.0	2452.0	2433.0	2433.0	2433.0	2424.0	2424.0	2361.0	2361.0	2361.0	2420.0	2420.0	2380.0	2380.0	2380.0	2380.0	2380.0	2400.0	2400.0	2400.0	2365.0	2365.0	