1767.0	1767.0	1789.0	1789.0	1789.0	1758.0	1758.0	1748.0	1748.0	1748.0	1779.0	1779.0	1765.0	1765.0	1765.0	1750.0	1750.0	1769.0	1769.0	1769.0	1774.0	1774.0	1747.0	1747.0	1747.0	1781.0	1781.0	1736.0	1736.0	1736.0	1741.0	1741.0	1744.0	1744.0	1744.0	1783.0	1783.0	1747.0	1747.0	1747.0	1739.0	1739.0	1732.0	1732.0	1732.0	1778.0	1778.0	1740.0	1740.0	1740.0	1782.0	1782.0	1761.0	1761.0	1761.0	1727.0	1727.0	1746.0	1746.0	1746.0	1735.0	1735.0	1725.0	1725.0	1725.0	1744.0	1744.0	1760.0	1760.0	1760.0	1716.0	1716.0	1733.0	1733.0	1733.0	1766.0	1766.0	1751.0	1751.0	1751.0	1734.0	1734.0	1757.0	1757.0	1757.0	1738.0	1738.0	1719.0	1719.0	1719.0	1767.0	1767.0	1737.0	1737.0	1737.0	1717.0	1717.0	1716.0	1716.0	1716.0	1720.0	1720.0	1719.0	1719.0	1719.0	1715.0	1715.0	1752.0	1752.0	1752.0	1712.0	1712.0	1707.0	1707.0	1707.0	1704.0	1704.0	1725.0	1725.0	1725.0	1728.0	1728.0	1718.0	1718.0	1718.0	1710.0	1710.0	1737.0	1737.0	1737.0	1696.0	1696.0	1713.0	1713.0	1713.0	1724.0	1724.0	1711.0	1711.0	1711.0	1718.0	1718.0	1701.0	1701.0	1701.0	1731.0	1731.0	1693.0	1693.0	1693.0	1712.0	1712.0	1694.0	1694.0	1694.0	1697.0	1697.0	1729.0	1729.0	1729.0	1710.0	1710.0	1704.0	1704.0	1704.0	1695.0	1695.0	1715.0	1715.0	1715.0	1702.0	1702.0	1734.0	1734.0	1734.0	1727.0	1727.0	1711.0	1711.0	1711.0	1739.0	1739.0	1736.0	1736.0	1736.0	1788.0	1788.0	1784.0	1784.0	1784.0	1786.0	1786.0	1825.0	1825.0	1825.0	1820.0	1820.0	1804.0	1804.0	1862.0	1862.0	1862.0	1854.0	1854.0	1857.0	1857.0	1857.0	1872.0	1872.0	1904.0	1904.0	1904.0	1942.0	1942.0	1970.0	1970.0	1970.0	1995.0	1995.0	1980.0	1980.0	1980.0	1983.0	1983.0	2017.0	2017.0	2017.0	2007.0	2007.0	2042.0	2042.0	2042.0	2068.0	2068.0	2059.0	2059.0	2059.0	2124.0	2124.0	2138.0	2138.0	2138.0	2157.0	2157.0	2153.0	2153.0	2153.0	2168.0	2168.0	2194.0	2194.0	2194.0	2171.0	2171.0	2193.0	2193.0	2193.0	2223.0	2223.0	2252.0	2252.0	2252.0	2262.0	2262.0	2235.0	2235.0	2235.0	2287.0	2287.0	2278.0	2278.0	2278.0	2249.0	2249.0	2277.0	2277.0	2277.0	2271.0	2271.0	2277.0	2277.0	2277.0	2289.0	2289.0	2285.0	2285.0	2285.0	2286.0	2286.0	2319.0	2319.0	2319.0	2289.0	2289.0	2337.0	2337.0	2337.0	2326.0	2326.0	2335.0	2335.0	2335.0	2320.0	2320.0	2319.0	2319.0	2319.0	2347.0	2347.0	2339.0	2339.0	2339.0	2339.0	2339.0	2342.0	2342.0	2342.0	2333.0	2333.0	2367.0	2367.0	2367.0	2345.0	2345.0	2383.0	2383.0	2383.0	2363.0	2363.0	2405.0	2405.0	2405.0	2375.0	2375.0	2377.0	2377.0	2377.0	2378.0	2378.0	2366.0	2366.0	2366.0	2400.0	2400.0	2373.0	2373.0	2373.0	2384.0	2384.0	2385.0	2385.0	2385.0	2415.0	2415.0	2396.0	2396.0	2396.0	2384.0	2384.0	2425.0	2425.0	2425.0	2385.0	2385.0	2412.0	2412.0	2412.0	2415.0	2415.0	2415.0	2415.0	2415.0	2421.0	2421.0	2409.0	2409.0	2409.0	2433.0	2433.0	2416.0	2416.0	2416.0	2443.0	2443.0	2400.0	2400.0	2400.0	2436.0	2436.0	2399.0	2399.0	2399.0	2399.0	2399.0	2433.0	2433.0	2433.0	2414.0	2414.0	2434.0	2434.0	2444.0	2444.0	2444.0	2405.0	2405.0	2438.0	2438.0	2438.0	2438.0	2438.0	2400.0	2400.0	2400.0	2392.0	2392.0	2412.0	2412.0	2412.0	2415.0	2415.0	2409.0	2409.0	2409.0	2415.0	2415.0	2404.0	2404.0	2404.0	2432.0	2432.0	2417.0	2417.0	2417.0	2378.0	2378.0	2412.0	2412.0	2412.0	2390.0	2390.0	2393.0	2393.0	2393.0	2399.0	2399.0	2399.0	2399.0	2399.0	2353.0	2353.0	2362.0	2362.0	2362.0	2380.0	2380.0	2393.0	2393.0	2393.0	2374.0	2374.0	2341.0	2341.0	2341.0	2354.0	2354.0	2335.0	2335.0	2335.0	2340.0	2340.0	2308.0	2308.0	2308.0	2316.0	2316.0	2340.0	2340.0	2340.0	2305.0	2305.0	2279.0	2279.0	2279.0	2270.0	2270.0	2254.0	2254.0	2254.0	2277.0	2277.0	2278.0	2278.0	2278.0	2261.0	2261.0	2250.0	2250.0	2250.0	2221.0	2221.0	2243.0	2243.0	2243.0	2208.0	2208.0	2211.0	2211.0	2211.0	2191.0	2191.0	2201.0	2201.0	2201.0	2195.0	2195.0	2193.0	2193.0	2193.0	2165.0	2165.0	2182.0	2182.0	2182.0	2171.0	2171.0	2176.0	2176.0	2176.0	2197.0	2197.0	2171.0	2171.0	2171.0	2178.0	2178.0	2152.0	2152.0	2152.0	2165.0	2165.0	2157.0	2157.0	2157.0	2142.0	2142.0	2129.0	2129.0	2129.0	2138.0	2138.0	2116.0	2116.0	2116.0	2149.0	2149.0	2114.0	2114.0	2114.0	2104.0	2104.0	2114.0	2114.0	2114.0	2110.0	2110.0	2117.0	2117.0	2117.0	2106.0	2106.0	2098.0	2098.0	2098.0	2113.0	2113.0	2112.0	2112.0	2112.0	2077.0	2077.0	2123.0	2123.0	2123.0	2080.0	2080.0	2118.0	2118.0	2118.0	2114.0	2114.0	2088.0	2088.0	2088.0	2063.0	2063.0	2082.0	2082.0	2082.0	2073.0	2073.0	2051.0	2051.0	2051.0	2061.0	2061.0	2067.0	2067.0	2049.0	2049.0	2049.0	2084.0	2084.0	2049.0	2049.0	2049.0	2064.0	2064.0	2035.0	2035.0	2035.0	2032.0	2032.0	2032.0	2032.0	2032.0	2019.0	2019.0	2014.0	2014.0	2014.0	2055.0	2055.0	2035.0	2035.0	2035.0	1993.0	1993.0	1994.0	1994.0	1994.0	2001.0	2001.0	2016.0	2016.0	2016.0	2008.0	2008.0	2006.0	2006.0	2006.0	1990.0	1990.0	1971.0	1971.0	1971.0	1986.0	1986.0	2010.0	2010.0	2010.0	2012.0	2012.0	1971.0	1971.0	1971.0	1986.0	1986.0	1999.0	1999.0	1999.0	1958.0	1958.0	1973.0	1973.0	1973.0	1958.0	1958.0	1956.0	1956.0	1956.0	1934.0	1934.0	1974.0	1974.0	1974.0	1924.0	1924.0	1949.0	1949.0	1949.0	1931.0	1931.0	1964.0	1964.0	1964.0	1927.0	1927.0	1917.0	1917.0	1917.0	1939.0	1939.0	1907.0	1907.0	1907.0	1929.0	1929.0	1911.0	1911.0	1911.0	1925.0	1925.0	1912.0	1912.0	1912.0	1887.0	1887.0	1927.0	1927.0	1927.0	1906.0	1906.0	1883.0	1883.0	1883.0	1930.0	1930.0	1869.0	1869.0	1869.0	1920.0	1920.0	1910.0	1910.0	1910.0	1888.0	1888.0	1876.0	1876.0	1876.0	1898.0	1898.0	1895.0	1895.0	1895.0	1885.0	1885.0	1896.0	1896.0	1896.0	1846.0	1846.0	1882.0	1882.0	1882.0	1887.0	1887.0	1892.0	1892.0	1892.0	1856.0	1856.0	1843.0	1843.0	1843.0	1847.0	1847.0	1876.0	1876.0	1876.0	1849.0	1849.0	1883.0	1883.0	1883.0	1871.0	1871.0	1868.0	1868.0	1868.0	1867.0	1867.0	1814.0	1814.0	1814.0	1833.0	1833.0	1841.0	1841.0	1841.0	1816.0	1816.0	1855.0	1855.0	1855.0	1829.0	1829.0	1811.0	1811.0	1811.0	1853.0	1853.0	1820.0	1820.0	1820.0	1818.0	1818.0	1838.0	1838.0	1820.0	1820.0	1820.0	1822.0	1822.0	1808.0	1808.0	1808.0	1831.0	1831.0	1794.0	1794.0	1794.0	1815.0	1815.0	1792.0	1792.0	1792.0	1810.0	1810.0	1828.0	1828.0	1828.0	1829.0	1829.0	1822.0	1822.0	1822.0	1811.0	1811.0	1819.0	1819.0	1819.0	1791.0	1791.0	1821.0	1821.0	1821.0	1790.0	1790.0	1771.0	1771.0	1771.0	1797.0	1797.0	1800.0	1800.0	1800.0	1797.0	1797.0	1791.0	1791.0	1791.0	1810.0	1810.0	1759.0	1759.0	1759.0	1795.0	1795.0	1775.0	1775.0	1775.0	1775.0	1775.0	1792.0	1792.0	1792.0	1772.0	1772.0	1757.0	1757.0	1757.0	1761.0	1761.0	1756.0	1756.0	1756.0	1764.0	1764.0	1791.0	1791.0	1791.0	1751.0	1751.0	1792.0	1792.0	1792.0	1768.0	1768.0	1767.0	1767.0	1767.0	1801.0	1801.0	1789.0	1789.0	1789.0	1744.0	1744.0	1795.0	1795.0	1795.0	1743.0	1743.0	1751.0	1751.0	1751.0	1787.0	1787.0	1788.0	1788.0	1788.0	1737.0	1737.0	1751.0	1751.0	1751.0	1755.0	1755.0	1750.0	1750.0	1750.0	1753.0	1753.0	1766.0	1766.0	1766.0	1736.0	1736.0	1731.0	1731.0	1731.0	1755.0	1755.0	1783.0	1783.0	1783.0	1755.0	1755.0	1751.0	1751.0	1751.0	1734.0	1734.0	1767.0	1767.0	1767.0	1740.0	1740.0	1744.0	1744.0	1744.0	1769.0	1769.0	1766.0	1766.0	1766.0	1740.0	1740.0	1759.0	1759.0	1759.0	1723.0	1723.0	1770.0	1770.0	1770.0	1742.0	1742.0	1727.0	1727.0	1727.0	1731.0	1731.0	1733.0	1733.0	1733.0	1745.0	1745.0	1769.0	1769.0	1769.0	1758.0	1758.0	1735.0	1735.0	1735.0	1731.0	1731.0	1710.0	1710.0	1710.0	1715.0	1715.0	1727.0	1727.0	1727.0	1754.0	1754.0	1750.0	1750.0	1750.0	1728.0	1728.0	1733.0	1733.0	1705.0	1705.0	1705.0	1723.0	1723.0	1747.0	1747.0	1747.0	1719.0	1719.0	1721.0	1721.0	1721.0	1731.0	1731.0	1704.0	1704.0	1704.0	1704.0	1704.0	1735.0	1735.0	1735.0	1738.0	1738.0	1714.0	1714.0	1714.0	1742.0	1742.0	1744.0	1744.0	1744.0	1714.0	1714.0	1715.0	1715.0	1715.0	1713.0	1713.0	1743.0	1743.0	1743.0	1726.0	1726.0	1728.0	1728.0	1728.0	1739.0	1739.0	1760.0	1760.0	1760.0	1766.0	1766.0	1749.0	1749.0	1749.0	1795.0	1795.0	1775.0	1775.0	1775.0	1767.0	1767.0	1797.0	1797.0	1797.0	1838.0	1838.0	1811.0	1811.0	1811.0	1876.0	1876.0	1838.0	1838.0	1838.0	1871.0	1871.0	1887.0	1887.0	1887.0	1905.0	1905.0	1950.0	1950.0	1950.0	1937.0	1937.0	1982.0	1982.0	1982.0	1993.0	1993.0	2020.0	2020.0	2020.0	2020.0	2020.0	2039.0	2039.0	2039.0	2042.0	2042.0	2049.0	2049.0	2049.0	2095.0	2095.0	2089.0	2089.0	2089.0	2100.0	2100.0	2152.0	2152.0	2152.0	2127.0	2127.0	2155.0	2155.0	2155.0	2186.0	2186.0	2183.0	2183.0	2183.0	2201.0	2201.0	2185.0	2185.0	2185.0	2200.0	2200.0	2253.0	2253.0	2253.0	2223.0	2223.0	2236.0	2236.0	2236.0	2235.0	2235.0	2291.0	2291.0	2291.0	2278.0	2278.0	2270.0	2270.0	2270.0	2290.0	2290.0	2310.0	2310.0	2310.0	2288.0	2288.0	2314.0	2314.0	2314.0	2306.0	2306.0	2322.0	2322.0	2322.0	2305.0	2305.0	2331.0	2331.0	2331.0	2326.0	2326.0	2343.0	2343.0	2343.0	2322.0	2322.0	2357.0	2357.0	2357.0	2353.0	2353.0	2355.0	2355.0	2355.0	2340.0	2340.0	2382.0	2382.0	2382.0	2386.0	2386.0	2362.0	2362.0	2362.0	2360.0	2360.0	2356.0	2356.0	2407.0	2407.0	2407.0	2381.0	2381.0	2398.0	2398.0	2398.0	2381.0	2381.0	2419.0	2419.0	2419.0	2388.0	2388.0	2384.0	2384.0	2384.0	2417.0	2417.0	2406.0	2406.0	2406.0	2398.0	2398.0	2401.0	2401.0	2401.0	2410.0	2410.0	2438.0	2438.0	2438.0	2401.0	2401.0	2425.0	2425.0	2425.0	2387.0	2387.0	2396.0	2396.0	2396.0	2402.0	2402.0	2448.0	2448.0	2448.0	2407.0	2407.0	2416.0	2416.0	2416.0	2432.0	2432.0	2433.0	2433.0	2433.0	2448.0	2448.0	2433.0	2433.0	2433.0	2457.0	2457.0	2425.0	2425.0	2425.0	2427.0	2427.0	2427.0	2427.0	2427.0	2437.0	2437.0	2433.0	2433.0	2433.0	2405.0	2405.0	2435.0	2435.0	2435.0	2410.0	2410.0	2437.0	2437.0	2437.0	2423.0	2423.0	2421.0	2421.0	2421.0	2405.0	2405.0	2416.0	2416.0	2416.0	2424.0	2424.0	2415.0	2415.0	2415.0	2410.0	2410.0	2412.0	2412.0	2412.0	2378.0	2378.0	2395.0	2395.0	2395.0	2384.0	2384.0	2385.0	2385.0	2385.0	2409.0	2409.0	2368.0	2368.0	2368.0	2411.0	2411.0	2378.0	2378.0	2378.0	2354.0	2354.0	2381.0	2381.0	2381.0	2385.0	2385.0	2363.0	2363.0	2363.0	2359.0	2359.0	2343.0	2343.0	2343.0	2319.0	2319.0	2338.0	2338.0	2338.0	2331.0	2331.0	2313.0	2313.0	2313.0	2303.0	2303.0	2325.0	2325.0	2325.0	2304.0	2304.0	2272.0	2272.0	2272.0	2272.0	2272.0	2263.0	2263.0	2263.0	2237.0	2237.0	2253.0	2253.0	2253.0	2235.0	2235.0	2252.0	2252.0	2252.0	2242.0	2242.0	2202.0	2202.0	2202.0	2242.0	2242.0	2225.0	2225.0	2225.0	2194.0	2194.0	2209.0	2209.0	2209.0	2187.0	2187.0	2170.0	2170.0	2170.0	2184.0	2184.0	2190.0	2190.0	2155.0	2155.0	2155.0	2152.0	2152.0	2152.0	2152.0	2152.0	2161.0	2161.0	2147.0	2147.0	2147.0	2140.0	2140.0	2168.0	2168.0	2168.0	2171.0	2171.0	2145.0	2145.0	2145.0	2165.0	2165.0	2163.0	2163.0	2163.0	2138.0	2138.0	2111.0	2111.0	2111.0	2109.0	2109.0	2102.0	2102.0	2102.0	2124.0	2124.0	2144.0	2144.0	2144.0	2106.0	2106.0	2106.0	2106.0	2106.0	2127.0	2127.0	2108.0	2108.0	2108.0	2132.0	2132.0	2085.0	2085.0	2085.0	2109.0	2109.0	2102.0	2102.0	2102.0	2092.0	2092.0	2069.0	2069.0	2069.0	2088.0	2088.0	2060.0	2060.0	2060.0	2089.0	2089.0	2041.0	2041.0	2041.0	2057.0	2057.0	2059.0	2059.0	2059.0	2041.0	2041.0	2033.0	2033.0	2033.0	2033.0	2033.0	2069.0	2069.0	2069.0	2064.0	2064.0	2046.0	2046.0	2046.0	2059.0	2059.0	2044.0	2044.0	2044.0	2011.0	2011.0	2029.0	2029.0	2029.0	2012.0	2012.0	1994.0	1994.0	1994.0	2019.0	2019.0	2012.0	2012.0	2012.0	2008.0	2008.0	1998.0	1998.0	1998.0	1991.0	1991.0	1968.0	1968.0	1968.0	1993.0	1993.0	2009.0	2009.0	2009.0	1989.0	1989.0	1994.0	1994.0	1994.0	1966.0	1966.0	1977.0	1977.0	1977.0	1995.0	1995.0	1971.0	1971.0	1971.0	1960.0	1960.0	1963.0	1963.0	1963.0	1957.0	1957.0	1967.0	1967.0	1967.0	1943.0	1943.0	1964.0	1964.0	1964.0	1952.0	1952.0	1923.0	1923.0	1923.0	1923.0	1923.0	1925.0	1925.0	1925.0	1905.0	1905.0	1939.0	1939.0	1939.0	1910.0	1910.0	1937.0	1937.0	1937.0	1936.0	1936.0	1898.0	1898.0	1898.0	1925.0	1925.0	1889.0	1889.0	1889.0	1944.0	1944.0	1875.0	1875.0	1875.0	1920.0	1920.0	1876.0	1876.0	1876.0	1915.0	1915.0	1893.0	1893.0	1889.0	1889.0	1889.0	1862.0	1862.0	1880.0	1880.0	1880.0	1884.0	1884.0	1887.0	1887.0	1887.0	1876.0	1876.0	1858.0	1858.0	1858.0	1842.0	1842.0	1856.0	1856.0	1856.0	1847.0	1847.0	1840.0	1840.0	1840.0	1838.0	1838.0	1847.0	1847.0	1847.0	1865.0	1865.0	1830.0	1830.0	1830.0	1860.0	1860.0	1817.0	1817.0	1817.0	1837.0	1837.0	1834.0	1834.0	1834.0	1817.0	1817.0	1835.0	1835.0	1835.0	1856.0	1856.0	1815.0	1815.0	1815.0	1834.0	1834.0	1842.0	1842.0	1842.0	1837.0	1837.0	1852.0	1852.0	1852.0	1806.0	1806.0	1832.0	1832.0	1832.0	1813.0	1813.0	1817.0	1817.0	1817.0	1790.0	1790.0	1821.0	1821.0	1821.0	1795.0	1795.0	1822.0	1822.0	1822.0	1803.0	1803.0	1812.0	1812.0	1812.0	1805.0	1805.0	1792.0	1792.0	1792.0	1788.0	1788.0	1807.0	1807.0	1807.0	1799.0	1799.0	1788.0	1788.0	1788.0	1799.0	1799.0	1823.0	1823.0	1823.0	1809.0	1809.0	1795.0	1795.0	1795.0	1766.0	1766.0	1799.0	1799.0	1799.0	1782.0	1782.0	1808.0	1808.0	1808.0	1764.0	1764.0	1767.0	1767.0	1767.0	1767.0	1767.0	1790.0	1790.0	1790.0	1787.0	1787.0	1779.0	1779.0	1779.0	1770.0	1770.0	1779.0	1779.0	1779.0	1764.0	1764.0	1782.0	1782.0	1782.0	1769.0	1769.0	1761.0	1761.0	1761.0	1754.0	1754.0	1762.0	1762.0	1762.0	1762.0	1762.0	1768.0	1768.0	1768.0	1740.0	1740.0	1771.0	1771.0	1771.0	1755.0	1755.0	1766.0	1766.0	1766.0	1767.0	1767.0	1737.0	1737.0	1737.0	1763.0	1763.0	1758.0	1758.0	1758.0	1791.0	1791.0	1755.0	1755.0	1755.0	1774.0	1774.0	1760.0	1760.0	1760.0	1742.0	1742.0	1733.0	1733.0	1768.0	1768.0	1768.0	1776.0	1776.0	1761.0	1761.0	1761.0	1740.0	1740.0	1780.0	1780.0	1780.0	1751.0	1751.0	1758.0	1758.0	1758.0	1768.0	1768.0	1755.0	1755.0	1755.0	1757.0	1757.0	1754.0	1754.0	1754.0	1751.0	1751.0	1752.0	1752.0	1752.0	1744.0	1744.0	1747.0	1747.0	1747.0	1711.0	1711.0	1756.0	1756.0	1756.0	1765.0	1765.0	1719.0	1719.0	1719.0	1736.0	1736.0	1718.0	1718.0	1718.0	1760.0	1760.0	1758.0	1758.0	1758.0	1760.0	1760.0	1725.0	1725.0	1725.0	1739.0	1739.0	1752.0	1752.0	1752.0	1746.0	1746.0	1714.0	1714.0	1714.0	1721.0	1721.0	1704.0	1704.0	1704.0	1714.0	1714.0	1753.0	1753.0	1753.0	1699.0	1699.0	1695.0	1695.0	1695.0	1736.0	1736.0	1701.0	1701.0	1701.0	1732.0	1732.0	1710.0	1710.0	1710.0	1698.0	1698.0	1704.0	1704.0	1704.0	1698.0	1698.0	1706.0	1706.0	1706.0	1710.0	1710.0	1695.0	1695.0	1695.0	1711.0	1711.0	1708.0	1708.0	1708.0	1733.0	1733.0	1732.0	1732.0	1732.0	1707.0	1707.0	1718.0	1718.0	1718.0	1712.0	1712.0	1749.0	1749.0	1749.0	1746.0	1746.0	1739.0	1739.0	1739.0	1780.0	1780.0	1811.0	1811.0	1811.0	1783.0	1783.0	1790.0	1790.0	1790.0	1831.0	1831.0	1864.0	1864.0	1864.0	1839.0	1839.0	1849.0	1849.0	1849.0	1875.0	1875.0	1896.0	1896.0	1896.0	1891.0	1891.0	1933.0	1933.0	1933.0	1957.0	1957.0	1988.0	1988.0	1988.0	2018.0	2018.0	2000.0	2000.0	2000.0	2038.0	2038.0	2051.0	2051.0	2051.0	2047.0	2047.0	2047.0	2047.0	2047.0	2084.0	2084.0	2094.0	2094.0	2094.0	2143.0	2143.0	2137.0	2137.0	2137.0	2140.0	2140.0	2185.0	2185.0	2169.0	2169.0	2169.0	2194.0	2194.0	2210.0	2210.0	2210.0	2234.0	2234.0	2230.0	2230.0	2230.0	2217.0	2217.0	2233.0	2233.0	2233.0	2255.0	2255.0	2279.0	2279.0	2279.0	2275.0	2275.0	2274.0	2274.0	2274.0	2291.0	2291.0	2310.0	2310.0	2310.0	2317.0	2317.0	2299.0	2299.0	2299.0	2296.0	2296.0	2332.0	2332.0	2332.0	2349.0	2349.0	2349.0	2349.0	2349.0	2325.0	2325.0	2333.0	2333.0	2333.0	2371.0	2371.0	2330.0	2330.0	2330.0	2351.0	2351.0	2363.0	2363.0	2363.0	2344.0	2344.0	2363.0	2363.0	2363.0	