2345.0	2337.0	2337.0	2337.0	2302.0	2302.0	2332.0	2332.0	2332.0	2293.0	2293.0	2274.0	2274.0	2274.0	2281.0	2281.0	2277.0	2277.0	2277.0	2257.0	2257.0	2284.0	2284.0	2284.0	2274.0	2274.0	2257.0	2257.0	2257.0	2246.0	2246.0	2233.0	2233.0	2233.0	2218.0	2218.0	2230.0	2230.0	2230.0	2227.0	2227.0	2198.0	2198.0	2198.0	2176.0	2176.0	2212.0	2212.0	2212.0	2192.0	2192.0	2183.0	2183.0	2183.0	2174.0	2174.0	2157.0	2157.0	2157.0	2149.0	2149.0	2153.0	2153.0	2153.0	2144.0	2144.0	2121.0	2121.0	2121.0	2158.0	2158.0	2167.0	2167.0	2167.0	2135.0	2135.0	2137.0	2137.0	2137.0	2138.0	2138.0	2149.0	2149.0	2149.0	2121.0	2121.0	2093.0	2093.0	2093.0	2101.0	2101.0	2127.0	2127.0	2127.0	2128.0	2128.0	2111.0	2111.0	2111.0	2115.0	2115.0	2076.0	2076.0	2076.0	2084.0	2084.0	2115.0	2115.0	2115.0	2094.0	2094.0	2099.0	2099.0	2099.0	2090.0	2090.0	2064.0	2064.0	2064.0	2049.0	2049.0	2084.0	2084.0	2084.0	2054.0	2054.0	2059.0	2059.0	2059.0	2053.0	2053.0	2036.0	2036.0	2036.0	2053.0	2053.0	2070.0	2070.0	2070.0	2031.0	2031.0	2021.0	2021.0	2021.0	2053.0	2053.0	2047.0	2047.0	2047.0	2032.0	2032.0	2015.0	2015.0	2015.0	2015.0	2015.0	1998.0	1998.0	1998.0	2016.0	2016.0	1999.0	1999.0	1999.0	2018.0	2018.0	1992.0	1992.0	2007.0	2007.0	2007.0	2025.0	2025.0	2018.0	2018.0	2018.0	1973.0	1973.0	1986.0	1986.0	1986.0	1983.0	1983.0	1968.0	1968.0	1968.0	1983.0	1983.0	1975.0	1975.0	1975.0	1972.0	1972.0	1959.0	1959.0	1959.0	1967.0	1967.0	1964.0	1964.0	1964.0	1955.0	1955.0	1989.0	1989.0	1989.0	1949.0	1949.0	1959.0	1959.0	1959.0	1967.0	1967.0	1959.0	1959.0	1959.0	1940.0	1940.0	1922.0	1922.0	1922.0	1919.0	1919.0	1955.0	1955.0	1955.0	1923.0	1923.0	1915.0	1915.0	1915.0	1923.0	1923.0	1913.0	1913.0	1913.0	1935.0	1935.0	1894.0	1894.0	1894.0	1909.0	1909.0	1902.0	1902.0	1902.0	1916.0	1916.0	1895.0	1895.0	1895.0	1896.0	1896.0	1911.0	1911.0	1911.0	1870.0	1870.0	1881.0	1881.0	1881.0	1899.0	1899.0	1899.0	1899.0	1899.0	1853.0	1853.0	1879.0	1879.0	1879.0	1887.0	1887.0	1876.0	1876.0	1876.0	1849.0	1849.0	1855.0	1855.0	1855.0	1883.0	1883.0	1836.0	1836.0	1836.0	1833.0	1833.0	1830.0	1830.0	1830.0	1862.0	1862.0	1843.0	1843.0	1843.0	1832.0	1832.0	1850.0	1850.0	1850.0	1825.0	1825.0	1831.0	1831.0	1831.0	1805.0	1805.0	1827.0	1827.0	1827.0	1815.0	1815.0	1839.0	1839.0	1839.0	1828.0	1828.0	1848.0	1848.0	1848.0	1811.0	1811.0	1835.0	1835.0	1835.0	1797.0	1797.0	1842.0	1842.0	1842.0	1828.0	1828.0	1811.0	1811.0	1811.0	1785.0	1785.0	1823.0	1823.0	1823.0	1805.0	1805.0	1781.0	1781.0	1781.0	1827.0	1827.0	1792.0	1792.0	1792.0	1787.0	1787.0	1794.0	1794.0	1794.0	1818.0	1818.0	1773.0	1773.0	1773.0	1804.0	1804.0	1766.0	1766.0	1766.0	1764.0	1764.0	1759.0	1759.0	1772.0	1772.0	1772.0	1796.0	1796.0	1763.0	1763.0	1763.0	1795.0	1795.0	1807.0	1807.0	1807.0	1771.0	1771.0	1765.0	1765.0	1765.0	1811.0	1811.0	1804.0	1804.0	1804.0	1759.0	1759.0	1792.0	1792.0	1792.0	1754.0	1754.0	1751.0	1751.0	1751.0	1787.0	1787.0	1787.0	1787.0	1787.0	1764.0	1764.0	1774.0	1774.0	1774.0	1788.0	1788.0	1788.0	1788.0	1788.0	1759.0	1759.0	1782.0	1782.0	1782.0	1749.0	1749.0	1790.0	1790.0	1790.0	1742.0	1742.0	1769.0	1769.0	1769.0	1767.0	1767.0	1783.0	1783.0	1783.0	1759.0	1759.0	1776.0	1776.0	1776.0	1779.0	1779.0	1755.0	1755.0	1755.0	1738.0	1738.0	1723.0	1723.0	1723.0	1742.0	1742.0	1731.0	1731.0	1731.0	1777.0	1777.0	1732.0	1732.0	1732.0	1760.0	1760.0	1745.0	1745.0	1745.0	1769.0	1769.0	1730.0	1730.0	1730.0	1755.0	1755.0	1731.0	1731.0	1731.0	1743.0	1743.0	1727.0	1727.0	1727.0	1767.0	1767.0	1743.0	1743.0	1743.0	1727.0	1727.0	1768.0	1768.0	1768.0	1768.0	1768.0	1724.0	1724.0	1724.0	1761.0	1761.0	1758.0	1758.0	1758.0	1751.0	1751.0	1739.0	1739.0	1739.0	1740.0	1740.0	1707.0	1707.0	1707.0	1719.0	1719.0	1728.0	1728.0	1728.0	1755.0	1755.0	1746.0	1746.0	1746.0	1710.0	1710.0	1725.0	1725.0	1725.0	1718.0	1718.0	1696.0	1696.0	1696.0	1725.0	1725.0	1703.0	1703.0	1703.0	1702.0	1702.0	1726.0	1726.0	1726.0	1726.0	1726.0	1702.0	1702.0	1702.0	1731.0	1731.0	1713.0	1713.0	1713.0	1711.0	1711.0	1742.0	1742.0	1742.0	1696.0	1696.0	1681.0	1681.0	1681.0	1694.0	1694.0	1698.0	1698.0	1698.0	1736.0	1736.0	1698.0	1698.0	1698.0	1728.0	1728.0	1702.0	1702.0	1689.0	1689.0	1689.0	1725.0	1725.0	1719.0	1719.0	1719.0	1732.0	1732.0	1750.0	1750.0	1750.0	1714.0	1714.0	1755.0	1755.0	1755.0	1727.0	1727.0	1789.0	1789.0	1789.0	1791.0	1791.0	1767.0	1767.0	1767.0	1779.0	1779.0	1829.0	1829.0	1829.0	1821.0	1821.0	1833.0	1833.0	1833.0	1839.0	1839.0	1858.0	1858.0	1858.0	1865.0	1865.0	1914.0	1914.0	1914.0	1940.0	1940.0	1914.0	1914.0	1914.0	1943.0	1943.0	1990.0	1990.0	1990.0	1984.0	1984.0	1992.0	1992.0	1992.0	2015.0	2015.0	2030.0	2030.0	2030.0	2063.0	2063.0	2049.0	2049.0	2049.0	2081.0	2081.0	2095.0	2095.0	2095.0	2116.0	2116.0	2147.0	2147.0	2147.0	2160.0	2160.0	2175.0	2175.0	2175.0	2169.0	2169.0	2213.0	2213.0	2213.0	2206.0	2206.0	2196.0	2196.0	2196.0	2243.0	2243.0	2241.0	2241.0	2241.0	2242.0	2242.0	2232.0	2232.0	2232.0	2232.0	2232.0	2249.0	2249.0	2249.0	2272.0	2272.0	2265.0	2265.0	2265.0	2275.0	2275.0	2286.0	2286.0	2286.0	2313.0	2313.0	2310.0	2310.0	2310.0	2280.0	2280.0	2323.0	2323.0	2323.0	2299.0	2299.0	2319.0	2319.0	2319.0	2300.0	2300.0	2320.0	2320.0	2320.0	2301.0	2301.0	2318.0	2318.0	2318.0	2340.0	2340.0	2326.0	2326.0	2326.0	2354.0	2354.0	2319.0	2319.0	2319.0	2349.0	2349.0	2364.0	2364.0	2364.0	2353.0	2353.0	2352.0	2352.0	2352.0	2349.0	2349.0	2348.0	2348.0	2348.0	2375.0	2375.0	2339.0	2339.0	2339.0	2353.0	2353.0	2384.0	2384.0	2384.0	2396.0	2396.0	2366.0	2366.0	2366.0	2375.0	2375.0	2377.0	2377.0	2377.0	2409.0	2409.0	2413.0	2413.0	2413.0	2397.0	2397.0	2407.0	2407.0	2380.0	2380.0	2380.0	2410.0	2410.0	2411.0	2411.0	2411.0	2403.0	2403.0	2440.0	2440.0	2440.0	2396.0	2396.0	2411.0	2411.0	2411.0	2444.0	2444.0	2413.0	2413.0	2413.0	2387.0	2387.0	2404.0	2404.0	2404.0	2434.0	2434.0	2427.0	2427.0	2427.0	2423.0	2423.0	2423.0	2423.0	2423.0	2445.0	2445.0	2415.0	2415.0	2415.0	2412.0	2412.0	2419.0	2419.0	2419.0	2428.0	2428.0	2411.0	2411.0	2411.0	2409.0	2409.0	2423.0	2423.0	2423.0	2421.0	2421.0	2408.0	2408.0	2408.0	2441.0	2441.0	2411.0	2411.0	2411.0	2428.0	2428.0	2431.0	2431.0	2431.0	2420.0	2420.0	2412.0	2412.0	2412.0	2375.0	2375.0	2371.0	2371.0	2371.0	2390.0	2390.0	2388.0	2388.0	2388.0	2412.0	2412.0	2371.0	2371.0	2371.0	2389.0	2389.0	2361.0	2361.0	2361.0	2366.0	2366.0	2338.0	2338.0	2338.0	2343.0	2343.0	2321.0	2321.0	2321.0	2317.0	2317.0	2315.0	2315.0	2315.0	2313.0	2313.0	2295.0	2295.0	2295.0	2301.0	2301.0	2284.0	2284.0	2284.0	2302.0	2302.0	2249.0	2249.0	2249.0	2288.0	2288.0	2245.0	2245.0	2245.0	2229.0	2229.0	2246.0	2246.0	2246.0	2247.0	2247.0	2223.0	2223.0	2223.0	2222.0	2222.0	2222.0	2222.0	2222.0	2191.0	2191.0	2216.0	2216.0	2216.0	2202.0	2202.0	2196.0	2196.0	2196.0	2155.0	2155.0	2166.0	2166.0	2166.0	2177.0	2177.0	2145.0	2145.0	2145.0	2163.0	2163.0	2155.0	2155.0	2155.0	2148.0	2148.0	2126.0	2126.0	2126.0	2165.0	2165.0	2131.0	2131.0	2131.0	2147.0	2147.0	2108.0	2108.0	2108.0	2117.0	2117.0	2102.0	2102.0	2102.0	2120.0	2120.0	2134.0	2134.0	2134.0	2107.0	2107.0	2107.0	2107.0	2107.0	2139.0	2139.0	2084.0	2084.0	2132.0	2132.0	2132.0	2090.0	2090.0	2099.0	2099.0	2099.0	2083.0	2083.0	2075.0	2075.0	2075.0	2101.0	2101.0	2097.0	2097.0	2097.0	2098.0	2098.0	2080.0	2080.0	2080.0	2050.0	2050.0	2047.0	2047.0	2047.0	2062.0	2062.0	2070.0	2070.0	2070.0	2079.0	2079.0	2079.0	2079.0	2079.0	2021.0	2021.0	2043.0	2043.0	2043.0	2010.0	2010.0	2066.0	2066.0	2066.0	2028.0	2028.0	2023.0	2023.0	2023.0	2001.0	2001.0	2014.0	2014.0	2014.0	2024.0	2024.0	2025.0	2025.0	2025.0	2004.0	2004.0	1994.0	1994.0	1994.0	2026.0	2026.0	1982.0	1982.0	1982.0	2004.0	2004.0	2030.0	2030.0	2030.0	2019.0	2019.0	1994.0	1994.0	1994.0	2017.0	2017.0	1990.0	1990.0	1990.0	1954.0	1954.0	1972.0	1972.0	1972.0	1953.0	1953.0	1956.0	1956.0	1956.0	1942.0	1942.0	1952.0	1952.0	1952.0	1971.0	1971.0	1939.0	1939.0	1939.0	1946.0	1946.0	1939.0	1939.0	1939.0	1925.0	1925.0	1943.0	1943.0	1943.0	1965.0	1965.0	1952.0	1952.0	1952.0	1927.0	1927.0	1901.0	1901.0	1901.0	1910.0	1910.0	1916.0	1916.0	1916.0	1910.0	1910.0	1914.0	1914.0	1914.0	1900.0	1900.0	1905.0	1905.0	1905.0	1895.0	1895.0	1940.0	1940.0	1940.0	1879.0	1879.0	1931.0	1931.0	1931.0	1888.0	1888.0	1893.0	1893.0	1893.0	1904.0	1904.0	1890.0	1890.0	1890.0	1881.0	1881.0	1897.0	1897.0	1897.0	1866.0	1866.0	1868.0	1868.0	1868.0	1869.0	1869.0	1875.0	1875.0	1875.0	1882.0	1882.0	1851.0	1851.0	1851.0	1854.0	1854.0	1854.0	1854.0	1854.0	1858.0	1858.0	1849.0	1849.0	1849.0	1842.0	1842.0	1846.0	1846.0	1846.0	1841.0	1841.0	1838.0	1838.0	1842.0	1842.0	1842.0	1820.0	1820.0	1832.0	1832.0	1832.0	1813.0	1813.0	1828.0	1828.0	1828.0	1826.0	1826.0	1836.0	1836.0	1836.0	1833.0	1833.0	1819.0	1819.0	1819.0	1804.0	1804.0	1846.0	1846.0	1846.0	1832.0	1832.0	1804.0	1804.0	1804.0	1833.0	1833.0	1796.0	1796.0	1796.0	1807.0	1807.0	1807.0	1807.0	1807.0	1804.0	1804.0	1787.0	1787.0	1787.0	1804.0	1804.0	1789.0	1789.0	1789.0	1789.0	1789.0	1804.0	1804.0	1804.0	1781.0	1781.0	1791.0	1791.0	1791.0	1771.0	1771.0	1785.0	1785.0	1785.0	1781.0	1781.0	1793.0	1793.0	1793.0	1774.0	1774.0	1797.0	1797.0	1797.0	1792.0	1792.0	1767.0	1767.0	1767.0	1795.0	1795.0	1764.0	1764.0	1764.0	1807.0	1807.0	1769.0	1769.0	1769.0	1797.0	1797.0	1795.0	1795.0	1795.0	1763.0	1763.0	1766.0	1766.0	1766.0	1755.0	1755.0	1760.0	1760.0	1760.0	1767.0	1767.0	1760.0	1760.0	1760.0	1766.0	1766.0	1775.0	1775.0	1775.0	1760.0	1760.0	1778.0	1778.0	1778.0	1756.0	1756.0	1758.0	1758.0	1758.0	1769.0	1769.0	1763.0	1763.0	1763.0	1780.0	1780.0	1778.0	1778.0	1778.0	1749.0	1749.0	1785.0	1785.0	1785.0	1734.0	1734.0	1756.0	1756.0	1756.0	1768.0	1768.0	1738.0	1738.0	1738.0	1748.0	1748.0	1768.0	1768.0	1768.0	1766.0	1766.0	1747.0	1747.0	1747.0	1760.0	1760.0	1730.0	1730.0	1730.0	1731.0	1731.0	1761.0	1761.0	1761.0	1776.0	1776.0	1776.0	1776.0	1776.0	1747.0	1747.0	1750.0	1750.0	1750.0	1765.0	1765.0	1743.0	1743.0	1743.0	1775.0	1775.0	1769.0	1769.0	1769.0	1726.0	1726.0	1722.0	1722.0	1722.0	1737.0	1737.0	1725.0	1725.0	1729.0	1729.0	1729.0	1729.0	1729.0	1727.0	1727.0	1727.0	1721.0	1721.0	1761.0	1761.0	1761.0	1759.0	1759.0	1711.0	1711.0	1711.0	1719.0	1719.0	1707.0	1707.0	1707.0	1742.0	1742.0	1712.0	1712.0	1712.0	1723.0	1723.0	1759.0	1759.0	1759.0	1724.0	1724.0	1725.0	1725.0	1725.0	1700.0	1700.0	1720.0	1720.0	1720.0	1730.0	1730.0	1730.0	1730.0	1730.0	1738.0	1738.0	1719.0	1719.0	1719.0	1709.0	1709.0	1716.0	1716.0	1716.0	1699.0	1699.0	1726.0	1726.0	1726.0	1715.0	1715.0	1751.0	1751.0	1751.0	1728.0	1728.0	1775.0	1775.0	1775.0	1743.0	1743.0	1757.0	1757.0	1757.0	1739.0	1739.0	1787.0	1787.0	1787.0	1798.0	1798.0	1809.0	1809.0	1809.0	1808.0	1808.0	1795.0	1795.0	1795.0	1836.0	1836.0	1830.0	1830.0	1830.0	1848.0	1848.0	1868.0	1868.0	1868.0	1896.0	1896.0	1924.0	1924.0	1924.0	1936.0	1936.0	1951.0	1951.0	1951.0	1978.0	1978.0	1970.0	1970.0	1970.0	2018.0	2018.0	2026.0	2026.0	2026.0	2017.0	2017.0	2051.0	2051.0	2051.0	2058.0	2058.0	2105.0	2105.0	2105.0	2104.0	2104.0	2116.0	2116.0	2116.0	2129.0	2129.0	2122.0	2122.0	2122.0	2171.0	2171.0	2185.0	2185.0	2185.0	2177.0	2177.0	2191.0	2191.0	2191.0	2219.0	2219.0	2212.0	2212.0	2212.0	2253.0	2253.0	2231.0	2231.0	2231.0	2241.0	2241.0	2230.0	2230.0	2230.0	2254.0	2254.0	2293.0	2293.0	2293.0	2263.0	2263.0	2280.0	2280.0	2280.0	2295.0	2295.0	2298.0	2298.0	2298.0	2279.0	2279.0	2328.0	2328.0	2328.0	2323.0	2323.0	2322.0	2322.0	2322.0	2314.0	2314.0	2335.0	2335.0	2335.0	2342.0	2342.0	2363.0	2363.0	2363.0	2321.0	2321.0	2327.0	2327.0	2372.0	2372.0	2372.0	2334.0	2334.0	2369.0	2369.0	2369.0	2355.0	2355.0	2350.0	2350.0	2350.0	2355.0	2355.0	2360.0	2360.0	2360.0	2387.0	2387.0	2370.0	2370.0	2370.0	2415.0	2415.0	2375.0	2375.0	2375.0	2393.0	2393.0	2380.0	2380.0	2380.0	2426.0	2426.0	2387.0	2387.0	2387.0	2408.0	2408.0	2414.0	2414.0	2414.0	2416.0	2416.0	2433.0	2433.0	2433.0	2425.0	2425.0	2409.0	2409.0	2409.0	2407.0	2407.0	2411.0	2411.0	2411.0	2432.0	2432.0	2424.0	2424.0	2424.0	2446.0	2446.0	2418.0	2418.0	2418.0	2418.0	2418.0	2435.0	2435.0	2435.0	2449.0	2449.0	2457.0	2457.0	2457.0	2430.0	2430.0	2459.0	2459.0	2459.0	2450.0	2450.0	2443.0	2443.0	2443.0	2426.0	2426.0	2442.0	2442.0	2442.0	2423.0	2423.0	2465.0	2465.0	2465.0	2435.0	2435.0	2442.0	2442.0	2442.0	2457.0	2457.0	2437.0	2437.0	2437.0	2423.0	2423.0	2460.0	2460.0	2460.0	2445.0	2445.0	2430.0	2430.0	2430.0	2465.0	2465.0	2423.0	2423.0	2423.0	2431.0	2431.0	2444.0	2444.0	2444.0	2415.0	2415.0	2399.0	2399.0	2399.0	2406.0	2406.0	2397.0	2397.0	2397.0	2395.0	2395.0	2415.0	2415.0	2415.0	2406.0	2406.0	2403.0	2403.0	2403.0	2401.0	2401.0	2375.0	2375.0	2375.0	2350.0	2350.0	2372.0	2372.0	2372.0	2373.0	2373.0	2338.0	2338.0	2338.0	2340.0	2340.0	2321.0	2321.0	2321.0	2303.0	2303.0	2320.0	2320.0	2320.0	2332.0	2332.0	2318.0	2318.0	2318.0	2273.0	2273.0	2271.0	2271.0	2271.0	2286.0	2286.0	2273.0	2273.0	2273.0	2262.0	2262.0	2250.0	2250.0	2250.0	2254.0	2254.0	2254.0	2254.0	2254.0	2219.0	2219.0	2231.0	2231.0	2213.0	2213.0	2213.0	2224.0	2224.0	2225.0	2225.0	2225.0	2208.0	2208.0	2182.0	2182.0	2182.0	2201.0	2201.0	2185.0	2185.0	2185.0	2176.0	2176.0	2181.0	2181.0	2181.0	2170.0	2170.0	2167.0	2167.0	2167.0	2175.0	2175.0	2139.0	2139.0	2139.0	2135.0	2135.0	2145.0	2145.0	2145.0	2131.0	2131.0	2120.0	2120.0	2120.0	2109.0	2109.0	2105.0	2105.0	2105.0	2135.0	2135.0	2115.0	2115.0	2115.0	2116.0	2116.0	2115.0	2115.0	2115.0	2108.0	2108.0	2123.0	2123.0	2123.0	2111.0	2111.0	2134.0	2134.0	2134.0	2114.0	2114.0	2097.0	2097.0	2097.0	2094.0	2094.0	2095.0	2095.0	2095.0	2072.0	2072.0	2091.0	2091.0	2091.0	2062.0	2062.0	2085.0	2085.0	2085.0	2071.0	2071.0	2041.0	2041.0	2041.0	2056.0	2056.0	2047.0	2047.0	2047.0	2047.0	2047.0	2031.0	2031.0	2031.0	2020.0	2020.0	2024.0	2024.0	2024.0	2011.0	2011.0	2011.0	2011.0	2011.0	2056.0	2056.0	2027.0	2027.0	2027.0	2011.0	2011.0	2007.0	2007.0	2007.0	2017.0	2017.0	1985.0	1985.0	1985.0	2004.0	2004.0	2013.0	2013.0	2013.0	2002.0	2002.0	1996.0	1996.0	1996.0	2004.0	2004.0	1964.0	1964.0	1964.0	1981.0	1981.0	1974.0	1974.0	1974.0	1986.0	1986.0	1963.0	1963.0	1963.0	1978.0	1978.0	1985.0	1985.0	1985.0	1958.0	1958.0	1961.0	1961.0	1961.0	1970.0	1970.0	1949.0	1949.0	1949.0	1959.0	1959.0	1927.0	1927.0	1927.0	1948.0	1948.0	1934.0	1934.0	1934.0	1932.0	1932.0	1956.0	1956.0	1956.0	1930.0	1930.0	1929.0	1929.0	1929.0	1914.0	1914.0	1935.0	1935.0	1935.0	1905.0	1905.0	1935.0	1935.0	1935.0	1920.0	1920.0	1898.0	1898.0	1904.0	1904.0	1904.0	1911.0	1911.0	1884.0	1884.0	1884.0	1909.0	1909.0	1904.0	1904.0	1904.0	1893.0	1893.0	1883.0	1883.0	1883.0	1898.0	1898.0	1874.0	1874.0	1874.0	1894.0	1894.0	1870.0	1870.0	1870.0	1874.0	1874.0	1885.0	1885.0	1885.0	1859.0	1859.0	1840.0	1840.0	1840.0	1843.0	1843.0	1877.0	1877.0	1877.0	1865.0	1865.0	1865.0	1865.0	1865.0	1870.0	1870.0	1864.0	1864.0	1864.0	1859.0	1859.0	1827.0	1827.0	1827.0	1840.0	1840.0	1857.0	1857.0	1857.0	1817.0	1817.0	1846.0	1846.0	1846.0	1806.0	1806.0	1831.0	1831.0	1831.0	1807.0	1807.0	1820.0	1820.0	1820.0	1829.0	1829.0	1793.0	1793.0	1793.0	1820.0	1820.0	1807.0	1807.0	1807.0	1816.0	1816.0	1794.0	1794.0	1794.0	1789.0	1789.0	1830.0	1830.0	1830.0	1800.0	