1656.0	1619.0	1619.0	1619.0	1571.0	1571.0	1530.0	1530.0	1530.0	1541.0	1541.0	1492.0	1492.0	1492.0	1479.0	1479.0	1467.0	1467.0	1467.0	1501.0	1501.0	1475.0	1475.0	1475.0	1473.0	1473.0	1467.0	1467.0	1467.0	1456.0	1456.0	1454.0	1454.0	1454.0	1463.0	1463.0	1468.0	1468.0	1511.0	1511.0	1511.0	1499.0	1499.0	1474.0	1474.0	1474.0	1514.0	1514.0	1468.0	1468.0	1468.0	1498.0	1498.0	1499.0	1499.0	1499.0	1508.0	1508.0	1535.0	1535.0	1535.0	1493.0	1493.0	1526.0	1526.0	1526.0	1527.0	1527.0	1522.0	1522.0	1522.0	1514.0	1514.0	1509.0	1509.0	1509.0	1536.0	1536.0	1536.0	1536.0	1536.0	1514.0	1514.0	1530.0	1530.0	1530.0	1542.0	1542.0	1563.0	1563.0	1563.0	1566.0	1566.0	1579.0	1579.0	1579.0	1568.0	1568.0	1569.0	1569.0	1569.0	1553.0	1553.0	1585.0	1585.0	1585.0	1583.0	1583.0	1567.0	1567.0	1567.0	1584.0	1584.0	1557.0	1557.0	1557.0	1581.0	1581.0	1604.0	1604.0	1604.0	1630.0	1630.0	1595.0	1595.0	1595.0	1603.0	1603.0	1640.0	1640.0	1640.0	1629.0	1629.0	1599.0	1599.0	1599.0	1599.0	1599.0	1647.0	1647.0	1647.0	1617.0	1617.0	1613.0	1613.0	1613.0	1623.0	1623.0	1640.0	1640.0	1640.0	1642.0	1642.0	1607.0	1607.0	1607.0	1636.0	1636.0	1663.0	1663.0	1663.0	1628.0	1628.0	1631.0	1631.0	1631.0	1668.0	1668.0	1622.0	1622.0	1622.0	1617.0	1617.0	1663.0	1663.0	1663.0	1675.0	1675.0	1660.0	1660.0	1660.0	1673.0	1673.0	1672.0	1672.0	1672.0	1653.0	1653.0	1664.0	1664.0	1664.0	1657.0	1657.0	1666.0	1666.0	1666.0	1673.0	1673.0	1679.0	1679.0	1679.0	1674.0	1674.0	1665.0	1665.0	1665.0	1695.0	1695.0	1672.0	1672.0	1672.0	1687.0	1687.0	1670.0	1670.0	1670.0	1693.0	1693.0	1714.0	1714.0	1714.0	1727.0	1727.0	1681.0	1681.0	1681.0	1722.0	1722.0	1687.0	1687.0	1687.0	1731.0	1731.0	1698.0	1698.0	1698.0	1718.0	1718.0	1697.0	1697.0	1725.0	1725.0	1725.0	1732.0	1732.0	1703.0	1703.0	1703.0	1703.0	1703.0	1712.0	1712.0	1712.0	1713.0	1713.0	1755.0	1755.0	1755.0	1762.0	1762.0	1726.0	1726.0	1726.0	1749.0	1749.0	1752.0	1752.0	1752.0	1783.0	1783.0	1776.0	1776.0	1776.0	1742.0	1742.0	1791.0	1791.0	1791.0	1795.0	1795.0	1789.0	1789.0	1789.0	1796.0	1796.0	1810.0	1810.0	1810.0	1814.0	1814.0	1837.0	1837.0	1837.0	1865.0	1865.0	1880.0	1880.0	1880.0	1861.0	1861.0	1863.0	1863.0	1863.0	1859.0	1859.0	1884.0	1884.0	1884.0	1909.0	1909.0	1930.0	1930.0	1930.0	1945.0	1945.0	1975.0	1975.0	1975.0	1968.0	1968.0	1965.0	1965.0	1965.0	1981.0	1981.0	1990.0	1990.0	1990.0	1998.0	1998.0	2005.0	2005.0	2005.0	2024.0	2024.0	2025.0	2025.0	2025.0	2037.0	2037.0	2042.0	2042.0	2042.0	2064.0	2064.0	2051.0	2051.0	2051.0	2080.0	2080.0	2074.0	2074.0	2074.0	2102.0	2102.0	2085.0	2085.0	2085.0	2063.0	2063.0	2083.0	2083.0	2083.0	2097.0	2097.0	2094.0	2094.0	2094.0	2118.0	2118.0	2092.0	2092.0	2092.0	2113.0	2113.0	2126.0	2126.0	2126.0	2118.0	2118.0	2100.0	2100.0	2100.0	2111.0	2111.0	2103.0	2103.0	2103.0	2108.0	2108.0	2107.0	2107.0	2107.0	2137.0	2137.0	2125.0	2125.0	2125.0	2108.0	2108.0	2098.0	2098.0	2098.0	2116.0	2116.0	2115.0	2115.0	2115.0	2106.0	2106.0	2108.0	2108.0	2108.0	2108.0	2108.0	2130.0	2130.0	2130.0	2123.0	2123.0	2111.0	2111.0	2111.0	2116.0	2116.0	2133.0	2133.0	2133.0	2134.0	2134.0	2138.0	2138.0	2138.0	2150.0	2150.0	2131.0	2131.0	2131.0	2111.0	2111.0	2104.0	2104.0	2138.0	2138.0	2138.0	2106.0	2106.0	2144.0	2144.0	2144.0	2122.0	2122.0	2097.0	2097.0	2097.0	2113.0	2113.0	2132.0	2132.0	2132.0	2118.0	2118.0	2143.0	2143.0	2143.0	2132.0	2132.0	2102.0	2102.0	2102.0	2129.0	2129.0	2138.0	2138.0	2138.0	2137.0	2137.0	2140.0	2140.0	2140.0	2126.0	2126.0	2115.0	2115.0	2115.0	2104.0	2104.0	2110.0	2110.0	2110.0	2135.0	2135.0	2123.0	2123.0	2123.0	2084.0	2084.0	2126.0	2126.0	2126.0	2092.0	2092.0	2110.0	2110.0	2110.0	2124.0	2124.0	2133.0	2133.0	2133.0	2122.0	2122.0	2113.0	2113.0	2113.0	2098.0	2098.0	2110.0	2110.0	2110.0	2089.0	2089.0	2110.0	2110.0	2110.0	2106.0	2106.0	2074.0	2074.0	2074.0	2088.0	2088.0	2074.0	2074.0	2074.0	2088.0	2088.0	2090.0	2090.0	2090.0	2064.0	2064.0	2079.0	2079.0	2079.0	2105.0	2105.0	2055.0	2055.0	2055.0	2054.0	2054.0	2086.0	2086.0	2086.0	2086.0	2086.0	2095.0	2095.0	2095.0	2069.0	2069.0	2069.0	2069.0	2069.0	2076.0	2076.0	2072.0	2072.0	2072.0	2059.0	2059.0	2048.0	2048.0	2048.0	2034.0	2034.0	2070.0	2070.0	2070.0	2027.0	2027.0	2047.0	2047.0	2047.0	2037.0	2037.0	2009.0	2009.0	2009.0	2034.0	2034.0	2030.0	2030.0	2030.0	2050.0	2050.0	2016.0	2016.0	2016.0	1997.0	1997.0	2004.0	2004.0	2004.0	1999.0	1999.0	1995.0	1995.0	1995.0	2001.0	2001.0	2013.0	2013.0	2013.0	2022.0	2022.0	2019.0	2019.0	2019.0	2015.0	2015.0	2021.0	2021.0	2021.0	2005.0	2005.0	2023.0	2023.0	2023.0	2014.0	2014.0	2023.0	2023.0	2023.0	2003.0	2003.0	2024.0	2024.0	2024.0	2022.0	2022.0	2015.0	2015.0	2015.0	2017.0	2017.0	2019.0	2019.0	1990.0	1990.0	1990.0	2011.0	2011.0	1994.0	1994.0	1994.0	2003.0	2003.0	2018.0	2018.0	2018.0	2009.0	2009.0	1983.0	1983.0	1983.0	2032.0	2032.0	1996.0	1996.0	1996.0	2002.0	2002.0	2019.0	2019.0	2019.0	1990.0	1990.0	2027.0	2027.0	2027.0	1998.0	1998.0	2019.0	2019.0	2019.0	2014.0	2014.0	2010.0	2010.0	2010.0	2004.0	2004.0	1996.0	1996.0	1996.0	1993.0	1993.0	2010.0	2010.0	2010.0	2002.0	2002.0	2030.0	2030.0	2030.0	2003.0	2003.0	2005.0	2005.0	2005.0	2026.0	2026.0	1973.0	1973.0	1973.0	1989.0	1989.0	2018.0	2018.0	2018.0	1969.0	1969.0	1993.0	1993.0	1993.0	1985.0	1985.0	1993.0	1993.0	1993.0	1992.0	1992.0	2025.0	2025.0	2025.0	1990.0	1990.0	2000.0	2000.0	2000.0	1979.0	1979.0	2009.0	2009.0	2009.0	1982.0	1982.0	2000.0	2000.0	2000.0	2015.0	2015.0	2004.0	2004.0	2004.0	2017.0	2017.0	1987.0	1987.0	1987.0	1976.0	1976.0	1999.0	1999.0	1999.0	1987.0	1987.0	1986.0	1986.0	1986.0	2006.0	2006.0	1989.0	1989.0	1989.0	2000.0	2000.0	2009.0	2009.0	2009.0	1996.0	1996.0	1971.0	1971.0	1971.0	1966.0	1966.0	1968.0	1968.0	1968.0	1973.0	1973.0	1987.0	1987.0	1987.0	1970.0	1970.0	1999.0	1999.0	1999.0	1989.0	1989.0	1971.0	1971.0	1971.0	1974.0	1974.0	1992.0	1992.0	1992.0	1960.0	1960.0	1967.0	1967.0	1967.0	1990.0	1990.0	1970.0	1970.0	1970.0	2000.0	2000.0	1983.0	1983.0	1983.0	1985.0	1985.0	1950.0	1950.0	1950.0	1996.0	1996.0	1935.0	1935.0	1935.0	1959.0	1959.0	1982.0	1982.0	1982.0	1991.0	1991.0	1994.0	1994.0	1994.0	1965.0	1965.0	1967.0	1967.0	1974.0	1974.0	1974.0	1940.0	1940.0	1955.0	1955.0	1955.0	1998.0	1998.0	1955.0	1955.0	1955.0	1982.0	1982.0	1956.0	1956.0	1956.0	1941.0	1941.0	1963.0	1963.0	1963.0	1938.0	1938.0	1928.0	1928.0	1928.0	1945.0	1945.0	1937.0	1937.0	1937.0	1963.0	1963.0	1942.0	1942.0	1942.0	1938.0	1938.0	1932.0	1932.0	1932.0	1963.0	1963.0	1943.0	1943.0	1943.0	1957.0	1957.0	1967.0	1967.0	1967.0	1935.0	1935.0	1948.0	1948.0	1948.0	1948.0	1948.0	1928.0	1928.0	1928.0	1955.0	1955.0	1950.0	1950.0	1950.0	1954.0	1954.0	1942.0	1942.0	1942.0	1953.0	1953.0	1926.0	1926.0	1926.0	1963.0	1963.0	1938.0	1938.0	1938.0	1940.0	1940.0	1938.0	1938.0	1938.0	1960.0	1960.0	1940.0	1940.0	1940.0	1931.0	1931.0	1944.0	1944.0	1944.0	1957.0	1957.0	1924.0	1924.0	1924.0	1931.0	1931.0	1924.0	1924.0	1924.0	1953.0	1953.0	1967.0	1967.0	1967.0	1938.0	1938.0	1939.0	1939.0	1939.0	1947.0	1947.0	1944.0	1944.0	1944.0	1918.0	1918.0	1932.0	1932.0	1932.0	1955.0	1955.0	1956.0	1956.0	1956.0	1923.0	1923.0	1963.0	1963.0	1963.0	1955.0	1955.0	1927.0	1927.0	1927.0	1923.0	1923.0	1958.0	1958.0	1958.0	1917.0	1917.0	1942.0	1942.0	1942.0	1946.0	1946.0	1933.0	1933.0	1933.0	1921.0	1921.0	1921.0	1921.0	1921.0	1955.0	1955.0	1948.0	1948.0	1948.0	1951.0	1951.0	1945.0	1945.0	1945.0	1927.0	1927.0	1907.0	1907.0	1907.0	1899.0	1899.0	1955.0	1955.0	1955.0	1905.0	1905.0	1952.0	1952.0	1952.0	1941.0	1941.0	1933.0	1933.0	1933.0	1909.0	1909.0	1916.0	1916.0	1916.0	1907.0	1907.0	1915.0	1915.0	1904.0	1904.0	1904.0	1930.0	1930.0	1923.0	1923.0	1923.0	1927.0	1927.0	1911.0	1911.0	1911.0	1926.0	1926.0	1909.0	1909.0	1909.0	1931.0	1931.0	1925.0	1925.0	1925.0	1956.0	1956.0	1919.0	1919.0	1919.0	1914.0	1914.0	1901.0	1901.0	1901.0	1902.0	1902.0	1907.0	1907.0	1907.0	1916.0	1916.0	1914.0	1914.0	1914.0	1948.0	1948.0	1948.0	1948.0	1948.0	1912.0	1912.0	1927.0	1927.0	1927.0	1935.0	1935.0	1902.0	1902.0	1902.0	1904.0	1904.0	1912.0	1912.0	1912.0	1941.0	1941.0	1925.0	1925.0	1925.0	1938.0	1938.0	1934.0	1934.0	1934.0	1925.0	1925.0	1918.0	1918.0	1918.0	1911.0	1911.0	1931.0	1931.0	1931.0	1915.0	1915.0	1925.0	1925.0	1925.0	1926.0	1926.0	1930.0	1930.0	1930.0	1903.0	1903.0	1891.0	1891.0	1891.0	1931.0	1931.0	1934.0	1934.0	1934.0	1933.0	1933.0	1932.0	1932.0	1932.0	1911.0	1911.0	1910.0	1910.0	1910.0	1929.0	1929.0	1896.0	1896.0	1896.0	1921.0	1921.0	1907.0	1907.0	1907.0	1919.0	1919.0	1899.0	1899.0	1899.0	1920.0	1920.0	1888.0	1888.0	1888.0	1919.0	1919.0	1892.0	1892.0	1892.0	1897.0	1897.0	1907.0	1907.0	1907.0	1895.0	1895.0	1919.0	1919.0	1919.0	1918.0	1918.0	1938.0	1938.0	1938.0	1894.0	1894.0	1921.0	1921.0	1921.0	1927.0	1927.0	1926.0	1926.0	1926.0	1938.0	1938.0	1931.0	1931.0	1931.0	1907.0	1907.0	1917.0	1917.0	1917.0	1900.0	1900.0	1903.0	1903.0	1903.0	1900.0	1900.0	1926.0	1926.0	1926.0	1912.0	1912.0	1903.0	1903.0	1903.0	1901.0	1901.0	1898.0	1898.0	1898.0	1919.0	1919.0	1927.0	1927.0	1927.0	1915.0	1915.0	1941.0	1941.0	1941.0	1906.0	1906.0	1943.0	1943.0	1890.0	1890.0	1890.0	1907.0	1907.0	1895.0	1895.0	1895.0	1902.0	1902.0	1916.0	1916.0	1916.0	1935.0	1935.0	1892.0	1892.0	1892.0	1899.0	1899.0	1899.0	1899.0	1899.0	1903.0	1903.0	1918.0	1918.0	1918.0	1922.0	1922.0	1901.0	1901.0	1901.0	1899.0	1899.0	1931.0	1931.0	1931.0	1898.0	1898.0	1916.0	1916.0	1916.0	1898.0	1898.0	1912.0	1912.0	1912.0	1914.0	1914.0	1926.0	1926.0	1926.0	1909.0	1909.0	1916.0	1916.0	1916.0	1912.0	1912.0	1926.0	1926.0	1926.0	1958.0	1958.0	1957.0	1957.0	1957.0	1968.0	1968.0	1978.0	1978.0	1978.0	1981.0	1981.0	1979.0	1979.0	1979.0	1983.0	1983.0	1999.0	1999.0	1999.0	2039.0	2039.0	2022.0	2022.0	2022.0	2023.0	2023.0	2066.0	2066.0	2066.0	2057.0	2057.0	2061.0	2061.0	2061.0	2082.0	2082.0	2106.0	2106.0	2106.0	2115.0	2115.0	2106.0	2106.0	2106.0	2121.0	2121.0	2138.0	2138.0	2138.0	2154.0	2154.0	2141.0	2141.0	2141.0	2145.0	2145.0	2173.0	2173.0	2173.0	2168.0	2168.0	2192.0	2192.0	2192.0	2193.0	2193.0	2190.0	2190.0	2190.0	2173.0	2173.0	2215.0	2215.0	2215.0	2215.0	2215.0	2215.0	2215.0	2215.0	2202.0	2202.0	2195.0	2195.0	2195.0	2193.0	2193.0	2235.0	2235.0	2235.0	2242.0	2242.0	2221.0	2221.0	2221.0	2215.0	2215.0	2210.0	2210.0	2210.0	2217.0	2217.0	2241.0	2241.0	2241.0	2211.0	2211.0	2220.0	2220.0	2220.0	2212.0	2212.0	2238.0	2238.0	2238.0	2211.0	2211.0	2194.0	2194.0	2194.0	2207.0	2207.0	2193.0	2193.0	2193.0	2193.0	2193.0	2241.0	2241.0	2241.0	2199.0	2199.0	2236.0	2236.0	2236.0	2228.0	2228.0	2203.0	2203.0	2227.0	2227.0	2227.0	2202.0	2202.0	2195.0	2195.0	2195.0	2223.0	2223.0	2215.0	2215.0	2215.0	2195.0	2195.0	2219.0	2219.0	2219.0	2228.0	2228.0	2187.0	2187.0	2187.0	2200.0	2200.0	2183.0	2183.0	2183.0	2184.0	2184.0	2207.0	2207.0	2207.0	2218.0	2218.0	2196.0	2196.0	2196.0	2187.0	2187.0	2203.0	2203.0	2203.0	2196.0	2196.0	2220.0	2220.0	2220.0	2197.0	2197.0	2183.0	2183.0	2183.0	2207.0	2207.0	2191.0	2191.0	2191.0	2185.0	2185.0	2208.0	2208.0	2208.0	2192.0	2192.0	2192.0	2192.0	2192.0	2186.0	2186.0	2179.0	2179.0	2179.0	2197.0	2197.0	2189.0	2189.0	2189.0	2173.0	2173.0	2155.0	2155.0	2155.0	2167.0	2167.0	2189.0	2189.0	2189.0	2151.0	2151.0	2186.0	2186.0	2186.0	2171.0	2171.0	2143.0	2143.0	2143.0	2169.0	2169.0	2149.0	2149.0	2149.0	2156.0	2156.0	2141.0	2141.0	2141.0	2147.0	2147.0	2176.0	2176.0	2176.0	2153.0	2153.0	2140.0	2140.0	2140.0	2179.0	2179.0	2138.0	2138.0	2138.0	2143.0	2143.0	2140.0	2140.0	2140.0	2126.0	2126.0	2129.0	2129.0	2129.0	2107.0	2107.0	2138.0	2138.0	2138.0	2120.0	2120.0	2110.0	2110.0	2110.0	2114.0	2114.0	2096.0	2096.0	2096.0	2110.0	2110.0	2086.0	2086.0	2086.0	2093.0	2093.0	2111.0	2111.0	2111.0	2071.0	2071.0	2090.0	2090.0	2090.0	2081.0	2081.0	2077.0	2077.0	2077.0	2080.0	2080.0	2073.0	2073.0	2073.0	2094.0	2094.0	2060.0	2060.0	2060.0	2061.0	2061.0	2042.0	2042.0	2042.0	2078.0	2078.0	2064.0	2064.0	2064.0	2092.0	2092.0	2070.0	2070.0	2070.0	2051.0	2051.0	2053.0	2053.0	2053.0	2042.0	2042.0	2060.0	2060.0	2060.0	2057.0	2057.0	2038.0	2038.0	2051.0	2051.0	2051.0	2070.0	2070.0	2029.0	2029.0	2029.0	2037.0	2037.0	2028.0	2028.0	2028.0	2043.0	2043.0	2074.0	2074.0	2074.0	2019.0	2019.0	2045.0	2045.0	2045.0	2024.0	2024.0	2007.0	2007.0	2007.0	2024.0	2024.0	2031.0	2031.0	2031.0	2028.0	2028.0	2039.0	2039.0	2039.0	2033.0	2033.0	2061.0	2061.0	2061.0	2046.0	2046.0	2054.0	2054.0	2054.0	2040.0	2040.0	2028.0	2028.0	2028.0	2043.0	2043.0	2048.0	2048.0	2048.0	2053.0	2053.0	2043.0	2043.0	2043.0	2032.0	2032.0	2048.0	2048.0	2048.0	2017.0	2017.0	2026.0	2026.0	2026.0	2019.0	2019.0	2028.0	2028.0	2028.0	2036.0	2036.0	2043.0	2043.0	2043.0	2011.0	2011.0	2013.0	2013.0	2013.0	2021.0	2021.0	2030.0	2030.0	2030.0	2041.0	2041.0	2001.0	2001.0	2001.0	2033.0	2033.0	2044.0	2044.0	2044.0	2001.0	2001.0	2043.0	2043.0	2043.0	2044.0	2044.0	2028.0	2028.0	2028.0	2017.0	2017.0	1997.0	1997.0	1997.0	2015.0	2015.0	2011.0	2011.0	2011.0	2023.0	2023.0	2028.0	2028.0	2028.0	2013.0	2013.0	2008.0	2008.0	2008.0	1990.0	1990.0	1997.0	1997.0	1997.0	1980.0	1980.0	2000.0	2000.0	2000.0	2032.0	2032.0	1987.0	1987.0	1987.0	1997.0	1997.0	2010.0	2010.0	2010.0	2012.0	2012.0	1975.0	1975.0	1975.0	2011.0	2011.0	2012.0	2012.0	2012.0	1987.0	1987.0	1976.0	1976.0	1976.0	1993.0	1993.0	1998.0	1998.0	1998.0	1981.0	1981.0	1966.0	1966.0	1966.0	2021.0	2021.0	1977.0	1977.0	1977.0	2011.0	2011.0	1987.0	1987.0	1987.0	1999.0	1999.0	2010.0	2010.0	2010.0	2013.0	2013.0	1997.0	1997.0	1997.0	1959.0	1959.0	1988.0	1988.0	1974.0	1974.0	1974.0	1992.0	1992.0	1965.0	1965.0	1965.0	1992.0	1992.0	1962.0	1962.0	1962.0	1951.0	1951.0	1951.0	1951.0	1951.0	1948.0	1948.0	1984.0	1984.0	1984.0	1971.0	1971.0	1964.0	1964.0	1964.0	1999.0	1999.0	2005.0	2005.0	2005.0	1946.0	1946.0	1979.0	1979.0	1979.0	1942.0	1942.0	1945.0	1945.0	1945.0	1962.0	1962.0	1983.0	1983.0	1983.0	1979.0	1979.0	1959.0	1959.0	1959.0	1971.0	1971.0	1978.0	1978.0	1978.0	1977.0	1977.0	1982.0	1982.0	1982.0	1973.0	1973.0	1964.0	1964.0	1964.0	1956.0	1956.0	1943.0	1943.0	1943.0	1976.0	1976.0	1958.0	1958.0	1958.0	1964.0	1964.0	1963.0	1963.0	1963.0	1964.0	1964.0	1934.0	1934.0	1934.0	1971.0	1971.0	1951.0	1951.0	1951.0	1959.0	1959.0	1975.0	1975.0	1975.0	1968.0	1968.0	1935.0	1935.0	1935.0	1956.0	1956.0	1929.0	1929.0	1929.0	1948.0	1948.0	1958.0	1958.0	1958.0	1943.0	1943.0	1973.0	1973.0	1973.0	1948.0	1948.0	1954.0	1954.0	1954.0	1949.0	1949.0	1963.0	1963.0	1963.0	1962.0	1962.0	1951.0	1951.0	1951.0	1928.0	1928.0	1959.0	1959.0	1959.0	1954.0	1954.0	1938.0	1938.0	1938.0	1948.0	1948.0	1966.0	1966.0	1966.0	1944.0	1944.0	1923.0	1923.0	1923.0	1917.0	1917.0	1919.0	1919.0	1919.0	1931.0	1931.0	1955.0	1955.0	1955.0	1930.0	1930.0	1927.0	1927.0	1927.0	1932.0	1932.0	1927.0	1927.0	1927.0	1959.0	1959.0	1907.0	1907.0	1907.0	1936.0	1936.0	1920.0	1920.0	1920.0	1919.0	1919.0	1928.0	1928.0	1928.0	1938.0	1938.0	1919.0	1919.0	1919.0	1936.0	1936.0	1947.0	1947.0	1947.0	1945.0	1945.0	1918.0	1918.0	1911.0	1911.0	1911.0	1925.0	1925.0	1907.0	1907.0	1907.0	1930.0	1930.0	1948.0	1948.0	1948.0	1941.0	1941.0	1944.0	1944.0	1944.0	1932.0	1932.0	1943.0	1943.0	1943.0	1924.0	1924.0	1923.0	1923.0	