1868.0	1868.0	1871.0	1871.0	1871.0	1870.0	1870.0	1862.0	1862.0	1862.0	1903.0	1903.0	1923.0	1923.0	1923.0	1848.0	1848.0	1867.0	1867.0	1867.0	1891.0	1891.0	1912.0	1912.0	1912.0	1872.0	1872.0	1855.0	1855.0	1900.0	1900.0	1900.0	1881.0	1881.0	1909.0	1909.0	1909.0	1928.0	1928.0	1866.0	1866.0	1866.0	1854.0	1854.0	1921.0	1921.0	1921.0	1922.0	1922.0	1931.0	1931.0	1931.0	1850.0	1850.0	1912.0	1912.0	1912.0	1894.0	1894.0	1899.0	1899.0	1899.0	1916.0	1916.0	1878.0	1878.0	1878.0	1922.0	1922.0	1865.0	1865.0	1865.0	1915.0	1915.0	1915.0	1915.0	1915.0	1914.0	1914.0	1915.0	1915.0	1915.0	1864.0	1864.0	1857.0	1857.0	1857.0	1919.0	1919.0	1853.0	1853.0	1853.0	1907.0	1907.0	1848.0	1848.0	1848.0	1881.0	1881.0	1884.0	1884.0	1884.0	1908.0	1908.0	1840.0	1840.0	1840.0	1890.0	1890.0	1819.0	1819.0	1819.0	1906.0	1906.0	1830.0	1830.0	1830.0	1894.0	1894.0	1897.0	1897.0	1897.0	1894.0	1894.0	1897.0	1897.0	1897.0	1829.0	1829.0	1884.0	1884.0	1884.0	1826.0	1826.0	1907.0	1907.0	1907.0	1869.0	1869.0	1894.0	1894.0	1894.0	1856.0	1856.0	1826.0	1826.0	1826.0	1899.0	1899.0	1875.0	1875.0	1875.0	1869.0	1869.0	1899.0	1899.0	1899.0	1881.0	1881.0	1867.0	1867.0	1867.0	1845.0	1845.0	1839.0	1839.0	1839.0	1876.0	1876.0	1843.0	1843.0	1843.0	1824.0	1824.0	1888.0	1888.0	1888.0	1858.0	1858.0	1858.0	1858.0	1858.0	1836.0	1836.0	1858.0	1858.0	1858.0	1882.0	1882.0	1898.0	1898.0	1898.0	1885.0	1885.0	1887.0	1887.0	1887.0	1827.0	1827.0	1898.0	1898.0	1898.0	1881.0	1881.0	1886.0	1886.0	1886.0	1895.0	1895.0	1839.0	1839.0	1839.0	1826.0	1826.0	1893.0	1893.0	1893.0	1896.0	1896.0	1891.0	1891.0	1891.0	1839.0	1839.0	1893.0	1893.0	1893.0	1903.0	1903.0	1834.0	1834.0	1834.0	1847.0	1847.0	1838.0	1838.0	1898.0	1898.0	1898.0	1826.0	1826.0	1868.0	1868.0	1868.0	1815.0	1815.0	1834.0	1834.0	1834.0	1884.0	1884.0	1827.0	1827.0	1827.0	1869.0	1869.0	1891.0	1891.0	1891.0	1813.0	1813.0	1862.0	1862.0	1862.0	1818.0	1818.0	1850.0	1850.0	1850.0	1858.0	1858.0	1806.0	1806.0	1806.0	1809.0	1809.0	1843.0	1843.0	1843.0	1813.0	1813.0	1825.0	1825.0	1825.0	1885.0	1885.0	1871.0	1871.0	1871.0	1885.0	1885.0	1838.0	1838.0	1838.0	1813.0	1813.0	1851.0	1851.0	1851.0	1887.0	1887.0	1850.0	1850.0	1850.0	1862.0	1862.0	1833.0	1833.0	1833.0	1811.0	1811.0	1882.0	1882.0	1882.0	1889.0	1889.0	1880.0	1880.0	1880.0	1833.0	1833.0	1883.0	1883.0	1883.0	1880.0	1880.0	1810.0	1810.0	1810.0	1877.0	1877.0	1892.0	1892.0	1892.0	1882.0	1882.0	1842.0	1842.0	1842.0	1884.0	1884.0	1835.0	1835.0	1835.0	1812.0	1812.0	1807.0	1807.0	1807.0	1814.0	1814.0	1875.0	1875.0	1875.0	1857.0	1857.0	1850.0	1850.0	1850.0	1874.0	1874.0	1835.0	1835.0	1835.0	1828.0	1828.0	1894.0	1894.0	1894.0	1831.0	1831.0	1828.0	1828.0	1828.0	1894.0	1894.0	1828.0	1828.0	1828.0	1906.0	1906.0	1892.0	1892.0	1892.0	1825.0	1825.0	1906.0	1906.0	1906.0	1896.0	1896.0	1841.0	1841.0	1841.0	1834.0	1834.0	1872.0	1872.0	1872.0	1864.0	1864.0	1893.0	1893.0	1893.0	1811.0	1811.0	1865.0	1865.0	1865.0	1883.0	1883.0	1867.0	1867.0	1867.0	1866.0	1866.0	1807.0	1807.0	1807.0	1872.0	1872.0	1837.0	1837.0	1837.0	1849.0	1849.0	1804.0	1804.0	1804.0	1880.0	1880.0	1879.0	1879.0	1879.0	1816.0	1816.0	1858.0	1858.0	1806.0	1806.0	1806.0	1804.0	1804.0	1818.0	1818.0	1818.0	1846.0	1846.0	1826.0	1826.0	1826.0	1823.0	1823.0	1888.0	1888.0	1888.0	1892.0	1892.0	1870.0	1870.0	1870.0	1871.0	1871.0	1849.0	1849.0	1849.0	1917.0	1917.0	1915.0	1915.0	1915.0	1934.0	1934.0	1926.0	1926.0	1926.0	1947.0	1947.0	1971.0	1971.0	1971.0	1910.0	1910.0	1984.0	1984.0	1984.0	1938.0	1938.0	1944.0	1944.0	1944.0	1974.0	1974.0	1993.0	1993.0	1993.0	2082.0	2082.0	2056.0	2056.0	2056.0	2035.0	2035.0	2066.0	2066.0	2066.0	2072.0	2072.0	2116.0	2116.0	2116.0	2167.0	2167.0	2195.0	2195.0	2195.0	2145.0	2145.0	2189.0	2189.0	2189.0	2196.0	2196.0	2207.0	2207.0	2207.0	2209.0	2209.0	2293.0	2293.0	2293.0	2270.0	2270.0	2255.0	2255.0	2255.0	2286.0	2286.0	2355.0	2355.0	2355.0	2308.0	2308.0	2345.0	2345.0	2345.0	2335.0	2335.0	2338.0	2338.0	2338.0	2359.0	2359.0	2428.0	2428.0	2428.0	2361.0	2361.0	2362.0	2362.0	2362.0	2380.0	2380.0	2449.0	2449.0	2449.0	2391.0	2391.0	2396.0	2396.0	2396.0	2417.0	2417.0	2468.0	2468.0	2468.0	2397.0	2397.0	2414.0	2414.0	2414.0	2475.0	2475.0	2426.0	2426.0	2426.0	2456.0	2456.0	2476.0	2476.0	2476.0	2409.0	2409.0	2418.0	2418.0	2418.0	2496.0	2496.0	2428.0	2428.0	2428.0	2414.0	2414.0	2427.0	2427.0	2427.0	2467.0	2467.0	2484.0	2484.0	2484.0	2423.0	2423.0	2472.0	2472.0	2472.0	2475.0	2475.0	2415.0	2415.0	2415.0	2472.0	2472.0	2444.0	2444.0	2444.0	2384.0	2384.0	2400.0	2400.0	2400.0	2458.0	2458.0	2427.0	2427.0	2427.0	2380.0	2380.0	2412.0	2412.0	2412.0	2399.0	2399.0	2364.0	2364.0	2368.0	2368.0	2368.0	2439.0	2439.0	2429.0	2429.0	2429.0	2421.0	2421.0	2378.0	2378.0	2378.0	2376.0	2376.0	2394.0	2394.0	2394.0	2399.0	2399.0	2346.0	2346.0	2346.0	2333.0	2333.0	2370.0	2370.0	2370.0	2358.0	2358.0	2386.0	2386.0	2386.0	2363.0	2363.0	2340.0	2340.0	2340.0	2341.0	2341.0	2333.0	2333.0	2333.0	2361.0	2361.0	2304.0	2304.0	2304.0	2291.0	2291.0	2350.0	2350.0	2350.0	2304.0	2304.0	2308.0	2308.0	2308.0	2320.0	2320.0	2355.0	2355.0	2355.0	2293.0	2293.0	2282.0	2282.0	2282.0	2289.0	2289.0	2351.0	2351.0	2351.0	2270.0	2270.0	2336.0	2336.0	2336.0	2339.0	2339.0	2291.0	2291.0	2291.0	2289.0	2289.0	2304.0	2304.0	2304.0	2305.0	2305.0	2263.0	2263.0	2263.0	2272.0	2272.0	2247.0	2247.0	2247.0	2235.0	2235.0	2283.0	2283.0	2283.0	2301.0	2301.0	2229.0	2229.0	2229.0	2261.0	2261.0	2243.0	2243.0	2243.0	2213.0	2213.0	2249.0	2249.0	2249.0	2202.0	2202.0	2224.0	2224.0	2224.0	2268.0	2268.0	2193.0	2193.0	2193.0	2194.0	2194.0	2191.0	2191.0	2191.0	2192.0	2192.0	2196.0	2196.0	2196.0	2205.0	2205.0	2239.0	2239.0	2239.0	2240.0	2240.0	2243.0	2243.0	2243.0	2202.0	2202.0	2200.0	2200.0	2200.0	2181.0	2181.0	2218.0	2218.0	2218.0	2191.0	2191.0	2165.0	2165.0	2165.0	2220.0	2220.0	2205.0	2205.0	2205.0	2164.0	2164.0	2189.0	2189.0	2189.0	2168.0	2168.0	2191.0	2191.0	2191.0	2169.0	2169.0	2186.0	2186.0	2186.0	2134.0	2134.0	2142.0	2142.0	2142.0	2131.0	2131.0	2158.0	2158.0	2158.0	2141.0	2141.0	2150.0	2150.0	2150.0	2173.0	2173.0	2192.0	2192.0	2125.0	2125.0	2125.0	2133.0	2133.0	2125.0	2125.0	2125.0	2184.0	2184.0	2197.0	2197.0	2197.0	2119.0	2119.0	2164.0	2164.0	2164.0	2140.0	2140.0	2188.0	2188.0	2188.0	2194.0	2194.0	2139.0	2139.0	2139.0	2118.0	2118.0	2144.0	2144.0	2144.0	2158.0	2158.0	2150.0	2150.0	2150.0	2118.0	2118.0	2125.0	2125.0	2125.0	2136.0	2136.0	2154.0	2154.0	2154.0	2117.0	2117.0	2137.0	2137.0	2137.0	2165.0	2165.0	2131.0	2131.0	2131.0	2180.0	2180.0	2157.0	2157.0	2157.0	2171.0	2171.0	2157.0	2157.0	2157.0	2142.0	2142.0	2175.0	2175.0	2175.0	2109.0	2109.0	2169.0	2169.0	2169.0	2105.0	2105.0	2104.0	2104.0	2104.0	2172.0	2172.0	2166.0	2166.0	2166.0	2158.0	2158.0	2108.0	2108.0	2108.0	2092.0	2092.0	2074.0	2074.0	2074.0	2144.0	2144.0	2093.0	2093.0	2093.0	2137.0	2137.0	2087.0	2087.0	2087.0	2113.0	2113.0	2115.0	2115.0	2115.0	2075.0	2075.0	2068.0	2068.0	2068.0	2131.0	2131.0	2072.0	2072.0	2072.0	2107.0	2107.0	2055.0	2055.0	2055.0	2108.0	2108.0	2043.0	2043.0	2043.0	2055.0	2055.0	2115.0	2115.0	2115.0	2038.0	2038.0	2048.0	2048.0	2048.0	2035.0	2035.0	2055.0	2055.0	2055.0	2101.0	2101.0	2053.0	2053.0	2053.0	2097.0	2097.0	2043.0	2043.0	2043.0	2045.0	2045.0	2064.0	2064.0	2064.0	2063.0	2063.0	2035.0	2035.0	2035.0	2054.0	2054.0	2013.0	2013.0	2013.0	2010.0	2010.0	2000.0	2000.0	2000.0	2062.0	2062.0	2044.0	2044.0	2044.0	2053.0	2053.0	2062.0	2062.0	2062.0	2001.0	2001.0	2051.0	2051.0	2051.0	2034.0	2034.0	1995.0	1995.0	1995.0	2044.0	2044.0	2024.0	2024.0	1963.0	1963.0	1963.0	2034.0	2034.0	2020.0	2020.0	2020.0	2024.0	2024.0	2026.0	2026.0	2026.0	1954.0	1954.0	2021.0	2021.0	2021.0	1941.0	1941.0	1977.0	1977.0	1977.0	1990.0	1990.0	1961.0	1961.0	1961.0	1963.0	1963.0	1957.0	1957.0	1957.0	1978.0	1978.0	1951.0	1951.0	1951.0	1940.0	1940.0	1945.0	1945.0	1945.0	1969.0	1969.0	1969.0	1969.0	1969.0	1984.0	1984.0	1912.0	1912.0	1912.0	1936.0	1936.0	1986.0	1986.0	1986.0	1914.0	1914.0	1983.0	1983.0	1983.0	1901.0	1901.0	1973.0	1973.0	1973.0	1894.0	1894.0	1955.0	1955.0	1955.0	1944.0	1944.0	1944.0	1944.0	1944.0	1886.0	1886.0	1957.0	1957.0	1957.0	1890.0	1890.0	1966.0	1966.0	1966.0	1883.0	1883.0	1937.0	1937.0	1937.0	1884.0	1884.0	1882.0	1882.0	1882.0	1902.0	1902.0	1887.0	1887.0	1887.0	1920.0	1920.0	1878.0	1878.0	1878.0	1906.0	1906.0	1895.0	1895.0	1895.0	1884.0	1884.0	1862.0	1862.0	1862.0	1937.0	1937.0	1880.0	1880.0	1880.0	1932.0	1932.0	1919.0	1919.0	1919.0	1896.0	1896.0	1876.0	1876.0	1876.0	1939.0	1939.0	1905.0	1905.0	1905.0	1858.0	1858.0	1907.0	1907.0	1907.0	1899.0	1899.0	1869.0	1869.0	1869.0	1858.0	1858.0	1923.0	1923.0	1923.0	1883.0	1883.0	1897.0	1897.0	1897.0	1882.0	1882.0	1902.0	1902.0	1902.0	1865.0	1865.0	1917.0	1917.0	1917.0	1912.0	1912.0	1874.0	1874.0	1874.0	1922.0	1922.0	1928.0	1928.0	1928.0	1840.0	1840.0	1855.0	1855.0	1855.0	1847.0	1847.0	1856.0	1856.0	1856.0	1875.0	1875.0	1828.0	1828.0	1828.0	1871.0	1871.0	1896.0	1896.0	1896.0	1847.0	1847.0	1887.0	1887.0	1887.0	1875.0	1875.0	1910.0	1910.0	1871.0	1871.0	1871.0	1852.0	1852.0	1883.0	1883.0	1883.0	1846.0	1846.0	1846.0	1846.0	1846.0	1833.0	1833.0	1852.0	1852.0	1852.0	1837.0	1837.0	1863.0	1863.0	1863.0	1911.0	1911.0	1917.0	1917.0	1917.0	1881.0	1881.0	1872.0	1872.0	1872.0	1837.0	1837.0	1859.0	1859.0	1859.0	1897.0	1897.0	1907.0	1907.0	1907.0	1892.0	1892.0	1905.0	1905.0	1905.0	1855.0	1855.0	1874.0	1874.0	1874.0	1867.0	1867.0	1854.0	1854.0	1854.0	1900.0	1900.0	1832.0	1832.0	1832.0	1890.0	1890.0	1882.0	1882.0	1882.0	1904.0	1904.0	1905.0	1905.0	1905.0	1839.0	1839.0	1870.0	1870.0	1870.0	1899.0	1899.0	1887.0	1887.0	1887.0	1866.0	1866.0	1861.0	1861.0	1861.0	1893.0	1893.0	1844.0	1844.0	1844.0	1912.0	1912.0	1845.0	1845.0	1845.0	1881.0	1881.0	1843.0	1843.0	1843.0	1884.0	1884.0	1914.0	1914.0	1914.0	1852.0	1852.0	1863.0	1863.0	1863.0	1862.0	1862.0	1846.0	1846.0	1846.0	1824.0	1824.0	1833.0	1833.0	1833.0	1895.0	1895.0	1813.0	1813.0	1813.0	1838.0	1838.0	1906.0	1906.0	1906.0	1843.0	1843.0	1817.0	1817.0	1817.0	1809.0	1809.0	1859.0	1859.0	1859.0	1869.0	1869.0	1890.0	1890.0	1890.0	1854.0	1854.0	1834.0	1834.0	1834.0	1863.0	1863.0	1901.0	1901.0	1901.0	1826.0	1826.0	1831.0	1831.0	1831.0	1865.0	1865.0	1837.0	1837.0	1837.0	1840.0	1840.0	1847.0	1847.0	1847.0	1822.0	1822.0	1874.0	1874.0	1874.0	1819.0	1819.0	1896.0	1896.0	1896.0	1888.0	1888.0	1861.0	1861.0	1861.0	1881.0	1881.0	1831.0	1831.0	1831.0	1827.0	1827.0	1838.0	1838.0	1838.0	1884.0	1884.0	1840.0	1840.0	1819.0	1819.0	1819.0	1864.0	1864.0	1858.0	1858.0	1858.0	1813.0	1813.0	1889.0	1889.0	1889.0	1866.0	1866.0	1840.0	1840.0	1840.0	1831.0	1831.0	1812.0	1812.0	1812.0	1851.0	1851.0	1811.0	1811.0	1811.0	1851.0	1851.0	1892.0	1892.0	1892.0	1900.0	1900.0	1822.0	1822.0	1822.0	1876.0	1876.0	1828.0	1828.0	1828.0	1855.0	1855.0	1863.0	1863.0	1863.0	1879.0	1879.0	1836.0	1836.0	1836.0	1886.0	1886.0	1855.0	1855.0	1855.0	1888.0	1888.0	1826.0	1826.0	1826.0	1847.0	1847.0	1892.0	1892.0	1892.0	1880.0	1880.0	1870.0	1870.0	1870.0	1848.0	1848.0	1891.0	1891.0	1891.0	1830.0	1830.0	1832.0	1832.0	1832.0	1870.0	1870.0	1856.0	1856.0	1856.0	1889.0	1889.0	1819.0	1819.0	1819.0	1834.0	1834.0	1891.0	1891.0	1891.0	1818.0	1818.0	1835.0	1835.0	1835.0	1820.0	1820.0	1848.0	1848.0	1848.0	1880.0	1880.0	1819.0	1819.0	1819.0	1875.0	1875.0	1880.0	1880.0	1880.0	1811.0	1811.0	1806.0	1806.0	1806.0	1879.0	1879.0	1864.0	1864.0	1864.0	1799.0	1799.0	1876.0	1876.0	1876.0	1833.0	1833.0	1828.0	1828.0	1828.0	1868.0	1868.0	1823.0	1823.0	1823.0	1819.0	1819.0	1895.0	1895.0	1895.0	1843.0	1843.0	1871.0	1871.0	1871.0	1908.0	1908.0	1864.0	1864.0	1864.0	1903.0	1903.0	1865.0	1865.0	1865.0	1882.0	1882.0	1883.0	1883.0	1883.0	1982.0	1982.0	1982.0	1982.0	1982.0	1977.0	1977.0	1986.0	1986.0	1986.0	1988.0	1988.0	2009.0	2009.0	2009.0	2060.0	2060.0	2044.0	2044.0	2044.0	2037.0	2037.0	2056.0	2056.0	2056.0	2086.0	2086.0	2084.0	2084.0	2084.0	2176.0	2176.0	2121.0	2121.0	2148.0	2148.0	2148.0	2188.0	2188.0	2253.0	2253.0	2253.0	2228.0	2228.0	2230.0	2230.0	2230.0	2252.0	2252.0	2295.0	2295.0	2295.0	2254.0	2254.0	2316.0	2316.0	2316.0	2369.0	2369.0	2343.0	2343.0	2343.0	2320.0	2320.0	2343.0	2343.0	2343.0	2347.0	2347.0	2417.0	2417.0	2417.0	2394.0	2394.0	2376.0	2376.0	2376.0	2394.0	2394.0	2394.0	2394.0	2394.0	2385.0	2385.0	2470.0	2470.0	2470.0	2472.0	2472.0	2470.0	2470.0	2470.0	2442.0	2442.0	2468.0	2468.0	2468.0	2428.0	2428.0	2405.0	2405.0	2405.0	2441.0	2441.0	2416.0	2416.0	2416.0	2415.0	2415.0	2444.0	2444.0	2444.0	2487.0	2487.0	2444.0	2444.0	2444.0	2459.0	2459.0	2420.0	2420.0	2420.0	2463.0	2463.0	2491.0	2491.0	2491.0	2431.0	2431.0	2483.0	2483.0	2483.0	2470.0	2470.0	2439.0	2439.0	2439.0	2459.0	2459.0	2405.0	2405.0	2405.0	2417.0	2417.0	2401.0	2401.0	2401.0	2405.0	2405.0	2444.0	2444.0	2444.0	2453.0	2453.0	2388.0	2388.0	2388.0	2451.0	2451.0	2371.0	2371.0	2371.0	2442.0	2442.0	2426.0	2426.0	2426.0	2373.0	2373.0	2361.0	2361.0	2361.0	2427.0	2427.0	2431.0	2431.0	2431.0	2397.0	2397.0	2395.0	2395.0	2395.0	2364.0	2364.0	2359.0	2359.0	2359.0	2383.0	2383.0	2338.0	2338.0	2338.0	2362.0	2362.0	2354.0	2354.0	2354.0	2322.0	2322.0	2338.0	2338.0	2338.0	2385.0	2385.0	2365.0	2365.0	2365.0	2328.0	2328.0	2384.0	2384.0	2384.0	2343.0	2343.0	2358.0	2358.0	2358.0	2318.0	2318.0	2299.0	2299.0	2299.0	2370.0	2370.0	2360.0	2360.0	2360.0	2293.0	2293.0	2333.0	2333.0	2333.0	2338.0	2338.0	2343.0	2343.0	2343.0	2307.0	2307.0	2288.0	2288.0	2303.0	2303.0	2303.0	2276.0	2276.0	2288.0	2288.0	2288.0	2318.0	2318.0	2259.0	2259.0	2259.0	2328.0	2328.0	2257.0	2257.0	2257.0	2254.0	2254.0	2240.0	2240.0	2240.0	2246.0	2246.0	2292.0	2292.0	2292.0	2266.0	2266.0	2295.0	2295.0	2295.0	2301.0	2301.0	2258.0	2258.0	2258.0	2297.0	2297.0	2226.0	2226.0	2226.0	2218.0	2218.0	2264.0	2264.0	2264.0	2231.0	2231.0	2209.0	2209.0	2209.0	2252.0	2252.0	2212.0	2212.0	2212.0	2208.0	2208.0	2267.0	2267.0	2267.0	2205.0	2205.0	2269.0	2269.0	2269.0	2209.0	2209.0	2187.0	2187.0	2187.0	2197.0	2197.0	2219.0	2219.0	2219.0	2191.0	2191.0	2186.0	2186.0	2186.0	2170.0	2170.0	2169.0	2169.0	2169.0	2223.0	2223.0	2238.0	2238.0	2238.0	2219.0	2219.0	2176.0	2176.0	2176.0	2228.0	2228.0	2193.0	2193.0	2193.0	2160.0	2160.0	2215.0	2215.0	2215.0	2193.0	2193.0	2179.0	2179.0	2179.0	2160.0	2160.0	2193.0	2193.0	2193.0	2209.0	2209.0	2223.0	2223.0	2223.0	2160.0	2160.0	2182.0	2182.0	2182.0	2162.0	2162.0	2183.0	2183.0	2183.0	2222.0	2222.0	2232.0	2232.0	2232.0	2190.0	2190.0	2230.0	2230.0	2230.0	2151.0	2151.0	2186.0	2186.0	2186.0	2151.0	2151.0	2181.0	2181.0	2181.0	2177.0	2177.0	2156.0	2156.0	2156.0	2151.0	2151.0	2159.0	2159.0	2159.0	2147.0	2147.0	2184.0	2184.0	2184.0	2148.0	2148.0	2158.0	2158.0	2158.0	2196.0	2196.0	2137.0	2137.0	2137.0	2137.0	2137.0	2206.0	2206.0	2206.0	2203.0	2203.0	2176.0	2176.0	2176.0	2177.0	2177.0	2152.0	2152.0	2152.0	2121.0	2121.0	2187.0	2187.0	2187.0	2185.0	2185.0	2177.0	2177.0	2118.0	2118.0	2118.0	2117.0	2117.0	2197.0	2197.0	2197.0	2169.0	2169.0	2103.0	2103.0	2103.0	2108.0	2108.0	2182.0	2182.0	2182.0	2176.0	2176.0	2101.0	2101.0	2101.0	2109.0	2109.0	2105.0	2105.0	2105.0	2152.0	2152.0	2159.0	