1878.0	1940.0	1940.0	1882.0	1882.0	1882.0	1859.0	1859.0	1915.0	1915.0	1915.0	1864.0	1864.0	1862.0	1862.0	1862.0	1869.0	1869.0	1888.0	1888.0	1888.0	1892.0	1892.0	1863.0	1863.0	1863.0	1843.0	1843.0	1835.0	1835.0	1835.0	1866.0	1866.0	1835.0	1835.0	1835.0	1906.0	1906.0	1827.0	1827.0	1827.0	1838.0	1838.0	1829.0	1829.0	1829.0	1841.0	1841.0	1893.0	1893.0	1893.0	1854.0	1854.0	1859.0	1859.0	1859.0	1875.0	1875.0	1818.0	1818.0	1818.0	1857.0	1857.0	1811.0	1811.0	1811.0	1835.0	1835.0	1818.0	1818.0	1818.0	1878.0	1878.0	1827.0	1827.0	1827.0	1807.0	1807.0	1829.0	1829.0	1829.0	1801.0	1801.0	1814.0	1814.0	1814.0	1849.0	1849.0	1798.0	1798.0	1798.0	1829.0	1829.0	1876.0	1876.0	1876.0	1789.0	1789.0	1837.0	1837.0	1837.0	1817.0	1817.0	1813.0	1813.0	1813.0	1819.0	1819.0	1831.0	1831.0	1831.0	1869.0	1869.0	1827.0	1827.0	1827.0	1834.0	1834.0	1833.0	1833.0	1833.0	1866.0	1866.0	1859.0	1859.0	1859.0	1785.0	1785.0	1803.0	1803.0	1803.0	1823.0	1823.0	1870.0	1870.0	1870.0	1837.0	1837.0	1847.0	1847.0	1847.0	1855.0	1855.0	1781.0	1781.0	1781.0	1845.0	1845.0	1862.0	1862.0	1862.0	1867.0	1867.0	1849.0	1849.0	1849.0	1801.0	1801.0	1782.0	1782.0	1782.0	1807.0	1807.0	1784.0	1784.0	1784.0	1855.0	1855.0	1855.0	1855.0	1855.0	1785.0	1785.0	1838.0	1838.0	1838.0	1820.0	1820.0	1839.0	1839.0	1839.0	1811.0	1811.0	1859.0	1859.0	1859.0	1803.0	1803.0	1792.0	1792.0	1792.0	1791.0	1791.0	1859.0	1859.0	1859.0	1823.0	1823.0	1802.0	1802.0	1802.0	1838.0	1838.0	1805.0	1805.0	1805.0	1860.0	1860.0	1787.0	1787.0	1842.0	1842.0	1842.0	1859.0	1859.0	1800.0	1800.0	1800.0	1781.0	1781.0	1792.0	1792.0	1792.0	1829.0	1829.0	1835.0	1835.0	1835.0	1783.0	1783.0	1860.0	1860.0	1860.0	1830.0	1830.0	1852.0	1852.0	1852.0	1808.0	1808.0	1790.0	1790.0	1790.0	1855.0	1855.0	1853.0	1853.0	1853.0	1866.0	1866.0	1818.0	1818.0	1818.0	1801.0	1801.0	1796.0	1796.0	1796.0	1802.0	1802.0	1870.0	1870.0	1870.0	1877.0	1877.0	1854.0	1854.0	1854.0	1828.0	1828.0	1881.0	1881.0	1881.0	1801.0	1801.0	1872.0	1872.0	1872.0	1815.0	1815.0	1868.0	1868.0	1868.0	1813.0	1813.0	1876.0	1876.0	1876.0	1843.0	1843.0	1860.0	1860.0	1860.0	1845.0	1845.0	1836.0	1836.0	1836.0	1847.0	1847.0	1869.0	1869.0	1869.0	1810.0	1810.0	1883.0	1883.0	1883.0	1829.0	1829.0	1845.0	1845.0	1845.0	1874.0	1874.0	1817.0	1817.0	1817.0	1882.0	1882.0	1815.0	1815.0	1815.0	1878.0	1878.0	1822.0	1822.0	1822.0	1860.0	1860.0	1888.0	1888.0	1888.0	1869.0	1869.0	1879.0	1879.0	1879.0	1873.0	1873.0	1868.0	1868.0	1868.0	1820.0	1820.0	1819.0	1819.0	1819.0	1873.0	1873.0	1822.0	1822.0	1822.0	1893.0	1893.0	1872.0	1872.0	1872.0	1885.0	1885.0	1818.0	1818.0	1818.0	1819.0	1819.0	1876.0	1876.0	1876.0	1879.0	1879.0	1865.0	1865.0	1865.0	1850.0	1850.0	1875.0	1875.0	1875.0	1801.0	1801.0	1851.0	1851.0	1851.0	1852.0	1852.0	1818.0	1818.0	1818.0	1815.0	1815.0	1864.0	1864.0	1864.0	1888.0	1888.0	1876.0	1876.0	1876.0	1878.0	1878.0	1868.0	1868.0	1868.0	1883.0	1883.0	1887.0	1887.0	1887.0	1877.0	1877.0	1889.0	1889.0	1913.0	1913.0	1913.0	1991.0	1991.0	1946.0	1946.0	1946.0	1957.0	1957.0	1968.0	1968.0	1968.0	2060.0	2060.0	2066.0	2066.0	2066.0	2080.0	2080.0	2044.0	2044.0	2044.0	2089.0	2089.0	2145.0	2145.0	2145.0	2136.0	2136.0	2153.0	2153.0	2153.0	2115.0	2115.0	2137.0	2137.0	2137.0	2154.0	2154.0	2221.0	2221.0	2221.0	2184.0	2184.0	2254.0	2254.0	2254.0	2233.0	2233.0	2224.0	2224.0	2224.0	2226.0	2226.0	2260.0	2260.0	2260.0	2338.0	2338.0	2272.0	2272.0	2272.0	2297.0	2297.0	2325.0	2325.0	2325.0	2343.0	2343.0	2360.0	2360.0	2360.0	2294.0	2294.0	2296.0	2296.0	2296.0	2367.0	2367.0	2376.0	2376.0	2376.0	2317.0	2317.0	2389.0	2389.0	2389.0	2314.0	2314.0	2354.0	2354.0	2354.0	2337.0	2337.0	2379.0	2379.0	2379.0	2405.0	2405.0	2415.0	2415.0	2415.0	2367.0	2367.0	2410.0	2410.0	2410.0	2363.0	2363.0	2343.0	2343.0	2343.0	2366.0	2366.0	2339.0	2339.0	2339.0	2345.0	2345.0	2330.0	2330.0	2330.0	2339.0	2339.0	2316.0	2316.0	2316.0	2399.0	2399.0	2378.0	2378.0	2378.0	2331.0	2331.0	2321.0	2321.0	2321.0	2317.0	2317.0	2352.0	2352.0	2352.0	2380.0	2380.0	2323.0	2323.0	2323.0	2306.0	2306.0	2360.0	2360.0	2360.0	2365.0	2365.0	2337.0	2337.0	2337.0	2362.0	2362.0	2356.0	2356.0	2356.0	2335.0	2335.0	2327.0	2327.0	2327.0	2359.0	2359.0	2287.0	2287.0	2287.0	2348.0	2348.0	2265.0	2265.0	2265.0	2303.0	2303.0	2275.0	2275.0	2275.0	2267.0	2267.0	2329.0	2329.0	2329.0	2330.0	2330.0	2330.0	2330.0	2330.0	2283.0	2283.0	2324.0	2324.0	2324.0	2231.0	2231.0	2306.0	2306.0	2217.0	2217.0	2217.0	2289.0	2289.0	2297.0	2297.0	2297.0	2284.0	2284.0	2235.0	2235.0	2235.0	2277.0	2277.0	2246.0	2246.0	2246.0	2276.0	2276.0	2246.0	2246.0	2246.0	2195.0	2195.0	2268.0	2268.0	2268.0	2191.0	2191.0	2187.0	2187.0	2187.0	2206.0	2206.0	2170.0	2170.0	2170.0	2200.0	2200.0	2244.0	2244.0	2244.0	2182.0	2182.0	2182.0	2182.0	2182.0	2223.0	2223.0	2191.0	2191.0	2191.0	2205.0	2205.0	2158.0	2158.0	2158.0	2153.0	2153.0	2197.0	2197.0	2197.0	2171.0	2171.0	2139.0	2139.0	2139.0	2207.0	2207.0	2143.0	2143.0	2143.0	2157.0	2157.0	2185.0	2185.0	2185.0	2142.0	2142.0	2103.0	2103.0	2103.0	2116.0	2116.0	2185.0	2185.0	2185.0	2107.0	2107.0	2174.0	2174.0	2174.0	2167.0	2167.0	2079.0	2079.0	2079.0	2077.0	2077.0	2112.0	2112.0	2112.0	2084.0	2084.0	2091.0	2091.0	2091.0	2108.0	2108.0	2086.0	2086.0	2086.0	2055.0	2055.0	2127.0	2127.0	2127.0	2051.0	2051.0	2066.0	2066.0	2066.0	2045.0	2045.0	2123.0	2123.0	2123.0	2047.0	2047.0	2095.0	2095.0	2095.0	2060.0	2060.0	2044.0	2044.0	2044.0	2113.0	2113.0	2120.0	2120.0	2120.0	2118.0	2118.0	2046.0	2046.0	2046.0	2103.0	2103.0	2052.0	2052.0	2052.0	2115.0	2115.0	2068.0	2068.0	2068.0	2118.0	2118.0	2092.0	2092.0	2092.0	2077.0	2077.0	2109.0	2109.0	2109.0	2108.0	2108.0	2110.0	2110.0	2110.0	2110.0	2110.0	2052.0	2052.0	2052.0	2037.0	2037.0	2029.0	2029.0	2029.0	2047.0	2047.0	2032.0	2032.0	2032.0	2095.0	2095.0	2114.0	2114.0	2114.0	2108.0	2108.0	2091.0	2091.0	2091.0	2086.0	2086.0	2042.0	2042.0	2042.0	2085.0	2085.0	2112.0	2112.0	2042.0	2042.0	2042.0	2046.0	2046.0	2088.0	2088.0	2088.0	2064.0	2064.0	2023.0	2023.0	2023.0	2088.0	2088.0	2034.0	2034.0	2034.0	2094.0	2094.0	2083.0	2083.0	2083.0	2012.0	2012.0	2012.0	2012.0	2012.0	2064.0	2064.0	2045.0	2045.0	2045.0	2055.0	2055.0	2040.0	2040.0	2040.0	2065.0	2065.0	2050.0	2050.0	2050.0	2010.0	2010.0	2032.0	2032.0	2032.0	2022.0	2022.0	2051.0	2051.0	2051.0	2011.0	2011.0	2068.0	2068.0	2068.0	2011.0	2011.0	1989.0	1989.0	1989.0	2039.0	2039.0	1991.0	1991.0	1991.0	1984.0	1984.0	2031.0	2031.0	2031.0	2026.0	2026.0	1994.0	1994.0	1994.0	1992.0	1992.0	1989.0	1989.0	1989.0	2039.0	2039.0	2041.0	2041.0	2041.0	2032.0	2032.0	2053.0	2053.0	2053.0	1989.0	1989.0	1995.0	1995.0	1995.0	1979.0	1979.0	2032.0	2032.0	2032.0	2018.0	2018.0	1955.0	1955.0	1955.0	1999.0	1999.0	2025.0	2025.0	2025.0	1992.0	1992.0	1941.0	1941.0	1941.0	1977.0	1977.0	2014.0	2014.0	2014.0	1988.0	1988.0	1951.0	1951.0	1951.0	1979.0	1979.0	1975.0	1975.0	1975.0	1971.0	1971.0	1992.0	1992.0	1992.0	1917.0	1917.0	1926.0	1926.0	1926.0	1909.0	1909.0	1989.0	1989.0	1989.0	1964.0	1964.0	1984.0	1984.0	1984.0	1976.0	1976.0	1894.0	1894.0	1894.0	1913.0	1913.0	1969.0	1969.0	1969.0	1951.0	1951.0	1925.0	1925.0	1925.0	1969.0	1969.0	1966.0	1966.0	1966.0	1919.0	1919.0	1951.0	1951.0	1951.0	1897.0	1897.0	1907.0	1907.0	1907.0	1890.0	1890.0	1894.0	1894.0	1894.0	1917.0	1917.0	1912.0	1912.0	1912.0	1906.0	1906.0	1924.0	1924.0	1924.0	1866.0	1866.0	1859.0	1859.0	1866.0	1866.0	1866.0	1918.0	1918.0	1852.0	1852.0	1852.0	1918.0	1918.0	1852.0	1852.0	1852.0	1897.0	1897.0	1842.0	1842.0	1842.0	1892.0	1892.0	1882.0	1882.0	1882.0	1845.0	1845.0	1831.0	1831.0	1831.0	1871.0	1871.0	1893.0	1893.0	1893.0	1865.0	1865.0	1859.0	1859.0	1859.0	1892.0	1892.0	1879.0	1879.0	1879.0	1901.0	1901.0	1825.0	1825.0	1825.0	1816.0	1816.0	1829.0	1829.0	1829.0	1827.0	1827.0	1849.0	1849.0	1849.0	1858.0	1858.0	1828.0	1828.0	1828.0	1897.0	1897.0	1854.0	1854.0	1854.0	1853.0	1853.0	1818.0	1818.0	1818.0	1833.0	1833.0	1830.0	1830.0	1830.0	1891.0	1891.0	1829.0	1829.0	1829.0	1882.0	1882.0	1866.0	1866.0	1866.0	1849.0	1849.0	1867.0	1867.0	1867.0	1878.0	1878.0	1810.0	1810.0	1810.0	1847.0	1847.0	1818.0	1818.0	1818.0	1883.0	1883.0	1816.0	1816.0	1816.0	1867.0	1867.0	1851.0	1851.0	1851.0	1816.0	1816.0	1801.0	1801.0	1801.0	1837.0	1837.0	1803.0	1803.0	1803.0	1807.0	1807.0	1828.0	1828.0	1828.0	1845.0	1845.0	1827.0	1827.0	1827.0	1823.0	1823.0	1876.0	1876.0	1876.0	1876.0	1876.0	1787.0	1787.0	1787.0	1866.0	1866.0	1865.0	1865.0	1865.0	1843.0	1843.0	1837.0	1837.0	1837.0	1798.0	1798.0	1840.0	1840.0	1840.0	1786.0	1786.0	1875.0	1875.0	1875.0	1809.0	1809.0	1785.0	1785.0	1785.0	1829.0	1829.0	1878.0	1878.0	1878.0	1867.0	1867.0	1868.0	1868.0	1868.0	1807.0	1807.0	1870.0	1870.0	1870.0	1822.0	1822.0	1864.0	1864.0	1864.0	1822.0	1822.0	1855.0	1855.0	1855.0	1869.0	1869.0	1858.0	1858.0	1858.0	1841.0	1841.0	1832.0	1832.0	1795.0	1795.0	1795.0	1861.0	1861.0	1824.0	1824.0	1824.0	1801.0	1801.0	1859.0	1859.0	1859.0	1827.0	1827.0	1858.0	1858.0	1858.0	1875.0	1875.0	1793.0	1793.0	1793.0	1792.0	1792.0	1800.0	1800.0	1800.0	1815.0	1815.0	1804.0	1804.0	1804.0	1849.0	1849.0	1803.0	1803.0	1803.0	1846.0	1846.0	1835.0	1835.0	1835.0	1824.0	1824.0	1824.0	1824.0	1824.0	1821.0	1821.0	1835.0	1835.0	1835.0	1816.0	1816.0	1850.0	1850.0	1850.0	1860.0	1860.0	1792.0	1792.0	1792.0	1845.0	1845.0	1870.0	1870.0	1870.0	1796.0	1796.0	1864.0	1864.0	1864.0	1826.0	1826.0	1795.0	1795.0	1795.0	1818.0	1818.0	1868.0	1868.0	1868.0	1870.0	1870.0	1830.0	1830.0	1830.0	1822.0	1822.0	1802.0	1802.0	1802.0	1882.0	1882.0	1867.0	1867.0	1867.0	1793.0	1793.0	1806.0	1806.0	1806.0	1874.0	1874.0	1822.0	1822.0	1822.0	1804.0	1804.0	1848.0	1848.0	1848.0	1862.0	1862.0	1864.0	1864.0	1864.0	1878.0	1878.0	1801.0	1801.0	1801.0	1875.0	1875.0	1875.0	1875.0	1875.0	1805.0	1805.0	1876.0	1876.0	1876.0	1801.0	1801.0	1815.0	1815.0	1815.0	1802.0	1802.0	1805.0	1805.0	1805.0	1867.0	1867.0	1801.0	1801.0	1801.0	1875.0	1875.0	1850.0	1850.0	1850.0	1793.0	1793.0	1872.0	1872.0	1872.0	1833.0	1833.0	1865.0	1865.0	1865.0	1866.0	1866.0	1798.0	1798.0	1798.0	1862.0	1862.0	1811.0	1811.0	1811.0	1798.0	1798.0	1795.0	1795.0	1795.0	1835.0	1835.0	1804.0	1804.0	1804.0	1862.0	1862.0	1793.0	1793.0	1793.0	1831.0	1831.0	1811.0	1811.0	1811.0	1846.0	1846.0	1882.0	1882.0	1882.0	1874.0	1874.0	1871.0	1871.0	1871.0	1868.0	1868.0	1833.0	1833.0	1912.0	1912.0	1912.0	1880.0	1880.0	1932.0	1932.0	1932.0	1933.0	1933.0	1944.0	1944.0	1944.0	1928.0	1928.0	1953.0	1953.0	1953.0	1933.0	1933.0	1942.0	1942.0	1942.0	1991.0	1991.0	1980.0	1980.0	1980.0	2055.0	2055.0	2011.0	2011.0	2011.0	2078.0	2078.0	2070.0	2070.0	2070.0	2140.0	2140.0	2168.0	2168.0	2168.0	2145.0	2145.0	2129.0	2129.0	2129.0	2149.0	2149.0	2227.0	2227.0	2227.0	2224.0	2224.0	2219.0	2219.0	2219.0	2286.0	2286.0	2233.0	2233.0	2233.0	2255.0	2255.0	2333.0	2333.0	2333.0	2271.0	2271.0	2302.0	2302.0	2302.0	2323.0	2323.0	2306.0	2306.0	2306.0	2314.0	2314.0	2337.0	2337.0	2337.0	2365.0	2365.0	2352.0	2352.0	2352.0	2383.0	2383.0	2407.0	2407.0	2407.0	2430.0	2430.0	2407.0	2407.0	2407.0	2346.0	2346.0	2407.0	2407.0	2407.0	2361.0	2361.0	2438.0	2438.0	2438.0	2366.0	2366.0	2424.0	2424.0	2424.0	2424.0	2424.0	2388.0	2388.0	2388.0	2392.0	2392.0	2375.0	2375.0	2375.0	2369.0	2369.0	2414.0	2414.0	2414.0	2381.0	2381.0	2396.0	2396.0	2396.0	2434.0	2434.0	2374.0	2374.0	2374.0	2417.0	2417.0	2371.0	2371.0	2371.0	2352.0	2352.0	2374.0	2374.0	2374.0	2355.0	2355.0	2409.0	2409.0	2409.0	2402.0	2402.0	2348.0	2348.0	2348.0	2357.0	2357.0	2403.0	2403.0	2403.0	2334.0	2334.0	2339.0	2339.0	2339.0	2367.0	2367.0	2392.0	2392.0	2392.0	2397.0	2397.0	2365.0	2365.0	2365.0	2318.0	2318.0	2374.0	2374.0	2374.0	2382.0	2382.0	2391.0	2391.0	2391.0	2372.0	2372.0	2303.0	2303.0	2303.0	2331.0	2331.0	2336.0	2336.0	2336.0	2364.0	2364.0	2300.0	2300.0	2285.0	2285.0	2285.0	2288.0	2288.0	2275.0	2275.0	2275.0	2284.0	2284.0	2308.0	2308.0	2308.0	2295.0	2295.0	2255.0	2255.0	2255.0	2291.0	2291.0	2259.0	2259.0	2259.0	2336.0	2336.0	2251.0	2251.0	2251.0	2267.0	2267.0	2320.0	2320.0	2320.0	2242.0	2242.0	2317.0	2317.0	2317.0	2235.0	2235.0	2313.0	2313.0	2313.0	2301.0	2301.0	2304.0	2304.0	2304.0	2230.0	2230.0	2222.0	2222.0	2222.0	2222.0	2222.0	2221.0	2221.0	2221.0	2289.0	2289.0	2235.0	2235.0	2235.0	2284.0	2284.0	2255.0	2255.0	2255.0	2275.0	2275.0	2270.0	2270.0	2270.0	2230.0	2230.0	2205.0	2205.0	2205.0	2262.0	2262.0	2255.0	2255.0	2255.0	2182.0	2182.0	2186.0	2186.0	2186.0	2232.0	2232.0	2178.0	2178.0	2178.0	2230.0	2230.0	2196.0	2196.0	2196.0	2145.0	2145.0	2222.0	2222.0	2222.0	2211.0	2211.0	2211.0	2211.0	2211.0	2217.0	2217.0	2189.0	2189.0	2189.0	2152.0	2152.0	2127.0	2127.0	2127.0	2158.0	2158.0	2142.0	2142.0	2142.0	2151.0	2151.0	2151.0	2151.0	2151.0	2121.0	2121.0	2114.0	2114.0	2114.0	2130.0	2130.0	2115.0	2115.0	2115.0	2185.0	2185.0	2176.0	2176.0	2176.0	2112.0	2112.0	2175.0	2175.0	2175.0	2125.0	2125.0	2111.0	2111.0	2111.0	2103.0	2103.0	2112.0	2112.0	2112.0	2101.0	2101.0	2185.0	2185.0	2185.0	2175.0	2175.0	2159.0	2159.0	2159.0	2175.0	2175.0	2153.0	2153.0	2153.0	2166.0	2166.0	2157.0	2157.0	2157.0	2151.0	2151.0	2121.0	2121.0	2121.0	2100.0	2100.0	2102.0	2102.0	2102.0	2173.0	2173.0	2166.0	2166.0	2166.0	2159.0	2159.0	2147.0	2147.0	2147.0	2106.0	2106.0	2107.0	2107.0	2107.0	2092.0	2092.0	2089.0	2089.0	2090.0	2090.0	2090.0	2095.0	2095.0	2128.0	2128.0	2128.0	2130.0	2130.0	2164.0	2164.0	2164.0	2081.0	2081.0	2157.0	2157.0	2157.0	2137.0	2137.0	2144.0	2144.0	2144.0	2145.0	2145.0	2140.0	2140.0	2140.0	2126.0	2126.0	2119.0	2119.0	2119.0	2073.0	2073.0	2101.0	2101.0	2101.0	2107.0	2107.0	2077.0	2077.0	2077.0	2091.0	2091.0	2056.0	2056.0	2056.0	2075.0	2075.0	2068.0	2068.0	2068.0	2073.0	2073.0	2086.0	2086.0	2086.0	2082.0	2082.0	2124.0	2124.0	2124.0	2126.0	2126.0	2045.0	2045.0	2045.0	2041.0	2041.0	2039.0	2039.0	2039.0	2069.0	2069.0	2069.0	2069.0	2069.0	2034.0	2034.0	2038.0	2038.0	2038.0	2077.0	2077.0	2057.0	2057.0	2057.0	2094.0	2094.0	2031.0	2031.0	2031.0	2062.0	2062.0	2071.0	2071.0	2071.0	2062.0	2062.0	2044.0	2044.0	2044.0	2083.0	2083.0	2064.0	2064.0	2064.0	2000.0	2000.0	2014.0	2014.0	2014.0	2043.0	2043.0	2007.0	2007.0	2007.0	1983.0	1983.0	2062.0	2062.0	2062.0	2003.0	2003.0	2055.0	2055.0	2055.0	1986.0	1986.0	2048.0	2048.0	2048.0	2049.0	2049.0	1977.0	1977.0	1977.0	1971.0	1971.0	2035.0	2035.0	2035.0	1991.0	1991.0	1984.0	1984.0	1984.0	2012.0	2012.0	2019.0	2019.0	2019.0	1996.0	1996.0	1968.0	1968.0	1968.0	1961.0	1961.0	1968.0	1968.0	1968.0	1969.0	1969.0	1930.0	1930.0	1930.0	1944.0	1944.0	1935.0	1935.0	1935.0	1957.0	1957.0	2008.0	2008.0	2008.0	1971.0	1971.0	1939.0	1939.0	1939.0	1936.0	1936.0	1928.0	1928.0	1928.0	1938.0	1938.0	1966.0	1966.0	1966.0	1985.0	1985.0	1955.0	1955.0	1955.0	1969.0	1969.0	1899.0	1899.0	1937.0	1937.0	1937.0	1931.0	1931.0	1966.0	1966.0	1966.0	1956.0	1956.0	1885.0	1885.0	1885.0	1967.0	1967.0	1946.0	1946.0	1946.0	1915.0	1915.0	1912.0	1912.0	1912.0	1921.0	1921.0	1874.0	1874.0	1874.0	1935.0	1935.0	1917.0	1917.0	1917.0	1948.0	1948.0	1927.0	1927.0	1927.0	1894.0	1894.0	1948.0	1948.0	1948.0	1930.0	1930.0	1863.0	1863.0	1863.0	1880.0	1880.0	1930.0	1930.0	1930.0	1891.0	1891.0	1906.0	1906.0	