1704.0	1704.0	1704.0	1684.0	1684.0	1602.0	1602.0	1602.0	1607.0	1607.0	1562.0	1562.0	1562.0	1582.0	1582.0	1534.0	1534.0	1534.0	1551.0	1551.0	1517.0	1517.0	1517.0	1493.0	1493.0	1531.0	1531.0	1531.0	1507.0	1507.0	1525.0	1525.0	1525.0	1537.0	1537.0	1499.0	1499.0	1499.0	1512.0	1512.0	1536.0	1536.0	1536.0	1511.0	1511.0	1560.0	1560.0	1560.0	1564.0	1564.0	1570.0	1570.0	1570.0	1544.0	1544.0	1538.0	1538.0	1538.0	1536.0	1536.0	1550.0	1550.0	1550.0	1570.0	1570.0	1572.0	1572.0	1572.0	1550.0	1550.0	1541.0	1541.0	1541.0	1588.0	1588.0	1553.0	1553.0	1553.0	1570.0	1570.0	1579.0	1579.0	1579.0	1577.0	1577.0	1587.0	1587.0	1587.0	1598.0	1598.0	1611.0	1611.0	1611.0	1594.0	1594.0	1620.0	1620.0	1620.0	1612.0	1612.0	1575.0	1575.0	1575.0	1621.0	1621.0	1616.0	1616.0	1616.0	1612.0	1612.0	1593.0	1593.0	1593.0	1618.0	1618.0	1584.0	1584.0	1584.0	1593.0	1593.0	1606.0	1606.0	1606.0	1632.0	1632.0	1638.0	1638.0	1638.0	1630.0	1630.0	1642.0	1642.0	1590.0	1590.0	1590.0	1632.0	1632.0	1635.0	1635.0	1635.0	1615.0	1615.0	1655.0	1655.0	1655.0	1632.0	1632.0	1665.0	1665.0	1665.0	1655.0	1655.0	1627.0	1627.0	1627.0	1647.0	1647.0	1622.0	1622.0	1622.0	1664.0	1664.0	1630.0	1630.0	1630.0	1637.0	1637.0	1666.0	1666.0	1666.0	1631.0	1631.0	1630.0	1630.0	1630.0	1635.0	1635.0	1679.0	1679.0	1679.0	1654.0	1654.0	1644.0	1644.0	1644.0	1635.0	1635.0	1639.0	1639.0	1639.0	1649.0	1649.0	1660.0	1660.0	1660.0	1690.0	1690.0	1656.0	1656.0	1656.0	1669.0	1669.0	1653.0	1653.0	1653.0	1691.0	1691.0	1643.0	1643.0	1643.0	1659.0	1659.0	1656.0	1656.0	1656.0	1673.0	1673.0	1662.0	1662.0	1662.0	1652.0	1652.0	1680.0	1680.0	1680.0	1709.0	1709.0	1687.0	1687.0	1687.0	1655.0	1655.0	1709.0	1709.0	1709.0	1671.0	1671.0	1676.0	1676.0	1676.0	1702.0	1702.0	1710.0	1710.0	1710.0	1697.0	1697.0	1703.0	1703.0	1703.0	1703.0	1703.0	1698.0	1698.0	1698.0	1723.0	1723.0	1720.0	1720.0	1720.0	1690.0	1690.0	1727.0	1727.0	1727.0	1738.0	1738.0	1719.0	1719.0	1719.0	1684.0	1684.0	1725.0	1725.0	1725.0	1702.0	1702.0	1679.0	1679.0	1679.0	1699.0	1699.0	1691.0	1691.0	1691.0	1717.0	1717.0	1708.0	1708.0	1708.0	1710.0	1710.0	1693.0	1693.0	1693.0	1684.0	1684.0	1713.0	1713.0	1713.0	1705.0	1705.0	1743.0	1743.0	1743.0	1739.0	1739.0	1749.0	1749.0	1749.0	1696.0	1696.0	1722.0	1722.0	1722.0	1719.0	1719.0	1716.0	1716.0	1716.0	1732.0	1732.0	1705.0	1705.0	1705.0	1728.0	1728.0	1733.0	1733.0	1733.0	1699.0	1699.0	1734.0	1734.0	1734.0	1706.0	1706.0	1746.0	1746.0	1758.0	1758.0	1758.0	1754.0	1754.0	1734.0	1734.0	1734.0	1721.0	1721.0	1762.0	1762.0	1762.0	1749.0	1749.0	1737.0	1737.0	1737.0	1714.0	1714.0	1737.0	1737.0	1737.0	1729.0	1729.0	1743.0	1743.0	1743.0	1737.0	1737.0	1766.0	1766.0	1766.0	1744.0	1744.0	1766.0	1766.0	1766.0	1749.0	1749.0	1769.0	1769.0	1769.0	1782.0	1782.0	1759.0	1759.0	1759.0	1748.0	1748.0	1724.0	1724.0	1724.0	1738.0	1738.0	1765.0	1765.0	1765.0	1751.0	1751.0	1747.0	1747.0	1747.0	1760.0	1760.0	1743.0	1743.0	1743.0	1726.0	1726.0	1730.0	1730.0	1730.0	1735.0	1735.0	1741.0	1741.0	1741.0	1731.0	1731.0	1754.0	1754.0	1754.0	1746.0	1746.0	1747.0	1747.0	1747.0	1745.0	1745.0	1735.0	1735.0	1735.0	1757.0	1757.0	1726.0	1726.0	1726.0	1745.0	1745.0	1782.0	1782.0	1782.0	1789.0	1789.0	1762.0	1762.0	1762.0	1776.0	1776.0	1737.0	1737.0	1737.0	1764.0	1764.0	1784.0	1784.0	1784.0	1764.0	1764.0	1811.0	1811.0	1811.0	1817.0	1817.0	1830.0	1830.0	1830.0	1845.0	1845.0	1843.0	1843.0	1843.0	1812.0	1812.0	1808.0	1808.0	1808.0	1855.0	1855.0	1840.0	1840.0	1840.0	1858.0	1858.0	1870.0	1870.0	1870.0	1885.0	1885.0	1896.0	1896.0	1896.0	1934.0	1934.0	1901.0	1901.0	1901.0	1938.0	1938.0	1910.0	1910.0	1910.0	1969.0	1969.0	1944.0	1944.0	1944.0	1946.0	1946.0	1983.0	1983.0	1983.0	2019.0	2019.0	2003.0	2003.0	2003.0	2013.0	2013.0	1997.0	1997.0	1997.0	2042.0	2042.0	2041.0	2041.0	2041.0	2028.0	2028.0	2049.0	2049.0	2049.0	2046.0	2046.0	2046.0	2046.0	2046.0	2066.0	2066.0	2057.0	2057.0	2076.0	2076.0	2076.0	2095.0	2095.0	2066.0	2066.0	2066.0	2120.0	2120.0	2113.0	2113.0	2113.0	2076.0	2076.0	2082.0	2082.0	2082.0	2077.0	2077.0	2106.0	2106.0	2106.0	2124.0	2124.0	2095.0	2095.0	2095.0	2091.0	2091.0	2097.0	2097.0	2097.0	2111.0	2111.0	2130.0	2130.0	2130.0	2112.0	2112.0	2107.0	2107.0	2107.0	2127.0	2127.0	2115.0	2115.0	2115.0	2152.0	2152.0	2111.0	2111.0	2111.0	2116.0	2116.0	2105.0	2105.0	2105.0	2138.0	2138.0	2139.0	2139.0	2139.0	2142.0	2142.0	2158.0	2158.0	2158.0	2134.0	2134.0	2118.0	2118.0	2118.0	2142.0	2142.0	2144.0	2144.0	2144.0	2136.0	2136.0	2119.0	2119.0	2119.0	2131.0	2131.0	2111.0	2111.0	2111.0	2140.0	2140.0	2115.0	2115.0	2115.0	2133.0	2133.0	2112.0	2112.0	2112.0	2132.0	2132.0	2114.0	2114.0	2114.0	2115.0	2115.0	2112.0	2112.0	2112.0	2150.0	2150.0	2102.0	2102.0	2102.0	2113.0	2113.0	2146.0	2146.0	2146.0	2151.0	2151.0	2141.0	2141.0	2141.0	2148.0	2148.0	2135.0	2135.0	2135.0	2132.0	2132.0	2101.0	2101.0	2101.0	2114.0	2114.0	2119.0	2119.0	2119.0	2109.0	2109.0	2125.0	2125.0	2125.0	2109.0	2109.0	2099.0	2099.0	2099.0	2103.0	2103.0	2111.0	2111.0	2111.0	2130.0	2130.0	2083.0	2083.0	2083.0	2111.0	2111.0	2111.0	2111.0	2111.0	2118.0	2118.0	2118.0	2118.0	2118.0	2107.0	2107.0	2122.0	2122.0	2122.0	2092.0	2092.0	2084.0	2084.0	2084.0	2079.0	2079.0	2086.0	2086.0	2086.0	2091.0	2091.0	2101.0	2101.0	2101.0	2107.0	2107.0	2080.0	2080.0	2080.0	2063.0	2063.0	2075.0	2075.0	2075.0	2055.0	2055.0	2078.0	2078.0	2073.0	2073.0	2073.0	2062.0	2062.0	2082.0	2082.0	2082.0	2057.0	2057.0	2062.0	2062.0	2062.0	2028.0	2028.0	2026.0	2026.0	2026.0	2063.0	2063.0	2019.0	2019.0	2019.0	2035.0	2035.0	2019.0	2019.0	2019.0	2031.0	2031.0	2050.0	2050.0	2050.0	2005.0	2005.0	2009.0	2009.0	2009.0	2031.0	2031.0	2024.0	2024.0	2024.0	2019.0	2019.0	2019.0	2019.0	2019.0	1989.0	1989.0	1981.0	1981.0	1981.0	2039.0	2039.0	1991.0	1991.0	1991.0	2017.0	2017.0	2006.0	2006.0	2006.0	2021.0	2021.0	1986.0	1986.0	1986.0	1964.0	1964.0	1968.0	1968.0	1968.0	1986.0	1986.0	1986.0	1986.0	1986.0	1998.0	1998.0	1981.0	1981.0	1981.0	1989.0	1989.0	1967.0	1967.0	1967.0	1995.0	1995.0	1966.0	1966.0	1966.0	1983.0	1983.0	1978.0	1978.0	1978.0	1990.0	1990.0	1973.0	1973.0	1973.0	1961.0	1961.0	1993.0	1993.0	1993.0	1966.0	1966.0	1965.0	1965.0	1965.0	1965.0	1965.0	1978.0	1978.0	1978.0	1958.0	1958.0	1958.0	1958.0	1958.0	1964.0	1964.0	1970.0	1970.0	1970.0	1994.0	1994.0	1977.0	1977.0	1977.0	1944.0	1944.0	1959.0	1959.0	1959.0	1996.0	1996.0	1955.0	1955.0	1955.0	1975.0	1975.0	1951.0	1951.0	1951.0	1940.0	1940.0	1933.0	1933.0	1933.0	1966.0	1966.0	1950.0	1950.0	1950.0	1999.0	1999.0	1950.0	1950.0	1950.0	1949.0	1949.0	1989.0	1989.0	1989.0	1952.0	1952.0	1977.0	1977.0	1977.0	1955.0	1955.0	1972.0	1972.0	1972.0	1969.0	1969.0	1977.0	1977.0	1977.0	1990.0	1990.0	1953.0	1953.0	1953.0	1985.0	1985.0	1983.0	1983.0	1983.0	1937.0	1937.0	1957.0	1957.0	1957.0	1932.0	1932.0	1969.0	1969.0	1969.0	1962.0	1962.0	1939.0	1939.0	1963.0	1963.0	1963.0	1939.0	1939.0	1931.0	1931.0	1931.0	1967.0	1967.0	1944.0	1944.0	1944.0	1918.0	1918.0	1970.0	1970.0	1970.0	1949.0	1949.0	1946.0	1946.0	1946.0	1952.0	1952.0	1924.0	1924.0	1924.0	1946.0	1946.0	1931.0	1931.0	1931.0	1919.0	1919.0	1942.0	1942.0	1942.0	1905.0	1905.0	1943.0	1943.0	1943.0	1956.0	1956.0	1938.0	1938.0	1938.0	1936.0	1936.0	1934.0	1934.0	1934.0	1930.0	1930.0	1954.0	1954.0	1954.0	1905.0	1905.0	1943.0	1943.0	1943.0	1894.0	1894.0	1940.0	1940.0	1940.0	1917.0	1917.0	1916.0	1916.0	1916.0	1921.0	1921.0	1923.0	1923.0	1923.0	1938.0	1938.0	1895.0	1895.0	1895.0	1902.0	1902.0	1895.0	1895.0	1895.0	1939.0	1939.0	1894.0	1894.0	1894.0	1910.0	1910.0	1908.0	1908.0	1908.0	1882.0	1882.0	1933.0	1933.0	1933.0	1886.0	1886.0	1924.0	1924.0	1924.0	1920.0	1920.0	1889.0	1889.0	1889.0	1928.0	1928.0	1877.0	1877.0	1877.0	1886.0	1886.0	1887.0	1887.0	1887.0	1884.0	1884.0	1879.0	1879.0	1879.0	1872.0	1872.0	1896.0	1896.0	1896.0	1875.0	1875.0	1874.0	1874.0	1874.0	1876.0	1876.0	1901.0	1901.0	1901.0	1876.0	1876.0	1899.0	1899.0	1899.0	1881.0	1881.0	1899.0	1899.0	1899.0	1916.0	1916.0	1904.0	1904.0	1904.0	1917.0	1917.0	1883.0	1883.0	1883.0	1868.0	1868.0	1885.0	1885.0	1885.0	1916.0	1916.0	1870.0	1870.0	1870.0	1903.0	1903.0	1889.0	1889.0	1889.0	1878.0	1878.0	1904.0	1904.0	1904.0	1884.0	1884.0	1914.0	1914.0	1914.0	1880.0	1880.0	1875.0	1875.0	1875.0	1881.0	1881.0	1860.0	1860.0	1860.0	1891.0	1891.0	1892.0	1892.0	1883.0	1883.0	1883.0	1894.0	1894.0	1883.0	1883.0	1883.0	1882.0	1882.0	1889.0	1889.0	1889.0	1887.0	1887.0	1889.0	1889.0	1889.0	1877.0	1877.0	1883.0	1883.0	1883.0	1873.0	1873.0	1905.0	1905.0	1905.0	1906.0	1906.0	1890.0	1890.0	1890.0	1880.0	1880.0	1913.0	1913.0	1913.0	1887.0	1887.0	1909.0	1909.0	1909.0	1889.0	1889.0	1858.0	1858.0	1858.0	1900.0	1900.0	1895.0	1895.0	1895.0	1859.0	1859.0	1904.0	1904.0	1904.0	1901.0	1901.0	1861.0	1861.0	1861.0	1885.0	1885.0	1870.0	1870.0	1870.0	1868.0	1868.0	1872.0	1872.0	1872.0	1863.0	1863.0	1868.0	1868.0	1868.0	1887.0	1887.0	1884.0	1884.0	1884.0	1862.0	1862.0	1885.0	1885.0	1885.0	1868.0	1868.0	1892.0	1892.0	1892.0	1855.0	1855.0	1893.0	1893.0	1893.0	1909.0	1909.0	1894.0	1894.0	1894.0	1880.0	1880.0	1874.0	1874.0	1874.0	1868.0	1868.0	1858.0	1858.0	1858.0	1887.0	1887.0	1872.0	1872.0	1872.0	1857.0	1857.0	1911.0	1911.0	1911.0	1897.0	1897.0	1883.0	1883.0	1883.0	1924.0	1924.0	1928.0	1928.0	1928.0	1908.0	1908.0	1949.0	1949.0	1949.0	1943.0	1943.0	1959.0	1959.0	1959.0	1958.0	1958.0	1941.0	1941.0	1941.0	1941.0	1941.0	1972.0	1972.0	1972.0	1959.0	1959.0	2002.0	2002.0	2002.0	2010.0	2010.0	1983.0	1983.0	1983.0	2003.0	2003.0	2005.0	2005.0	2005.0	2009.0	2009.0	2038.0	2038.0	2038.0	2060.0	2060.0	2090.0	2090.0	2090.0	2066.0	2066.0	2108.0	2108.0	2108.0	2067.0	2067.0	2104.0	2104.0	2104.0	2099.0	2099.0	2112.0	2112.0	2112.0	2109.0	2109.0	2147.0	2147.0	2147.0	2125.0	2125.0	2160.0	2160.0	2151.0	2151.0	2151.0	2129.0	2129.0	2141.0	2141.0	2141.0	2139.0	2139.0	2163.0	2163.0	2163.0	2160.0	2160.0	2162.0	2162.0	2162.0	2165.0	2165.0	2163.0	2163.0	2163.0	2154.0	2154.0	2193.0	2193.0	2193.0	2157.0	2157.0	2172.0	2172.0	2172.0	2205.0	2205.0	2199.0	2199.0	2199.0	2183.0	2183.0	2198.0	2198.0	2198.0	2185.0	2185.0	2185.0	2185.0	2185.0	2200.0	2200.0	2177.0	2177.0	2177.0	2207.0	2207.0	2178.0	2178.0	2178.0	2151.0	2151.0	2165.0	2165.0	2165.0	2179.0	2179.0	2198.0	2198.0	2198.0	2180.0	2180.0	2174.0	2174.0	2174.0	2178.0	2178.0	2178.0	2178.0	2178.0	2185.0	2185.0	2168.0	2168.0	2168.0	2159.0	2159.0	2203.0	2203.0	2203.0	2170.0	2170.0	2182.0	2182.0	2182.0	2211.0	2211.0	2172.0	2172.0	2172.0	2161.0	2161.0	2158.0	2158.0	2158.0	2173.0	2173.0	2172.0	2172.0	2172.0	2195.0	2195.0	2172.0	2172.0	2172.0	2181.0	2181.0	2197.0	2197.0	2197.0	2150.0	2150.0	2190.0	2190.0	2190.0	2151.0	2151.0	2178.0	2178.0	2178.0	2158.0	2158.0	2193.0	2193.0	2193.0	2157.0	2157.0	2157.0	2157.0	2157.0	2138.0	2138.0	2167.0	2167.0	2167.0	2163.0	2163.0	2135.0	2135.0	2135.0	2148.0	2148.0	2162.0	2162.0	2162.0	2174.0	2174.0	2149.0	2149.0	2149.0	2161.0	2161.0	2171.0	2171.0	2171.0	2124.0	2124.0	2164.0	2164.0	2164.0	2162.0	2162.0	2173.0	2173.0	2173.0	2145.0	2145.0	2103.0	2103.0	2103.0	2126.0	2126.0	2123.0	2123.0	2123.0	2139.0	2139.0	2129.0	2129.0	2129.0	2118.0	2118.0	2127.0	2127.0	2127.0	2118.0	2118.0	2092.0	2092.0	2092.0	2096.0	2096.0	2103.0	2103.0	2103.0	2075.0	2075.0	2088.0	2088.0	2076.0	2076.0	2076.0	2105.0	2105.0	2098.0	2098.0	2098.0	2082.0	2082.0	2090.0	2090.0	2090.0	2079.0	2079.0	2065.0	2065.0	2065.0	2057.0	2057.0	2046.0	2046.0	2046.0	2056.0	2056.0	2088.0	2088.0	2088.0	2056.0	2056.0	2071.0	2071.0	2071.0	2043.0	2043.0	2059.0	2059.0	2059.0	2072.0	2072.0	2051.0	2051.0	2051.0	2053.0	2053.0	2071.0	2071.0	2071.0	2062.0	2062.0	2054.0	2054.0	2054.0	2012.0	2012.0	2017.0	2017.0	2017.0	2034.0	2034.0	2008.0	2008.0	2008.0	2033.0	2033.0	2014.0	2014.0	2014.0	2003.0	2003.0	2002.0	2002.0	2002.0	2023.0	2023.0	2056.0	2056.0	2056.0	1997.0	1997.0	2011.0	2011.0	2011.0	2026.0	2026.0	1995.0	1995.0	1995.0	2047.0	2047.0	2023.0	2023.0	2023.0	2037.0	2037.0	2041.0	2041.0	2041.0	2028.0	2028.0	2001.0	2001.0	2001.0	2013.0	2013.0	1991.0	1991.0	1991.0	2001.0	2001.0	2039.0	2039.0	2039.0	2014.0	2014.0	2005.0	2005.0	2005.0	2037.0	2037.0	2038.0	2038.0	2038.0	2035.0	2035.0	2036.0	2036.0	2036.0	2039.0	2039.0	2034.0	2034.0	2034.0	2028.0	2028.0	2024.0	2024.0	2024.0	1986.0	1986.0	2019.0	2019.0	2019.0	2030.0	2030.0	2013.0	2013.0	2013.0	1989.0	1989.0	2017.0	2017.0	2017.0	1983.0	1983.0	1999.0	1999.0	1999.0	2001.0	2001.0	2008.0	2008.0	2008.0	1985.0	1985.0	2018.0	2018.0	2018.0	1988.0	1988.0	1979.0	1979.0	1979.0	1994.0	1994.0	2002.0	2002.0	2002.0	1974.0	1974.0	1984.0	1984.0	1984.0	2022.0	2022.0	1990.0	1990.0	1990.0	1984.0	1984.0	1998.0	1998.0	1998.0	1967.0	1967.0	2000.0	2000.0	2000.0	1957.0	1957.0	1961.0	1961.0	1955.0	1955.0	1955.0	1966.0	1966.0	1982.0	1982.0	1982.0	1947.0	1947.0	2002.0	2002.0	2002.0	1988.0	1988.0	1981.0	1981.0	1981.0	1946.0	1946.0	1967.0	1967.0	1967.0	1972.0	1972.0	1979.0	1979.0	1979.0	1976.0	1976.0	1931.0	1931.0	1931.0	1934.0	1934.0	1963.0	1963.0	1963.0	1946.0	1946.0	1948.0	1948.0	1948.0	1964.0	1964.0	1939.0	1939.0	1939.0	1936.0	1936.0	1978.0	1978.0	1978.0	1962.0	1962.0	1976.0	1976.0	1976.0	1958.0	1958.0	1952.0	1952.0	1952.0	1978.0	1978.0	1933.0	1933.0	1933.0	1947.0	1947.0	1966.0	1966.0	1966.0	1929.0	1929.0	1966.0	1966.0	1966.0	1956.0	1956.0	1935.0	1935.0	1935.0	1927.0	1927.0	1973.0	1973.0	1973.0	1938.0	1938.0	1965.0	1965.0	1965.0	1959.0	1959.0	1943.0	1943.0	1943.0	1956.0	1956.0	1932.0	1932.0	1932.0	1962.0	1962.0	1962.0	1962.0	1962.0	1922.0	1922.0	1946.0	1946.0	1946.0	1943.0	1943.0	1954.0	1954.0	1954.0	1919.0	1919.0	1927.0	1927.0	1927.0	1899.0	1899.0	1956.0	1956.0	1956.0	1933.0	1933.0	1907.0	1907.0	1907.0	1932.0	1932.0	1924.0	1924.0	1924.0	1925.0	1925.0	1928.0	1928.0	1928.0	1947.0	1947.0	1928.0	1928.0	1928.0	1906.0	1906.0	1907.0	1907.0	1907.0	1907.0	1907.0	1930.0	1930.0	1930.0	1948.0	1948.0	1902.0	1902.0	1902.0	1918.0	1918.0	1937.0	1937.0	1937.0	1915.0	1915.0	1918.0	1918.0	1918.0	1925.0	1925.0	1899.0	1899.0	1899.0	1949.0	1949.0	1922.0	1922.0	1922.0	1937.0	1937.0	1923.0	1923.0	1923.0	1921.0	1921.0	1929.0	1929.0	1929.0	1901.0	1901.0	1900.0	1900.0	1900.0	1932.0	1932.0	1938.0	1938.0	1938.0	1924.0	1924.0	1927.0	1927.0	1893.0	1893.0	1893.0	1919.0	1919.0	1908.0	1908.0	1908.0	1934.0	1934.0	1902.0	1902.0	1902.0	1895.0	1895.0	1933.0	1933.0	1933.0	1911.0	1911.0	1895.0	1895.0	1895.0	1927.0	1927.0	1914.0	1914.0	1914.0	1930.0	1930.0	1901.0	1901.0	1901.0	1888.0	1888.0	1918.0	1918.0	1918.0	1889.0	1889.0	1935.0	1935.0	1935.0	1899.0	1899.0	1929.0	1929.0	1929.0	1904.0	1904.0	1925.0	1925.0	1925.0	1901.0	1901.0	1906.0	1906.0	1906.0	1911.0	1911.0	1894.0	1894.0	1894.0	1888.0	1888.0	1893.0	1893.0	1893.0	1915.0	1915.0	1889.0	1889.0	1889.0	1895.0	1895.0	1898.0	1898.0	1898.0	1911.0	1911.0	1902.0	1902.0	1902.0	1875.0	1875.0	1897.0	1897.0	1897.0	1880.0	1880.0	1878.0	1878.0	1878.0	1907.0	1907.0	1903.0	1903.0	1903.0	1889.0	1889.0	1917.0	1917.0	1917.0	1923.0	1923.0	1913.0	1913.0	1913.0	1895.0	1895.0	1887.0	1887.0	1887.0	1930.0	1930.0	1928.0	1928.0	1928.0	1919.0	1919.0	1917.0	1917.0	1917.0	1918.0	1918.0	1925.0	1925.0	1925.0	1954.0	1954.0	