1827.0	1827.0	1738.0	1738.0	1688.0	1688.0	1688.0	1669.0	1669.0	1614.0	1614.0	1614.0	1595.0	1595.0	1625.0	1625.0	1625.0	1622.0	1622.0	1607.0	1607.0	1607.0	1585.0	1585.0	1593.0	1593.0	1593.0	1588.0	1588.0	1587.0	1587.0	1587.0	1591.0	1591.0	1598.0	1598.0	1598.0	1562.0	1562.0	1588.0	1588.0	1588.0	1587.0	1587.0	1600.0	1600.0	1600.0	1559.0	1559.0	1578.0	1578.0	1578.0	1585.0	1585.0	1615.0	1615.0	1615.0	1569.0	1569.0	1606.0	1606.0	1606.0	1617.0	1617.0	1595.0	1595.0	1595.0	1577.0	1577.0	1626.0	1626.0	1626.0	1595.0	1595.0	1646.0	1646.0	1646.0	1633.0	1633.0	1611.0	1611.0	1611.0	1647.0	1647.0	1645.0	1645.0	1645.0	1627.0	1627.0	1633.0	1633.0	1633.0	1638.0	1638.0	1652.0	1652.0	1652.0	1631.0	1631.0	1629.0	1629.0	1629.0	1658.0	1658.0	1639.0	1639.0	1639.0	1675.0	1675.0	1635.0	1635.0	1635.0	1668.0	1668.0	1695.0	1695.0	1695.0	1651.0	1651.0	1667.0	1667.0	1667.0	1689.0	1689.0	1648.0	1648.0	1648.0	1685.0	1685.0	1662.0	1662.0	1662.0	1659.0	1659.0	1671.0	1671.0	1671.0	1683.0	1683.0	1712.0	1712.0	1676.0	1676.0	1676.0	1694.0	1694.0	1674.0	1674.0	1674.0	1686.0	1686.0	1721.0	1721.0	1721.0	1662.0	1662.0	1684.0	1684.0	1684.0	1675.0	1675.0	1725.0	1725.0	1725.0	1693.0	1693.0	1723.0	1723.0	1723.0	1702.0	1702.0	1707.0	1707.0	1707.0	1724.0	1724.0	1687.0	1687.0	1687.0	1724.0	1724.0	1747.0	1747.0	1747.0	1729.0	1729.0	1729.0	1729.0	1729.0	1741.0	1741.0	1738.0	1738.0	1738.0	1717.0	1717.0	1750.0	1750.0	1750.0	1751.0	1751.0	1717.0	1717.0	1717.0	1759.0	1759.0	1749.0	1749.0	1749.0	1742.0	1742.0	1768.0	1768.0	1768.0	1743.0	1743.0	1716.0	1716.0	1716.0	1757.0	1757.0	1751.0	1751.0	1751.0	1714.0	1714.0	1731.0	1731.0	1731.0	1763.0	1763.0	1759.0	1759.0	1759.0	1724.0	1724.0	1729.0	1729.0	1729.0	1758.0	1758.0	1765.0	1765.0	1765.0	1730.0	1730.0	1772.0	1772.0	1772.0	1755.0	1755.0	1762.0	1762.0	1762.0	1779.0	1779.0	1751.0	1751.0	1751.0	1750.0	1750.0	1748.0	1748.0	1748.0	1754.0	1754.0	1753.0	1753.0	1753.0	1739.0	1739.0	1753.0	1753.0	1753.0	1785.0	1785.0	1755.0	1755.0	1755.0	1791.0	1791.0	1751.0	1751.0	1751.0	1772.0	1772.0	1800.0	1800.0	1800.0	1788.0	1788.0	1792.0	1792.0	1792.0	1784.0	1784.0	1781.0	1781.0	1781.0	1778.0	1778.0	1796.0	1796.0	1796.0	1767.0	1767.0	1777.0	1777.0	1777.0	1795.0	1795.0	1804.0	1804.0	1804.0	1771.0	1771.0	1777.0	1777.0	1777.0	1800.0	1800.0	1795.0	1795.0	1795.0	1776.0	1776.0	1785.0	1785.0	1785.0	1813.0	1813.0	1764.0	1764.0	1764.0	1808.0	1808.0	1819.0	1819.0	1819.0	1789.0	1789.0	1813.0	1813.0	1813.0	1807.0	1807.0	1819.0	1819.0	1809.0	1809.0	1809.0	1816.0	1816.0	1769.0	1769.0	1769.0	1793.0	1793.0	1768.0	1768.0	1768.0	1817.0	1817.0	1798.0	1798.0	1798.0	1783.0	1783.0	1822.0	1822.0	1822.0	1828.0	1828.0	1829.0	1829.0	1829.0	1809.0	1809.0	1806.0	1806.0	1806.0	1803.0	1803.0	1821.0	1821.0	1821.0	1844.0	1844.0	1813.0	1813.0	1813.0	1822.0	1822.0	1875.0	1875.0	1875.0	1828.0	1828.0	1867.0	1867.0	1867.0	1841.0	1841.0	1856.0	1856.0	1856.0	1856.0	1856.0	1865.0	1865.0	1865.0	1867.0	1867.0	1885.0	1885.0	1885.0	1904.0	1904.0	1915.0	1915.0	1915.0	1918.0	1918.0	1911.0	1911.0	1911.0	1925.0	1925.0	1943.0	1943.0	1943.0	1937.0	1937.0	1934.0	1934.0	1934.0	1963.0	1963.0	1943.0	1943.0	1943.0	1970.0	1970.0	1943.0	1943.0	1943.0	1946.0	1946.0	1970.0	1970.0	1970.0	1954.0	1954.0	1968.0	1968.0	1968.0	1999.0	1999.0	1998.0	1998.0	1998.0	2017.0	2017.0	2006.0	2006.0	2006.0	1990.0	1990.0	2039.0	2039.0	2039.0	1991.0	1991.0	1999.0	1999.0	1999.0	2010.0	2010.0	2007.0	2007.0	2007.0	2042.0	2042.0	2028.0	2028.0	2028.0	2044.0	2044.0	2026.0	2026.0	2026.0	2008.0	2008.0	2029.0	2029.0	2029.0	2038.0	2038.0	2048.0	2048.0	2048.0	2032.0	2032.0	2060.0	2060.0	2060.0	2034.0	2034.0	2043.0	2043.0	2043.0	2023.0	2023.0	2015.0	2015.0	2015.0	2036.0	2036.0	2024.0	2024.0	2024.0	2043.0	2043.0	2016.0	2016.0	2016.0	2056.0	2056.0	2035.0	2035.0	2035.0	2060.0	2060.0	2049.0	2049.0	2049.0	2020.0	2020.0	2019.0	2019.0	2019.0	2050.0	2050.0	2008.0	2008.0	2008.0	2057.0	2057.0	2022.0	2022.0	2029.0	2029.0	2029.0	2022.0	2022.0	2038.0	2038.0	2038.0	2044.0	2044.0	2028.0	2028.0	2028.0	2018.0	2018.0	2039.0	2039.0	2039.0	2034.0	2034.0	2037.0	2037.0	2037.0	1998.0	1998.0	2025.0	2025.0	2025.0	2007.0	2007.0	2026.0	2026.0	2026.0	2004.0	2004.0	2028.0	2028.0	2028.0	2004.0	2004.0	2022.0	2022.0	2022.0	1997.0	1997.0	2003.0	2003.0	2003.0	1990.0	1990.0	1985.0	1985.0	1985.0	2020.0	2020.0	2029.0	2029.0	2029.0	1994.0	1994.0	2010.0	2010.0	2010.0	1996.0	1996.0	1968.0	1968.0	1968.0	2014.0	2014.0	1968.0	1968.0	1968.0	1966.0	1966.0	1967.0	1967.0	1967.0	1962.0	1962.0	2007.0	2007.0	2007.0	1983.0	1983.0	1957.0	1957.0	1957.0	1989.0	1989.0	2006.0	2006.0	2006.0	1987.0	1987.0	1957.0	1957.0	1957.0	1993.0	1993.0	1949.0	1949.0	1949.0	1955.0	1955.0	1969.0	1969.0	1969.0	1989.0	1989.0	1991.0	1991.0	1991.0	1945.0	1945.0	1974.0	1974.0	1974.0	1976.0	1976.0	1963.0	1963.0	1963.0	1971.0	1971.0	1945.0	1945.0	1945.0	1946.0	1946.0	1960.0	1960.0	1960.0	1962.0	1962.0	1959.0	1959.0	1959.0	1958.0	1958.0	1975.0	1975.0	1975.0	1969.0	1969.0	1968.0	1968.0	1968.0	1958.0	1958.0	1988.0	1988.0	1988.0	1964.0	1964.0	1949.0	1949.0	1949.0	1976.0	1976.0	1976.0	1976.0	1976.0	1954.0	1954.0	1958.0	1958.0	1958.0	1957.0	1957.0	1965.0	1965.0	1965.0	1944.0	1944.0	1955.0	1955.0	1955.0	1949.0	1949.0	1967.0	1967.0	1967.0	1958.0	1958.0	1982.0	1982.0	1982.0	1975.0	1975.0	1986.0	1986.0	1986.0	1986.0	1986.0	1963.0	1963.0	1963.0	1953.0	1953.0	1946.0	1946.0	1968.0	1968.0	1968.0	1974.0	1974.0	1965.0	1965.0	1965.0	1943.0	1943.0	1941.0	1941.0	1941.0	1940.0	1940.0	1961.0	1961.0	1961.0	1963.0	1963.0	1950.0	1950.0	1950.0	1966.0	1966.0	1926.0	1926.0	1926.0	1939.0	1939.0	1947.0	1947.0	1947.0	1949.0	1949.0	1924.0	1924.0	1924.0	1953.0	1953.0	1960.0	1960.0	1960.0	1947.0	1947.0	1947.0	1947.0	1947.0	1956.0	1956.0	1964.0	1964.0	1964.0	1945.0	1945.0	1956.0	1956.0	1956.0	1948.0	1948.0	1963.0	1963.0	1963.0	1952.0	1952.0	1911.0	1911.0	1911.0	1925.0	1925.0	1932.0	1932.0	1932.0	1939.0	1939.0	1934.0	1934.0	1934.0	1964.0	1964.0	1921.0	1921.0	1921.0	1923.0	1923.0	1916.0	1916.0	1916.0	1933.0	1933.0	1939.0	1939.0	1939.0	1958.0	1958.0	1915.0	1915.0	1915.0	1942.0	1942.0	1952.0	1952.0	1952.0	1951.0	1951.0	1936.0	1936.0	1936.0	1966.0	1966.0	1945.0	1945.0	1945.0	1962.0	1962.0	1956.0	1956.0	1956.0	1942.0	1942.0	1928.0	1928.0	1928.0	1923.0	1923.0	1948.0	1948.0	1948.0	1929.0	1929.0	1955.0	1955.0	1955.0	1933.0	1933.0	1937.0	1937.0	1937.0	1951.0	1951.0	1940.0	1940.0	1940.0	1950.0	1950.0	1923.0	1923.0	1923.0	1925.0	1925.0	1929.0	1929.0	1929.0	1914.0	1914.0	1959.0	1959.0	1959.0	1920.0	1920.0	1919.0	1919.0	1919.0	1930.0	1930.0	1924.0	1924.0	1924.0	1925.0	1925.0	1938.0	1938.0	1938.0	1966.0	1966.0	1966.0	1966.0	1966.0	1935.0	1935.0	1912.0	1912.0	1912.0	1931.0	1931.0	1938.0	1938.0	1938.0	1922.0	1922.0	1943.0	1943.0	1943.0	1939.0	1939.0	1923.0	1923.0	1923.0	1907.0	1907.0	1938.0	1938.0	1938.0	1935.0	1935.0	1905.0	1905.0	1956.0	1956.0	1956.0	1911.0	1911.0	1927.0	1927.0	1927.0	1939.0	1939.0	1935.0	1935.0	1935.0	1922.0	1922.0	1944.0	1944.0	1944.0	1915.0	1915.0	1913.0	1913.0	1913.0	1909.0	1909.0	1916.0	1916.0	1916.0	1920.0	1920.0	1899.0	1899.0	1899.0	1946.0	1946.0	1942.0	1942.0	1942.0	1962.0	1962.0	1925.0	1925.0	1925.0	1914.0	1914.0	1925.0	1925.0	1925.0	1914.0	1914.0	1943.0	1943.0	1943.0	1920.0	1920.0	1919.0	1919.0	1919.0	1922.0	1922.0	1935.0	1935.0	1935.0	1948.0	1948.0	1933.0	1933.0	1933.0	1920.0	1920.0	1944.0	1944.0	1944.0	1950.0	1950.0	1985.0	1985.0	1985.0	1952.0	1952.0	1974.0	1974.0	1974.0	1982.0	1982.0	1974.0	1974.0	1974.0	2003.0	2003.0	1966.0	1966.0	1966.0	1978.0	1978.0	1988.0	1988.0	1988.0	2027.0	2027.0	2025.0	2025.0	2025.0	2040.0	2040.0	1998.0	1998.0	1998.0	2004.0	2004.0	2044.0	2044.0	2044.0	2055.0	2055.0	2060.0	2060.0	2060.0	2048.0	2048.0	2038.0	2038.0	2038.0	2053.0	2053.0	2058.0	2058.0	2058.0	2074.0	2074.0	2080.0	2080.0	2080.0	2069.0	2069.0	2059.0	2059.0	2059.0	2069.0	2069.0	2091.0	2091.0	2091.0	2078.0	2078.0	2118.0	2118.0	2118.0	2086.0	2086.0	2100.0	2100.0	2100.0	2102.0	2102.0	2118.0	2118.0	2118.0	2068.0	2068.0	2090.0	2090.0	2090.0	2099.0	2099.0	2110.0	2110.0	2110.0	2124.0	2124.0	2092.0	2092.0	2092.0	2117.0	2117.0	2119.0	2119.0	2119.0	2113.0	2113.0	2118.0	2118.0	2118.0	2092.0	2092.0	2107.0	2107.0	2107.0	2099.0	2099.0	2090.0	2090.0	2090.0	2111.0	2111.0	2089.0	2089.0	2089.0	2111.0	2111.0	2117.0	2117.0	2111.0	2111.0	2111.0	2135.0	2135.0	2094.0	2094.0	2094.0	2107.0	2107.0	2089.0	2089.0	2089.0	2079.0	2079.0	2132.0	2132.0	2132.0	2103.0	2103.0	2118.0	2118.0	2118.0	2087.0	2087.0	2118.0	2118.0	2118.0	2083.0	2083.0	2102.0	2102.0	2102.0	2069.0	2069.0	2091.0	2091.0	2091.0	2070.0	2070.0	2110.0	2110.0	2110.0	2087.0	2087.0	2119.0	2119.0	2119.0	2098.0	2098.0	2109.0	2109.0	2109.0	2058.0	2058.0	2060.0	2060.0	2060.0	2108.0	2108.0	2063.0	2063.0	2063.0	2082.0	2082.0	2084.0	2084.0	2084.0	2066.0	2066.0	2063.0	2063.0	2063.0	2062.0	2062.0	2048.0	2048.0	2048.0	2037.0	2037.0	2076.0	2076.0	2076.0	2067.0	2067.0	2047.0	2047.0	2047.0	2071.0	2071.0	2059.0	2059.0	2059.0	2061.0	2061.0	2038.0	2038.0	2038.0	2033.0	2033.0	2058.0	2058.0	2058.0	2050.0	2050.0	2051.0	2051.0	2051.0	2013.0	2013.0	2028.0	2028.0	2028.0	2030.0	2030.0	2034.0	2034.0	2034.0	1997.0	1997.0	2028.0	2028.0	2028.0	1995.0	1995.0	2037.0	2037.0	2037.0	2011.0	2011.0	2019.0	2019.0	2019.0	2022.0	2022.0	1998.0	1998.0	1998.0	2009.0	2009.0	2007.0	2007.0	2007.0	2000.0	2000.0	2022.0	2022.0	2022.0	1991.0	1991.0	1991.0	1991.0	1991.0	2000.0	2000.0	2015.0	2015.0	2015.0	2022.0	2022.0	2026.0	2026.0	2026.0	1994.0	1994.0	1974.0	1974.0	1974.0	1994.0	1994.0	1969.0	1969.0	1969.0	2014.0	2014.0	2021.0	2021.0	2021.0	1970.0	1970.0	1995.0	1995.0	1995.0	2012.0	2012.0	1986.0	1986.0	1986.0	2001.0	2001.0	2016.0	2016.0	2016.0	1996.0	1996.0	2004.0	2004.0	2004.0	2001.0	2001.0	2012.0	2012.0	2012.0	1993.0	1993.0	1979.0	1979.0	1994.0	1994.0	1994.0	1979.0	1979.0	2013.0	2013.0	2013.0	2008.0	2008.0	1997.0	1997.0	1997.0	1968.0	1968.0	2020.0	2020.0	2020.0	2009.0	2009.0	1967.0	1967.0	1967.0	1975.0	1975.0	1962.0	1962.0	1962.0	1970.0	1970.0	1991.0	1991.0	1991.0	1988.0	1988.0	1990.0	1990.0	1990.0	1966.0	1966.0	1992.0	1992.0	1992.0	1956.0	1956.0	1963.0	1963.0	1963.0	1979.0	1979.0	1975.0	1975.0	1975.0	1953.0	1953.0	1997.0	1997.0	1997.0	1985.0	1985.0	1991.0	1991.0	1991.0	1977.0	1977.0	1973.0	1973.0	1973.0	1991.0	1991.0	1989.0	1989.0	1989.0	1966.0	1966.0	1956.0	1956.0	1956.0	1971.0	1971.0	1966.0	1966.0	1966.0	1993.0	1993.0	1941.0	1941.0	1941.0	1995.0	1995.0	1956.0	1956.0	1956.0	1949.0	1949.0	1937.0	1937.0	1937.0	1935.0	1935.0	1975.0	1975.0	1975.0	1929.0	1929.0	1985.0	1985.0	1985.0	1953.0	1953.0	1979.0	1979.0	1979.0	1964.0	1964.0	1958.0	1958.0	1958.0	1934.0	1934.0	1954.0	1954.0	1954.0	1963.0	1963.0	1933.0	1933.0	1933.0	1956.0	1956.0	1935.0	1935.0	1935.0	1924.0	1924.0	1932.0	1932.0	1932.0	1959.0	1959.0	1959.0	1959.0	1959.0	1952.0	1952.0	1922.0	1922.0	1922.0	1953.0	1953.0	1968.0	1968.0	1968.0	1955.0	1955.0	1948.0	1948.0	1948.0	1923.0	1923.0	1939.0	1939.0	1939.0	1922.0	1922.0	1950.0	1950.0	1950.0	1928.0	1928.0	1922.0	1922.0	1922.0	1923.0	1923.0	1943.0	1943.0	1943.0	1939.0	1939.0	1956.0	1956.0	1956.0	1958.0	1958.0	1920.0	1920.0	1920.0	1942.0	1942.0	1942.0	1942.0	1942.0	1922.0	1922.0	1963.0	1963.0	1963.0	1961.0	1961.0	1933.0	1933.0	1930.0	1930.0	1930.0	1937.0	1937.0	1980.0	1980.0	1980.0	1915.0	1915.0	1967.0	1967.0	1967.0	1949.0	1949.0	1971.0	1971.0	1971.0	1925.0	1925.0	1930.0	1930.0	1930.0	1958.0	1958.0	1934.0	1934.0	1934.0	1917.0	1917.0	1929.0	1929.0	1929.0	1907.0	1907.0	1910.0	1910.0	1910.0	1955.0	1955.0	1922.0	1922.0	1922.0	1911.0	1911.0	1940.0	1940.0	1940.0	1929.0	1929.0	1948.0	1948.0	1948.0	1961.0	1961.0	1948.0	1948.0	1948.0	1922.0	1922.0	1927.0	1927.0	1927.0	1923.0	1923.0	1950.0	1950.0	1950.0	1929.0	1929.0	1953.0	1953.0	1953.0	1908.0	1908.0	1920.0	1920.0	1920.0	1916.0	1916.0	1924.0	1924.0	1924.0	1963.0	1963.0	1964.0	1964.0	1964.0	1954.0	1954.0	1927.0	1927.0	1927.0	1962.0	1962.0	1937.0	1937.0	1937.0	1940.0	1940.0	1963.0	1963.0	1963.0	1921.0	1921.0	1971.0	1971.0	1971.0	1963.0	1963.0	1944.0	1944.0	1944.0	1951.0	1951.0	1951.0	1951.0	1951.0	1973.0	1973.0	1974.0	1974.0	1974.0	1989.0	1989.0	1959.0	1959.0	1959.0	1994.0	1994.0	1978.0	1978.0	1978.0	2016.0	2016.0	1975.0	1975.0	1975.0	2035.0	2035.0	2018.0	2018.0	2018.0	2044.0	2044.0	2044.0	2044.0	2044.0	2007.0	2007.0	2048.0	2048.0	2048.0	2031.0	2031.0	2039.0	2039.0	2039.0	2081.0	2081.0	2052.0	2052.0	2052.0	2044.0	2044.0	2091.0	2091.0	2091.0	2100.0	2100.0	2107.0	2107.0	2107.0	2067.0	2067.0	2109.0	2109.0	2109.0	2118.0	2118.0	2076.0	2076.0	2076.0	2090.0	2090.0	2114.0	2114.0	2114.0	2130.0	2130.0	2099.0	2099.0	2099.0	2083.0	2083.0	2115.0	2115.0	2115.0	2127.0	2127.0	2123.0	2123.0	2097.0	2097.0	2097.0	2144.0	2144.0	2102.0	2102.0	2102.0	2119.0	2119.0	2095.0	2095.0	2095.0	2111.0	2111.0	2127.0	2127.0	2127.0	2115.0	2115.0	2110.0	2110.0	2110.0	2094.0	2094.0	2102.0	2102.0	2102.0	2136.0	2136.0	2108.0	2108.0	2108.0	2114.0	2114.0	2117.0	2117.0	2117.0	2125.0	2125.0	2148.0	2148.0	2148.0	2138.0	2138.0	2138.0	2138.0	2138.0	2132.0	2132.0	2104.0	2104.0	2104.0	2127.0	2127.0	2135.0	2135.0	2135.0	2142.0	2142.0	2111.0	2111.0	2111.0	2121.0	2121.0	2121.0	2121.0	2121.0	2104.0	2104.0	2098.0	2098.0	2098.0	2107.0	2107.0	2096.0	2096.0	2096.0	2139.0	2139.0	2119.0	2119.0	2119.0	2104.0	2104.0	2119.0	2119.0	2119.0	2090.0	2090.0	2096.0	2096.0	2096.0	2111.0	2111.0	2113.0	2113.0	2113.0	2087.0	2087.0	2088.0	2088.0	2088.0	2099.0	2099.0	2114.0	2114.0	2114.0	2118.0	2118.0	2085.0	2085.0	2085.0	2099.0	2099.0	2091.0	2091.0	2091.0	2079.0	2079.0	2092.0	2092.0	2092.0	2076.0	2076.0	2106.0	2106.0	2106.0	2068.0	2068.0	2096.0	2096.0	2096.0	2060.0	2060.0	2057.0	2057.0	2057.0	2058.0	2058.0	2063.0	2063.0	2063.0	2050.0	2050.0	2035.0	2035.0	2035.0	2049.0	2049.0	2020.0	2020.0	2020.0	2041.0	2041.0	2041.0	2041.0	2041.0	2026.0	2026.0	2040.0	2040.0	2040.0	2052.0	2052.0	2021.0	2021.0	2021.0	2028.0	2028.0	2035.0	2035.0	2035.0	2007.0	2007.0	2010.0	2010.0	2010.0	1995.0	1995.0	2007.0	2007.0	2007.0	2043.0	2043.0	2030.0	2030.0	2030.0	1995.0	1995.0	1996.0	1996.0	1996.0	2001.0	2001.0	1999.0	1999.0	1999.0	1975.0	1975.0	2022.0	2022.0	2022.0	1991.0	1991.0	1969.0	1969.0	1989.0	1989.0	1989.0	1998.0	1998.0	1984.0	1984.0	1984.0	1976.0	1976.0	1999.0	1999.0	1999.0	2003.0	2003.0	1998.0	1998.0	1998.0	2007.0	2007.0	1973.0	1973.0	1973.0	2006.0	2006.0	1993.0	1993.0	1993.0	2004.0	2004.0	1978.0	1978.0	1978.0	2011.0	2011.0	1996.0	1996.0	1996.0	2008.0	2008.0	2000.0	2000.0	2000.0	1992.0	1992.0	2007.0	2007.0	2007.0	2016.0	2016.0	2000.0	2000.0	2000.0	1988.0	1988.0	1965.0	1965.0	1965.0	2007.0	2007.0	1993.0	1993.0	1993.0	1972.0	1972.0	1968.0	1968.0	1968.0	2010.0	2010.0	2012.0	2012.0	2012.0	1988.0	1988.0	1947.0	1947.0	1947.0	1997.0	1997.0	1969.0	1969.0	1969.0	1947.0	1947.0	2009.0	2009.0	2009.0	1965.0	1965.0	1953.0	1953.0	1953.0	1952.0	1952.0	1964.0	1964.0	1964.0	1998.0	1998.0	1945.0	1945.0	1945.0	1980.0	1980.0	1969.0	1969.0	1969.0	1941.0	1941.0	1972.0	1972.0	1972.0	1970.0	1970.0	1983.0	1983.0	1983.0	1952.0	1952.0	1955.0	