1784.0	1784.0	1706.0	1706.0	1647.0	1647.0	1647.0	1648.0	1648.0	1612.0	1612.0	1612.0	1568.0	1568.0	1543.0	1543.0	1543.0	1508.0	1508.0	1496.0	1496.0	1496.0	1501.0	1501.0	1486.0	1486.0	1486.0	1467.0	1467.0	1438.0	1438.0	1438.0	1479.0	1479.0	1438.0	1438.0	1438.0	1455.0	1455.0	1429.0	1429.0	1429.0	1476.0	1476.0	1462.0	1462.0	1462.0	1444.0	1444.0	1447.0	1447.0	1447.0	1454.0	1454.0	1476.0	1476.0	1476.0	1465.0	1465.0	1485.0	1485.0	1485.0	1488.0	1488.0	1500.0	1500.0	1500.0	1508.0	1508.0	1455.0	1455.0	1455.0	1451.0	1451.0	1512.0	1512.0	1512.0	1470.0	1470.0	1496.0	1496.0	1496.0	1483.0	1483.0	1517.0	1517.0	1517.0	1524.0	1524.0	1465.0	1465.0	1465.0	1529.0	1529.0	1474.0	1474.0	1474.0	1468.0	1468.0	1478.0	1478.0	1478.0	1478.0	1478.0	1503.0	1503.0	1503.0	1475.0	1475.0	1536.0	1536.0	1536.0	1543.0	1543.0	1528.0	1528.0	1515.0	1515.0	1515.0	1502.0	1502.0	1487.0	1487.0	1487.0	1539.0	1539.0	1540.0	1540.0	1540.0	1511.0	1511.0	1542.0	1542.0	1542.0	1548.0	1548.0	1528.0	1528.0	1528.0	1521.0	1521.0	1536.0	1536.0	1536.0	1530.0	1530.0	1541.0	1541.0	1541.0	1532.0	1532.0	1559.0	1559.0	1559.0	1499.0	1499.0	1558.0	1558.0	1558.0	1564.0	1564.0	1564.0	1564.0	1564.0	1501.0	1501.0	1555.0	1555.0	1555.0	1535.0	1535.0	1542.0	1542.0	1542.0	1536.0	1536.0	1511.0	1511.0	1511.0	1563.0	1563.0	1514.0	1514.0	1514.0	1559.0	1559.0	1520.0	1520.0	1520.0	1554.0	1554.0	1567.0	1567.0	1567.0	1520.0	1520.0	1563.0	1563.0	1563.0	1574.0	1574.0	1563.0	1563.0	1563.0	1545.0	1545.0	1575.0	1575.0	1575.0	1587.0	1587.0	1546.0	1546.0	1546.0	1523.0	1523.0	1546.0	1546.0	1546.0	1587.0	1587.0	1543.0	1543.0	1543.0	1551.0	1551.0	1563.0	1563.0	1563.0	1552.0	1552.0	1606.0	1606.0	1606.0	1563.0	1563.0	1592.0	1592.0	1592.0	1585.0	1585.0	1563.0	1563.0	1563.0	1606.0	1606.0	1562.0	1562.0	1562.0	1567.0	1567.0	1571.0	1571.0	1571.0	1595.0	1595.0	1591.0	1591.0	1591.0	1576.0	1576.0	1603.0	1603.0	1603.0	1593.0	1593.0	1589.0	1589.0	1589.0	1583.0	1583.0	1591.0	1591.0	1591.0	1571.0	1571.0	1598.0	1598.0	1598.0	1617.0	1617.0	1574.0	1574.0	1574.0	1574.0	1574.0	1567.0	1567.0	1567.0	1581.0	1581.0	1585.0	1585.0	1585.0	1605.0	1605.0	1628.0	1628.0	1628.0	1615.0	1615.0	1583.0	1583.0	1583.0	1591.0	1591.0	1619.0	1619.0	1619.0	1619.0	1619.0	1618.0	1618.0	1618.0	1587.0	1587.0	1637.0	1637.0	1637.0	1572.0	1572.0	1627.0	1627.0	1632.0	1632.0	1632.0	1615.0	1615.0	1581.0	1581.0	1581.0	1646.0	1646.0	1591.0	1591.0	1591.0	1606.0	1606.0	1635.0	1635.0	1635.0	1597.0	1597.0	1637.0	1637.0	1637.0	1644.0	1644.0	1597.0	1597.0	1597.0	1642.0	1642.0	1607.0	1607.0	1607.0	1612.0	1612.0	1605.0	1605.0	1605.0	1608.0	1608.0	1600.0	1600.0	1600.0	1606.0	1606.0	1652.0	1652.0	1652.0	1659.0	1659.0	1659.0	1659.0	1659.0	1651.0	1651.0	1599.0	1599.0	1599.0	1653.0	1653.0	1653.0	1653.0	1653.0	1614.0	1614.0	1661.0	1661.0	1661.0	1659.0	1659.0	1667.0	1667.0	1667.0	1670.0	1670.0	1610.0	1610.0	1610.0	1674.0	1674.0	1615.0	1615.0	1615.0	1630.0	1630.0	1678.0	1678.0	1678.0	1631.0	1631.0	1674.0	1674.0	1674.0	1671.0	1671.0	1666.0	1666.0	1666.0	1651.0	1651.0	1629.0	1629.0	1629.0	1624.0	1624.0	1686.0	1686.0	1686.0	1679.0	1679.0	1657.0	1657.0	1657.0	1630.0	1630.0	1686.0	1686.0	1686.0	1629.0	1629.0	1624.0	1624.0	1624.0	1674.0	1674.0	1674.0	1674.0	1674.0	1677.0	1677.0	1687.0	1687.0	1687.0	1692.0	1692.0	1678.0	1678.0	1678.0	1679.0	1679.0	1641.0	1641.0	1641.0	1697.0	1697.0	1682.0	1682.0	1682.0	1686.0	1686.0	1677.0	1677.0	1677.0	1709.0	1709.0	1663.0	1663.0	1663.0	1723.0	1723.0	1713.0	1713.0	1713.0	1723.0	1723.0	1730.0	1730.0	1730.0	1765.0	1765.0	1725.0	1725.0	1725.0	1776.0	1776.0	1797.0	1797.0	1797.0	1788.0	1788.0	1827.0	1827.0	1827.0	1819.0	1819.0	1887.0	1887.0	1887.0	1903.0	1903.0	1886.0	1886.0	1886.0	1887.0	1887.0	1904.0	1904.0	1904.0	1953.0	1953.0	1988.0	1988.0	1982.0	1982.0	1982.0	1998.0	1998.0	2047.0	2047.0	2047.0	2064.0	2064.0	2031.0	2031.0	2031.0	2103.0	2103.0	2095.0	2095.0	2095.0	2128.0	2128.0	2139.0	2139.0	2139.0	2094.0	2094.0	2124.0	2124.0	2124.0	2176.0	2176.0	2176.0	2176.0	2176.0	2170.0	2170.0	2189.0	2189.0	2189.0	2230.0	2230.0	2235.0	2235.0	2235.0	2203.0	2203.0	2239.0	2239.0	2239.0	2275.0	2275.0	2264.0	2264.0	2264.0	2270.0	2270.0	2245.0	2245.0	2245.0	2284.0	2284.0	2311.0	2311.0	2311.0	2288.0	2288.0	2307.0	2307.0	2307.0	2286.0	2286.0	2314.0	2314.0	2314.0	2353.0	2353.0	2359.0	2359.0	2359.0	2318.0	2318.0	2320.0	2320.0	2320.0	2320.0	2320.0	2361.0	2361.0	2361.0	2387.0	2387.0	2378.0	2378.0	2378.0	2400.0	2400.0	2378.0	2378.0	2378.0	2367.0	2367.0	2387.0	2387.0	2387.0	2366.0	2366.0	2412.0	2412.0	2412.0	2405.0	2405.0	2398.0	2398.0	2398.0	2399.0	2399.0	2392.0	2392.0	2392.0	2388.0	2388.0	2407.0	2407.0	2407.0	2411.0	2411.0	2370.0	2370.0	2370.0	2399.0	2399.0	2366.0	2366.0	2366.0	2361.0	2361.0	2408.0	2408.0	2408.0	2418.0	2418.0	2361.0	2361.0	2361.0	2411.0	2411.0	2385.0	2385.0	2385.0	2351.0	2351.0	2392.0	2392.0	2392.0	2390.0	2390.0	2350.0	2350.0	2350.0	2330.0	2330.0	2368.0	2368.0	2368.0	2375.0	2375.0	2318.0	2318.0	2318.0	2355.0	2355.0	2346.0	2346.0	2346.0	2312.0	2312.0	2295.0	2295.0	2295.0	2292.0	2292.0	2344.0	2344.0	2344.0	2302.0	2302.0	2326.0	2326.0	2326.0	2338.0	2338.0	2270.0	2270.0	2270.0	2316.0	2316.0	2294.0	2294.0	2294.0	2300.0	2300.0	2301.0	2301.0	2254.0	2254.0	2254.0	2232.0	2232.0	2250.0	2250.0	2250.0	2211.0	2211.0	2224.0	2224.0	2224.0	2184.0	2184.0	2186.0	2186.0	2186.0	2183.0	2183.0	2233.0	2233.0	2233.0	2215.0	2215.0	2178.0	2178.0	2178.0	2211.0	2211.0	2150.0	2150.0	2150.0	2169.0	2169.0	2136.0	2136.0	2136.0	2165.0	2165.0	2131.0	2131.0	2131.0	2146.0	2146.0	2146.0	2146.0	2146.0	2128.0	2128.0	2121.0	2121.0	2121.0	2109.0	2109.0	2117.0	2117.0	2117.0	2158.0	2158.0	2080.0	2080.0	2080.0	2114.0	2114.0	2118.0	2118.0	2118.0	2113.0	2113.0	2111.0	2111.0	2111.0	2059.0	2059.0	2108.0	2108.0	2108.0	2106.0	2106.0	2100.0	2100.0	2100.0	2035.0	2035.0	2066.0	2066.0	2066.0	2042.0	2042.0	2037.0	2037.0	2037.0	2064.0	2064.0	2028.0	2028.0	2028.0	2061.0	2061.0	2046.0	2046.0	2046.0	2032.0	2032.0	2001.0	2001.0	2001.0	2045.0	2045.0	2028.0	2028.0	2028.0	2039.0	2039.0	1997.0	1997.0	1997.0	2005.0	2005.0	1983.0	1983.0	1983.0	2009.0	2009.0	2003.0	2003.0	2003.0	1981.0	1981.0	1997.0	1997.0	1997.0	1965.0	1965.0	1999.0	1999.0	1999.0	2009.0	2009.0	1964.0	1964.0	1964.0	1954.0	1954.0	2010.0	2010.0	2010.0	2010.0	2010.0	1952.0	1952.0	1952.0	1935.0	1935.0	1984.0	1984.0	1984.0	1928.0	1928.0	1964.0	1964.0	1964.0	1959.0	1959.0	1939.0	1939.0	1939.0	1949.0	1949.0	1966.0	1966.0	1966.0	1964.0	1964.0	1928.0	1928.0	1928.0	1954.0	1954.0	1922.0	1922.0	1922.0	1904.0	1904.0	1960.0	1960.0	1960.0	1935.0	1935.0	1922.0	1922.0	1922.0	1916.0	1916.0	1936.0	1936.0	1936.0	1910.0	1910.0	1893.0	1893.0	1893.0	1936.0	1936.0	1937.0	1937.0	1878.0	1878.0	1878.0	1871.0	1871.0	1930.0	1930.0	1930.0	1887.0	1887.0	1921.0	1921.0	1921.0	1917.0	1917.0	1868.0	1868.0	1868.0	1925.0	1925.0	1915.0	1915.0	1915.0	1913.0	1913.0	1925.0	1925.0	1925.0	1879.0	1879.0	1867.0	1867.0	1867.0	1910.0	1910.0	1881.0	1881.0	1881.0	1883.0	1883.0	1852.0	1852.0	1852.0	1871.0	1871.0	1866.0	1866.0	1866.0	1899.0	1899.0	1891.0	1891.0	1891.0	1845.0	1845.0	1845.0	1845.0	1845.0	1857.0	1857.0	1852.0	1852.0	1852.0	1900.0	1900.0	1866.0	1866.0	1866.0	1854.0	1854.0	1836.0	1836.0	1836.0	1891.0	1891.0	1858.0	1858.0	1858.0	1849.0	1849.0	1878.0	1878.0	1878.0	1821.0	1821.0	1876.0	1876.0	1876.0	1865.0	1865.0	1818.0	1818.0	1818.0	1860.0	1860.0	1814.0	1814.0	1814.0	1821.0	1821.0	1851.0	1851.0	1851.0	1836.0	1836.0	1850.0	1850.0	1850.0	1817.0	1817.0	1813.0	1813.0	1813.0	1865.0	1865.0	1822.0	1822.0	1822.0	1831.0	1831.0	1797.0	1797.0	1797.0	1814.0	1814.0	1823.0	1823.0	1823.0	1805.0	1805.0	1807.0	1807.0	1807.0	1826.0	1826.0	1807.0	1807.0	1807.0	1799.0	1799.0	1795.0	1795.0	1795.0	1828.0	1828.0	1850.0	1850.0	1850.0	1797.0	1797.0	1777.0	1777.0	1777.0	1782.0	1782.0	1837.0	1837.0	1837.0	1782.0	1782.0	1802.0	1802.0	1802.0	1797.0	1797.0	1786.0	1786.0	1786.0	1778.0	1778.0	1800.0	1800.0	1800.0	1843.0	1843.0	1829.0	1829.0	1829.0	1808.0	1808.0	1821.0	1821.0	1821.0	1793.0	1793.0	1771.0	1771.0	1771.0	1783.0	1783.0	1815.0	1815.0	1815.0	1795.0	1795.0	1797.0	1797.0	1797.0	1762.0	1762.0	1811.0	1811.0	1786.0	1786.0	1786.0	1812.0	1812.0	1787.0	1787.0	1787.0	1824.0	1824.0	1808.0	1808.0	1808.0	1776.0	1776.0	1771.0	1771.0	1771.0	1768.0	1768.0	1754.0	1754.0	1754.0	1762.0	1762.0	1755.0	1755.0	1755.0	1741.0	1741.0	1780.0	1780.0	1780.0	1771.0	1771.0	1740.0	1740.0	1740.0	1787.0	1787.0	1747.0	1747.0	1747.0	1794.0	1794.0	1752.0	1752.0	1752.0	1744.0	1744.0	1779.0	1779.0	1779.0	1756.0	1756.0	1780.0	1780.0	1780.0	1778.0	1778.0	1762.0	1762.0	1762.0	1772.0	1772.0	1757.0	1757.0	1757.0	1761.0	1761.0	1727.0	1727.0	1727.0	1790.0	1790.0	1773.0	1773.0	1773.0	1807.0	1807.0	1787.0	1787.0	1787.0	1743.0	1743.0	1794.0	1794.0	1794.0	1776.0	1776.0	1762.0	1762.0	1762.0	1793.0	1793.0	1771.0	1771.0	1771.0	1763.0	1763.0	1784.0	1784.0	1784.0	1798.0	1798.0	1764.0	1764.0	1764.0	1794.0	1794.0	1736.0	1736.0	1736.0	1786.0	1786.0	1736.0	1736.0	1736.0	1786.0	1786.0	1793.0	1793.0	1793.0	1768.0	1768.0	1736.0	1736.0	1736.0	1736.0	1736.0	1729.0	1729.0	1729.0	1741.0	1741.0	1781.0	1781.0	1781.0	1746.0	1746.0	1761.0	1761.0	1761.0	1729.0	1729.0	1798.0	1798.0	1798.0	1786.0	1786.0	1786.0	1786.0	1786.0	1813.0	1813.0	1785.0	1785.0	1785.0	1814.0	1814.0	1784.0	1784.0	1784.0	1817.0	1817.0	1790.0	1790.0	1790.0	1851.0	1851.0	1870.0	1870.0	1870.0	1862.0	1862.0	1843.0	1843.0	1843.0	1862.0	1862.0	1888.0	1888.0	1888.0	1908.0	1908.0	1933.0	1933.0	1933.0	1924.0	1924.0	1969.0	1969.0	1969.0	2022.0	2022.0	1989.0	1989.0	1989.0	1997.0	1997.0	2017.0	2017.0	2017.0	2017.0	2017.0	2076.0	2076.0	2054.0	2054.0	2054.0	2108.0	2108.0	2116.0	2116.0	2116.0	2175.0	2175.0	2126.0	2126.0	2126.0	2166.0	2166.0	2151.0	2151.0	2151.0	2219.0	2219.0	2207.0	2207.0	2207.0	2240.0	2240.0	2200.0	2200.0	2200.0	2206.0	2206.0	2264.0	2264.0	2264.0	2232.0	2232.0	2291.0	2291.0	2291.0	2273.0	2273.0	2292.0	2292.0	2292.0	2266.0	2266.0	2292.0	2292.0	2292.0	2312.0	2312.0	2316.0	2316.0	2316.0	2333.0	2333.0	2346.0	2346.0	2346.0	2342.0	2342.0	2320.0	2320.0	2320.0	2368.0	2368.0	2395.0	2395.0	2395.0	2343.0	2343.0	2393.0	2393.0	2393.0	2407.0	2407.0	2408.0	2408.0	2408.0	2370.0	2370.0	2376.0	2376.0	2376.0	2421.0	2421.0	2440.0	2440.0	2440.0	2410.0	2410.0	2428.0	2428.0	2428.0	2408.0	2408.0	2450.0	2450.0	2450.0	2433.0	2433.0	2394.0	2394.0	2394.0	2433.0	2433.0	2430.0	2430.0	2430.0	2468.0	2468.0	2454.0	2454.0	2454.0	2415.0	2415.0	2413.0	2413.0	2413.0	2467.0	2467.0	2445.0	2445.0	2445.0	2452.0	2452.0	2450.0	2450.0	2450.0	2453.0	2453.0	2451.0	2451.0	2451.0	2458.0	2458.0	2424.0	2424.0	2424.0	2414.0	2414.0	2392.0	2392.0	2392.0	2388.0	2388.0	2446.0	2446.0	2446.0	2394.0	2394.0	2421.0	2421.0	2421.0	2427.0	2427.0	2429.0	2429.0	2429.0	2392.0	2392.0	2387.0	2387.0	2387.0	2385.0	2385.0	2394.0	2394.0	2394.0	2382.0	2382.0	2357.0	2357.0	2357.0	2356.0	2356.0	2345.0	2345.0	2345.0	2346.0	2346.0	2299.0	2299.0	2299.0	2312.0	2312.0	2343.0	2343.0	2343.0	2292.0	2292.0	2291.0	2291.0	2291.0	2326.0	2326.0	2283.0	2283.0	2283.0	2270.0	2270.0	2252.0	2252.0	2304.0	2304.0	2304.0	2256.0	2256.0	2242.0	2242.0	2242.0	2233.0	2233.0	2224.0	2224.0	2224.0	2242.0	2242.0	2208.0	2208.0	2208.0	2240.0	2240.0	2247.0	2247.0	2247.0	2208.0	2208.0	2232.0	2232.0	2232.0	2191.0	2191.0	2188.0	2188.0	2188.0	2187.0	2187.0	2175.0	2175.0	2175.0	2178.0	2178.0	2139.0	2139.0	2139.0	2202.0	2202.0	2190.0	2190.0	2190.0	2186.0	2186.0	2143.0	2143.0	2143.0	2160.0	2160.0	2141.0	2141.0	2141.0	2167.0	2167.0	2163.0	2163.0	2163.0	2122.0	2122.0	2115.0	2115.0	2115.0	2124.0	2124.0	2136.0	2136.0	2136.0	2146.0	2146.0	2123.0	2123.0	2123.0	2149.0	2149.0	2086.0	2086.0	2086.0	2064.0	2064.0	2083.0	2083.0	2083.0	2063.0	2063.0	2074.0	2074.0	2074.0	2062.0	2062.0	2065.0	2065.0	2065.0	2108.0	2108.0	2064.0	2064.0	2064.0	2098.0	2098.0	2087.0	2087.0	2087.0	2040.0	2040.0	2093.0	2093.0	2093.0	2087.0	2087.0	2093.0	2093.0	2093.0	2039.0	2039.0	2048.0	2048.0	2048.0	2031.0	2031.0	2034.0	2034.0	2034.0	2077.0	2077.0	2020.0	2020.0	2020.0	2043.0	2043.0	2011.0	2011.0	2011.0	2038.0	2038.0	2055.0	2055.0	2055.0	2049.0	2049.0	1991.0	1991.0	1991.0	2044.0	2044.0	1987.0	1987.0	1987.0	2050.0	2050.0	2006.0	2006.0	2006.0	1985.0	1985.0	2018.0	2018.0	2018.0	1983.0	1983.0	2025.0	2025.0	2025.0	1979.0	1979.0	1975.0	1975.0	1975.0	2024.0	2024.0	1999.0	1999.0	1999.0	1962.0	1962.0	1997.0	1997.0	1997.0	2018.0	2018.0	1962.0	1962.0	1962.0	1971.0	1971.0	1993.0	1993.0	1993.0	1958.0	1958.0	2001.0	2001.0	2001.0	1990.0	1990.0	1948.0	1948.0	1977.0	1977.0	1977.0	1989.0	1989.0	1965.0	1965.0	1965.0	1950.0	1950.0	1935.0	1935.0	1935.0	1919.0	1919.0	1976.0	1976.0	1976.0	1909.0	1909.0	1967.0	1967.0	1967.0	1972.0	1972.0	1895.0	1895.0	1895.0	1934.0	1934.0	1935.0	1935.0	1935.0	1903.0	1903.0	1900.0	1900.0	1900.0	1944.0	1944.0	1932.0	1932.0	1932.0	1937.0	1937.0	1937.0	1937.0	1937.0	1882.0	1882.0	1924.0	1924.0	1924.0	1938.0	1938.0	1869.0	1869.0	1869.0	1903.0	1903.0	1873.0	1873.0	1873.0	1885.0	1885.0	1867.0	1867.0	1867.0	1880.0	1880.0	1895.0	1895.0	1895.0	1858.0	1858.0	1910.0	1910.0	1910.0	1880.0	1880.0	1878.0	1878.0	1878.0	1906.0	1906.0	1898.0	1898.0	1898.0	1864.0	1864.0	1911.0	1911.0	1911.0	1882.0	1882.0	1884.0	1884.0	1884.0	1907.0	1907.0	1869.0	1869.0	1869.0	1870.0	1870.0	1854.0	1854.0	1854.0	1898.0	1898.0	1835.0	1835.0	1835.0	1883.0	1883.0	1843.0	1843.0	1843.0	1880.0	1880.0	1875.0	1875.0	1875.0	1872.0	1872.0	1828.0	1828.0	1828.0	1883.0	1883.0	1849.0	1849.0	1849.0	1846.0	1846.0	1885.0	1885.0	1885.0	1834.0	1834.0	1842.0	1842.0	1842.0	1854.0	1854.0	1837.0	1837.0	1837.0	1844.0	1844.0	1846.0	1846.0	1846.0	1810.0	1810.0	1862.0	1862.0	1862.0	1879.0	1879.0	1819.0	1819.0	1819.0	1809.0	1809.0	1831.0	1831.0	1831.0	1831.0	1831.0	1841.0	1841.0	1841.0	1814.0	1814.0	1804.0	1804.0	1804.0	1855.0	1855.0	1850.0	1850.0	1850.0	1833.0	1833.0	1854.0	1854.0	1854.0	1850.0	1850.0	1826.0	1826.0	1826.0	1835.0	1835.0	1849.0	1849.0	1849.0	1865.0	1865.0	1844.0	1844.0	1844.0	1807.0	1807.0	1803.0	1803.0	1848.0	1848.0	1848.0	1840.0	1840.0	1863.0	1863.0	1863.0	1797.0	1797.0	1857.0	1857.0	1857.0	1843.0	1843.0	1846.0	1846.0	1846.0	1840.0	1840.0	1843.0	1843.0	1843.0	1848.0	1848.0	1783.0	1783.0	1783.0	1842.0	1842.0	1829.0	1829.0	1829.0	1813.0	1813.0	1785.0	1785.0	1785.0	1795.0	1795.0	1851.0	1851.0	1851.0	1850.0	1850.0	1788.0	1788.0	1788.0	1842.0	1842.0	1779.0	1779.0	1779.0	1800.0	1800.0	1845.0	1845.0	1845.0	1784.0	1784.0	1825.0	1825.0	1825.0	1794.0	1794.0	1821.0	1821.0	1821.0	1782.0	1782.0	1822.0	1822.0	1822.0	1810.0	1810.0	1781.0	1781.0	1781.0	1825.0	1825.0	1842.0	1842.0	1842.0	1805.0	1805.0	1783.0	1783.0	1783.0	1787.0	1787.0	1811.0	1811.0	1811.0	1806.0	1806.0	1774.0	1774.0	1774.0	1824.0	1824.0	1801.0	1801.0	1801.0	1834.0	1834.0	1831.0	1831.0	1831.0	1829.0	1829.0	1777.0	1777.0	1777.0	1826.0	1826.0	1829.0	1829.0	1829.0	1848.0	1848.0	1841.0	1841.0	1841.0	1840.0	1840.0	1823.0	1823.0	1823.0	1839.0	1839.0	1789.0	1789.0	1789.0	1791.0	1791.0	1781.0	1781.0	1781.0	1829.0	1829.0	1774.0	1774.0	1774.0	1817.0	1817.0	1831.0	