2378.0	2379.0	2379.0	2379.0	2378.0	2378.0	2386.0	2386.0	2386.0	2381.0	2381.0	2414.0	2414.0	2414.0	2363.0	2363.0	2360.0	2360.0	2360.0	2377.0	2377.0	2382.0	2382.0	2382.0	2361.0	2361.0	2358.0	2358.0	2358.0	2358.0	2358.0	2340.0	2340.0	2340.0	2339.0	2339.0	2377.0	2377.0	2377.0	2384.0	2384.0	2348.0	2348.0	2348.0	2324.0	2324.0	2306.0	2306.0	2306.0	2331.0	2331.0	2319.0	2319.0	2319.0	2336.0	2336.0	2332.0	2332.0	2332.0	2264.0	2264.0	2317.0	2317.0	2317.0	2253.0	2253.0	2245.0	2245.0	2245.0	2246.0	2246.0	2273.0	2273.0	2273.0	2221.0	2221.0	2274.0	2274.0	2274.0	2201.0	2201.0	2231.0	2231.0	2231.0	2205.0	2205.0	2202.0	2202.0	2202.0	2180.0	2180.0	2204.0	2204.0	2204.0	2223.0	2223.0	2187.0	2187.0	2187.0	2192.0	2192.0	2159.0	2159.0	2159.0	2145.0	2145.0	2185.0	2185.0	2161.0	2161.0	2161.0	2132.0	2132.0	2150.0	2150.0	2150.0	2098.0	2098.0	2101.0	2101.0	2101.0	2134.0	2134.0	2140.0	2140.0	2140.0	2091.0	2091.0	2095.0	2095.0	2095.0	2108.0	2108.0	2094.0	2094.0	2094.0	2104.0	2104.0	2101.0	2101.0	2101.0	2077.0	2077.0	2066.0	2066.0	2066.0	2060.0	2060.0	2049.0	2049.0	2049.0	2071.0	2071.0	2052.0	2052.0	2052.0	2026.0	2026.0	2054.0	2054.0	2054.0	2072.0	2072.0	2042.0	2042.0	2042.0	2019.0	2019.0	2036.0	2036.0	2036.0	2019.0	2019.0	2041.0	2041.0	2041.0	2003.0	2003.0	2007.0	2007.0	2007.0	2015.0	2015.0	2023.0	2023.0	2023.0	1987.0	1987.0	1983.0	1983.0	1983.0	1987.0	1987.0	1966.0	1966.0	1966.0	1980.0	1980.0	2010.0	2010.0	2010.0	1969.0	1969.0	2010.0	2010.0	2010.0	1968.0	1968.0	1945.0	1945.0	1945.0	1974.0	1974.0	1987.0	1987.0	1987.0	1988.0	1988.0	1934.0	1934.0	1934.0	1923.0	1923.0	1968.0	1968.0	1968.0	1933.0	1933.0	1955.0	1955.0	1955.0	1963.0	1963.0	1965.0	1965.0	1965.0	1951.0	1951.0	1919.0	1919.0	1919.0	1938.0	1938.0	1958.0	1958.0	1958.0	1923.0	1923.0	1928.0	1928.0	1928.0	1920.0	1920.0	1891.0	1891.0	1891.0	1930.0	1930.0	1903.0	1903.0	1903.0	1905.0	1905.0	1908.0	1908.0	1908.0	1926.0	1926.0	1929.0	1929.0	1929.0	1876.0	1876.0	1923.0	1923.0	1923.0	1884.0	1884.0	1905.0	1905.0	1905.0	1887.0	1887.0	1916.0	1916.0	1916.0	1920.0	1920.0	1875.0	1875.0	1875.0	1887.0	1887.0	1889.0	1889.0	1889.0	1851.0	1851.0	1895.0	1895.0	1895.0	1876.0	1876.0	1889.0	1889.0	1889.0	1838.0	1838.0	1860.0	1860.0	1860.0	1831.0	1831.0	1869.0	1869.0	1832.0	1832.0	1832.0	1888.0	1888.0	1840.0	1840.0	1840.0	1856.0	1856.0	1837.0	1837.0	1837.0	1826.0	1826.0	1874.0	1874.0	1874.0	1861.0	1861.0	1871.0	1871.0	1871.0	1833.0	1833.0	1855.0	1855.0	1855.0	1868.0	1868.0	1838.0	1838.0	1838.0	1818.0	1818.0	1858.0	1858.0	1858.0	1839.0	1839.0	1839.0	1839.0	1839.0	1830.0	1830.0	1853.0	1853.0	1853.0	1844.0	1844.0	1852.0	1852.0	1852.0	1803.0	1803.0	1843.0	1843.0	1843.0	1793.0	1793.0	1787.0	1787.0	1787.0	1809.0	1809.0	1832.0	1832.0	1832.0	1793.0	1793.0	1820.0	1820.0	1820.0	1830.0	1830.0	1771.0	1771.0	1771.0	1780.0	1780.0	1818.0	1818.0	1818.0	1780.0	1780.0	1823.0	1823.0	1823.0	1777.0	1777.0	1772.0	1772.0	1772.0	1777.0	1777.0	1830.0	1830.0	1830.0	1803.0	1803.0	1816.0	1816.0	1816.0	1755.0	1755.0	1801.0	1801.0	1801.0	1771.0	1771.0	1772.0	1772.0	1772.0	1812.0	1812.0	1799.0	1799.0	1799.0	1799.0	1799.0	1807.0	1807.0	1807.0	1747.0	1747.0	1795.0	1795.0	1795.0	1784.0	1784.0	1794.0	1794.0	1794.0	1753.0	1753.0	1739.0	1739.0	1739.0	1785.0	1785.0	1808.0	1808.0	1808.0	1750.0	1750.0	1799.0	1799.0	1799.0	1780.0	1780.0	1752.0	1752.0	1752.0	1787.0	1787.0	1755.0	1755.0	1755.0	1744.0	1744.0	1784.0	1784.0	1784.0	1786.0	1786.0	1768.0	1768.0	1768.0	1758.0	1758.0	1768.0	1768.0	1768.0	1724.0	1724.0	1753.0	1753.0	1753.0	1730.0	1730.0	1713.0	1713.0	1713.0	1716.0	1716.0	1713.0	1713.0	1713.0	1754.0	1754.0	1709.0	1709.0	1709.0	1710.0	1710.0	1771.0	1771.0	1771.0	1766.0	1766.0	1765.0	1765.0	1738.0	1738.0	1738.0	1712.0	1712.0	1704.0	1704.0	1704.0	1709.0	1709.0	1754.0	1754.0	1754.0	1721.0	1721.0	1707.0	1707.0	1707.0	1753.0	1753.0	1734.0	1734.0	1734.0	1722.0	1722.0	1725.0	1725.0	1725.0	1759.0	1759.0	1750.0	1750.0	1750.0	1692.0	1692.0	1723.0	1723.0	1723.0	1730.0	1730.0	1763.0	1763.0	1763.0	1740.0	1740.0	1751.0	1751.0	1751.0	1710.0	1710.0	1734.0	1734.0	1734.0	1693.0	1693.0	1750.0	1750.0	1750.0	1694.0	1694.0	1722.0	1722.0	1722.0	1701.0	1701.0	1760.0	1760.0	1760.0	1713.0	1713.0	1698.0	1698.0	1698.0	1735.0	1735.0	1736.0	1736.0	1736.0	1695.0	1695.0	1746.0	1746.0	1746.0	1742.0	1742.0	1691.0	1691.0	1691.0	1697.0	1697.0	1685.0	1685.0	1685.0	1688.0	1688.0	1705.0	1705.0	1705.0	1711.0	1711.0	1731.0	1731.0	1731.0	1752.0	1752.0	1737.0	1737.0	1737.0	1715.0	1715.0	1679.0	1679.0	1679.0	1746.0	1746.0	1685.0	1685.0	1685.0	1687.0	1687.0	1720.0	1720.0	1720.0	1722.0	1722.0	1718.0	1718.0	1718.0	1749.0	1749.0	1701.0	1701.0	1701.0	1699.0	1699.0	1759.0	1759.0	1759.0	1716.0	1716.0	1746.0	1746.0	1746.0	1740.0	1740.0	1784.0	1784.0	1784.0	1778.0	1778.0	1758.0	1758.0	1758.0	1788.0	1788.0	1818.0	1818.0	1818.0	1839.0	1839.0	1840.0	1840.0	1840.0	1838.0	1838.0	1854.0	1854.0	1854.0	1909.0	1909.0	1952.0	1952.0	1952.0	1969.0	1969.0	1980.0	1980.0	1980.0	1955.0	1955.0	1966.0	1966.0	1966.0	2035.0	2035.0	2051.0	2051.0	2051.0	2026.0	2026.0	2042.0	2042.0	2042.0	2107.0	2107.0	2097.0	2097.0	2097.0	2086.0	2086.0	2121.0	2121.0	2107.0	2107.0	2107.0	2173.0	2173.0	2133.0	2133.0	2133.0	2198.0	2198.0	2210.0	2210.0	2210.0	2190.0	2190.0	2232.0	2232.0	2232.0	2202.0	2202.0	2272.0	2272.0	2272.0	2261.0	2261.0	2255.0	2255.0	2255.0	2299.0	2299.0	2251.0	2251.0	2251.0	2311.0	2311.0	2327.0	2327.0	2327.0	2283.0	2283.0	2337.0	2337.0	2337.0	2335.0	2335.0	2304.0	2304.0	2304.0	2305.0	2305.0	2317.0	2317.0	2317.0	2332.0	2332.0	2343.0	2343.0	2343.0	2380.0	2380.0	2357.0	2357.0	2357.0	2368.0	2368.0	2345.0	2345.0	2345.0	2391.0	2391.0	2375.0	2375.0	2375.0	2368.0	2368.0	2341.0	2341.0	2341.0	2357.0	2357.0	2364.0	2364.0	2364.0	2400.0	2400.0	2388.0	2388.0	2388.0	2371.0	2371.0	2377.0	2377.0	2377.0	2366.0	2366.0	2422.0	2422.0	2422.0	2374.0	2374.0	2369.0	2369.0	2369.0	2381.0	2381.0	2372.0	2372.0	2372.0	2362.0	2362.0	2420.0	2420.0	2420.0	2406.0	2406.0	2363.0	2363.0	2363.0	2392.0	2392.0	2385.0	2385.0	2385.0	2353.0	2353.0	2364.0	2364.0	2364.0	2385.0	2385.0	2336.0	2336.0	2336.0	2357.0	2357.0	2384.0	2384.0	2384.0	2372.0	2372.0	2347.0	2347.0	2347.0	2354.0	2354.0	2379.0	2379.0	2379.0	2312.0	2312.0	2312.0	2312.0	2312.0	2314.0	2314.0	2339.0	2339.0	2339.0	2334.0	2334.0	2295.0	2295.0	2295.0	2287.0	2287.0	2300.0	2300.0	2300.0	2323.0	2323.0	2275.0	2275.0	2275.0	2276.0	2276.0	2289.0	2289.0	2289.0	2258.0	2258.0	2278.0	2278.0	2278.0	2273.0	2273.0	2220.0	2220.0	2220.0	2247.0	2247.0	2244.0	2244.0	2244.0	2258.0	2258.0	2229.0	2229.0	2229.0	2191.0	2191.0	2206.0	2206.0	2206.0	2205.0	2205.0	2220.0	2220.0	2205.0	2205.0	2205.0	2150.0	2150.0	2168.0	2168.0	2168.0	2187.0	2187.0	2174.0	2174.0	2174.0	2157.0	2157.0	2119.0	2119.0	2119.0	2154.0	2154.0	2154.0	2154.0	2154.0	2126.0	2126.0	2104.0	2104.0	2104.0	2115.0	2115.0	2119.0	2119.0	2119.0	2086.0	2086.0	2108.0	2108.0	2108.0	2063.0	2063.0	2105.0	2105.0	2105.0	2061.0	2061.0	2054.0	2054.0	2054.0	2089.0	2089.0	2048.0	2048.0	2048.0	2056.0	2056.0	2061.0	2061.0	2061.0	2081.0	2081.0	2063.0	2063.0	2063.0	2064.0	2064.0	2019.0	2019.0	2019.0	2044.0	2044.0	2020.0	2020.0	2020.0	2059.0	2059.0	2044.0	2044.0	2044.0	2032.0	2032.0	2028.0	2028.0	2028.0	1999.0	1999.0	1989.0	1989.0	1989.0	2012.0	2012.0	1990.0	1990.0	1990.0	2018.0	2018.0	1964.0	1964.0	1964.0	1953.0	1953.0	2001.0	2001.0	2001.0	1980.0	1980.0	1969.0	1969.0	1969.0	1987.0	1987.0	1961.0	1961.0	1961.0	1957.0	1957.0	1939.0	1939.0	1939.0	1945.0	1945.0	1955.0	1955.0	1955.0	1968.0	1968.0	1985.0	1985.0	1985.0	1971.0	1971.0	1929.0	1929.0	1929.0	1908.0	1908.0	1916.0	1916.0	1916.0	1912.0	1912.0	1930.0	1930.0	1930.0	1955.0	1955.0	1941.0	1941.0	1941.0	1899.0	1899.0	1952.0	1952.0	1952.0	1951.0	1951.0	1898.0	1898.0	1898.0	1902.0	1902.0	1929.0	1929.0	1929.0	1888.0	1888.0	1887.0	1887.0	1887.0	1932.0	1932.0	1908.0	1908.0	1908.0	1891.0	1891.0	1884.0	1884.0	1884.0	1911.0	1911.0	1890.0	1890.0	1890.0	1879.0	1879.0	1880.0	1880.0	1880.0	1874.0	1874.0	1897.0	1897.0	1897.0	1871.0	1871.0	1874.0	1874.0	1874.0	1868.0	1868.0	1850.0	1850.0	1855.0	1855.0	1855.0	1910.0	1910.0	1898.0	1898.0	1898.0	1841.0	1841.0	1861.0	1861.0	1861.0	1873.0	1873.0	1886.0	1886.0	1886.0	1885.0	1885.0	1855.0	1855.0	1855.0	1852.0	1852.0	1864.0	1864.0	1864.0	1827.0	1827.0	1872.0	1872.0	1872.0	1872.0	1872.0	1821.0	1821.0	1821.0	1845.0	1845.0	1856.0	1856.0	1856.0	1847.0	1847.0	1843.0	1843.0	1843.0	1882.0	1882.0	1839.0	1839.0	1839.0	1859.0	1859.0	1822.0	1822.0	1822.0	1861.0	1861.0	1822.0	1822.0	1822.0	1820.0	1820.0	1849.0	1849.0	1849.0	1850.0	1850.0	1815.0	1815.0	1815.0	1826.0	1826.0	1808.0	1808.0	1808.0	1833.0	1833.0	1853.0	1853.0	1853.0	1794.0	1794.0	1849.0	1849.0	1849.0	1818.0	1818.0	1827.0	1827.0	1827.0	1785.0	1785.0	1784.0	1784.0	1784.0	1785.0	1785.0	1798.0	1798.0	1798.0	1791.0	1791.0	1807.0	1807.0	1807.0	1836.0	1836.0	1823.0	1823.0	1823.0	1792.0	1792.0	1835.0	1835.0	1835.0	1772.0	1772.0	1778.0	1778.0	1778.0	1812.0	1812.0	1819.0	1819.0	1819.0	1809.0	1809.0	1812.0	1812.0	1812.0	1798.0	1798.0	1764.0	1764.0	1764.0	1827.0	1827.0	1755.0	1755.0	1755.0	1763.0	1763.0	1783.0	1783.0	1783.0	1788.0	1788.0	1789.0	1789.0	1789.0	1809.0	1809.0	1765.0	1765.0	1765.0	1819.0	1819.0	1805.0	1805.0	1805.0	1803.0	1803.0	1766.0	1766.0	1766.0	1787.0	1787.0	1806.0	1806.0	1806.0	1780.0	1780.0	1818.0	1818.0	1818.0	1758.0	1758.0	1801.0	1801.0	1801.0	1812.0	1812.0	1764.0	1764.0	1764.0	1766.0	1766.0	1803.0	1803.0	1803.0	1754.0	1754.0	1780.0	1780.0	1780.0	1798.0	1798.0	1783.0	1783.0	1760.0	1760.0	1760.0	1766.0	1766.0	1823.0	1823.0	1823.0	1769.0	1769.0	1777.0	1777.0	1777.0	1820.0	1820.0	1771.0	1771.0	1771.0	1770.0	1770.0	1774.0	1774.0	1774.0	1774.0	1774.0	1753.0	1753.0	1753.0	1767.0	1767.0	1766.0	1766.0	1766.0	1762.0	1762.0	1804.0	1804.0	1804.0	1748.0	1748.0	1785.0	1785.0	1785.0	1811.0	1811.0	1811.0	1811.0	1811.0	1748.0	1748.0	1811.0	1811.0	1811.0	1768.0	1768.0	1792.0	1792.0	1792.0	1773.0	1773.0	1772.0	1772.0	1772.0	1791.0	1791.0	1778.0	1778.0	1778.0	1819.0	1819.0	1849.0	1849.0	1849.0	1859.0	1859.0	1829.0	1829.0	1829.0	1838.0	1838.0	1876.0	1876.0	1876.0	1921.0	1921.0	1941.0	1941.0	1941.0	1939.0	1939.0	1923.0	1923.0	1923.0	1951.0	1951.0	1933.0	1933.0	1933.0	1982.0	1982.0	2019.0	2019.0	2019.0	1983.0	1983.0	2033.0	2033.0	2033.0	2027.0	2027.0	2050.0	2050.0	2050.0	2101.0	2101.0	2105.0	2105.0	2105.0	2095.0	2095.0	2090.0	2090.0	2090.0	2115.0	2115.0	2165.0	2165.0	2165.0	2170.0	2170.0	2138.0	2138.0	2138.0	2202.0	2202.0	2182.0	2182.0	2182.0	2203.0	2203.0	2184.0	2184.0	2184.0	2255.0	2255.0	2210.0	2210.0	2210.0	2255.0	2255.0	2232.0	2232.0	2232.0	2259.0	2259.0	2280.0	2280.0	2280.0	2252.0	2252.0	2313.0	2313.0	2313.0	2278.0	2278.0	2269.0	2269.0	2269.0	2291.0	2291.0	2339.0	2339.0	2339.0	2334.0	2334.0	2309.0	2309.0	2309.0	2351.0	2351.0	2347.0	2347.0	2347.0	2328.0	2328.0	2353.0	2353.0	2353.0	2369.0	2369.0	2357.0	2357.0	2357.0	2385.0	2385.0	2383.0	2383.0	2383.0	2359.0	2359.0	2398.0	2398.0	2398.0	2407.0	2407.0	2385.0	2385.0	2393.0	2393.0	2393.0	2361.0	2361.0	2389.0	2389.0	2389.0	2418.0	2418.0	2399.0	2399.0	2399.0	2377.0	2377.0	2398.0	2398.0	2398.0	2424.0	2424.0	2368.0	2368.0	2368.0	2417.0	2417.0	2412.0	2412.0	2412.0	2376.0	2376.0	2377.0	2377.0	2377.0	2400.0	2400.0	2400.0	2400.0	2400.0	2401.0	2401.0	2379.0	2379.0	2379.0	2401.0	2401.0	2396.0	2396.0	2396.0	2345.0	2345.0	2388.0	2388.0	2388.0	2406.0	2406.0	2349.0	2349.0	2349.0	2398.0	2398.0	2367.0	2367.0	2367.0	2347.0	2347.0	2354.0	2354.0	2354.0	2372.0	2372.0	2376.0	2376.0	2376.0	2311.0	2311.0	2307.0	2307.0	2307.0	2354.0	2354.0	2303.0	2303.0	2303.0	2330.0	2330.0	2298.0	2298.0	2298.0	2308.0	2308.0	2316.0	2316.0	2316.0	2304.0	2304.0	2309.0	2309.0	2309.0	2246.0	2246.0	2248.0	2248.0	2248.0	2284.0	2284.0	2219.0	2219.0	2219.0	2214.0	2214.0	2217.0	2217.0	2217.0	2210.0	2210.0	2202.0	2202.0	2202.0	2200.0	2200.0	2251.0	2251.0	2251.0	2193.0	2193.0	2224.0	2224.0	2224.0	2186.0	2186.0	2160.0	2160.0	2160.0	2170.0	2170.0	2187.0	2187.0	2187.0	2188.0	2188.0	2147.0	2147.0	2147.0	2183.0	2183.0	2154.0	2154.0	2154.0	2172.0	2172.0	2124.0	2124.0	2124.0	2148.0	2148.0	2130.0	2130.0	2130.0	2150.0	2150.0	2136.0	2136.0	2136.0	2093.0	2093.0	2129.0	2129.0	2129.0	2097.0	2097.0	2123.0	2123.0	2123.0	2118.0	2118.0	2096.0	2096.0	2096.0	2110.0	2110.0	2115.0	2115.0	2115.0	2073.0	2073.0	2060.0	2060.0	2060.0	2064.0	2064.0	2067.0	2067.0	2067.0	2077.0	2077.0	2038.0	2038.0	2038.0	2073.0	2073.0	2058.0	2058.0	2020.0	2020.0	2020.0	2072.0	2072.0	2051.0	2051.0	2051.0	2018.0	2018.0	2010.0	2010.0	2010.0	2042.0	2042.0	2027.0	2027.0	2027.0	2047.0	2047.0	2050.0	2050.0	2050.0	2041.0	2041.0	1983.0	1983.0	1983.0	2031.0	2031.0	2015.0	2015.0	2015.0	1970.0	1970.0	2019.0	2019.0	2019.0	2007.0	2007.0	2003.0	2003.0	2003.0	1971.0	1971.0	1972.0	1972.0	1972.0	2000.0	2000.0	1963.0	1963.0	1963.0	2003.0	2003.0	1968.0	1968.0	1968.0	1999.0	1999.0	1948.0	1948.0	1948.0	1946.0	1946.0	1976.0	1976.0	1976.0	1979.0	1979.0	1939.0	1939.0	1939.0	1976.0	1976.0	1974.0	1974.0	1974.0	1987.0	1987.0	1959.0	1959.0	1959.0	1970.0	1970.0	1925.0	1925.0	1925.0	1935.0	1935.0	1954.0	1954.0	1954.0	1923.0	1923.0	1964.0	1964.0	1964.0	1925.0	1925.0	1918.0	1918.0	1918.0	1895.0	1895.0	1900.0	1900.0	1900.0	1939.0	1939.0	1903.0	1903.0	1903.0	1907.0	1907.0	1900.0	1900.0	1900.0	1884.0	1884.0	1919.0	1919.0	1919.0	1878.0	1878.0	1880.0	1880.0	1880.0	1888.0	1888.0	1875.0	1875.0	1875.0	1897.0	1897.0	1896.0	1896.0	1896.0	1924.0	1924.0	1916.0	1916.0	1916.0	1890.0	1890.0	1867.0	1867.0	1867.0	1902.0	1902.0	1849.0	1849.0	1849.0	1878.0	1878.0	1899.0	1899.0	1899.0	1847.0	1847.0	1862.0	1862.0	1862.0	1900.0	1900.0	1859.0	1859.0	1859.0	1851.0	1851.0	1891.0	1891.0	1891.0	1830.0	1830.0	1839.0	1839.0	1839.0	1833.0	1833.0	1855.0	1855.0	1855.0	1815.0	1815.0	1867.0	1867.0	1867.0	1823.0	1823.0	1821.0	1821.0	1821.0	1805.0	1805.0	1828.0	1828.0	1828.0	1823.0	1823.0	1828.0	1828.0	1828.0	1807.0	1807.0	1819.0	1819.0	1813.0	1813.0	1813.0	1851.0	1851.0	1808.0	1808.0	1808.0	1790.0	1790.0	1818.0	1818.0	1818.0	1797.0	1797.0	1791.0	1791.0	1791.0	1826.0	1826.0	1793.0	1793.0	1793.0	1798.0	1798.0	1813.0	1813.0	1813.0	1825.0	1825.0	1824.0	1824.0	1824.0	1839.0	1839.0	1825.0	1825.0	1825.0	1785.0	1785.0	1842.0	1842.0	1842.0	1776.0	1776.0	1833.0	1833.0	1833.0	1816.0	1816.0	1793.0	1793.0	1793.0	1795.0	1795.0	1841.0	1841.0	1841.0	1807.0	1807.0	1823.0	1823.0	1823.0	1805.0	1805.0	1803.0	1803.0	1803.0	1808.0	1808.0	1818.0	1818.0	1818.0	1772.0	1772.0	1796.0	1796.0	1796.0	1760.0	1760.0	1789.0	1789.0	1789.0	1817.0	1817.0	1753.0	1753.0	1753.0	1753.0	1753.0	1792.0	1792.0	1792.0	1786.0	1786.0	1801.0	1801.0	1801.0	1781.0	1781.0	1764.0	1764.0	1764.0	1764.0	1764.0	1747.0	1747.0	1747.0	1742.0	1742.0	1744.0	1744.0	1744.0	1756.0	1756.0	1743.0	1743.0	1743.0	1742.0	1742.0	1744.0	1744.0	1744.0	1766.0	1766.0	1761.0	1761.0	1761.0	1752.0	1752.0	1765.0	1765.0	1765.0	1750.0	1750.0	1776.0	1776.0	1776.0	1767.0	1767.0	1778.0	1778.0	1778.0	1795.0	1795.0	1787.0	1787.0	1787.0	1786.0	1786.0	1738.0	1738.0	1738.0	1774.0	