2531.0	2531.0	2502.0	2502.0	2473.0	2473.0	2473.0	2491.0	2491.0	2531.0	2531.0	2531.0	2528.0	2528.0	2460.0	2460.0	2460.0	2504.0	2504.0	2454.0	2454.0	2454.0	2454.0	2454.0	2443.0	2443.0	2443.0	2450.0	2450.0	2515.0	2515.0	2515.0	2441.0	2441.0	2443.0	2443.0	2443.0	2497.0	2497.0	2488.0	2488.0	2488.0	2415.0	2415.0	2456.0	2456.0	2456.0	2444.0	2444.0	2398.0	2398.0	2398.0	2384.0	2384.0	2421.0	2421.0	2421.0	2384.0	2384.0	2435.0	2435.0	2435.0	2390.0	2390.0	2398.0	2398.0	2398.0	2386.0	2386.0	2340.0	2340.0	2340.0	2353.0	2353.0	2391.0	2391.0	2391.0	2386.0	2386.0	2316.0	2316.0	2316.0	2387.0	2387.0	2370.0	2370.0	2370.0	2290.0	2290.0	2293.0	2293.0	2293.0	2338.0	2338.0	2259.0	2259.0	2259.0	2255.0	2255.0	2312.0	2312.0	2312.0	2260.0	2260.0	2258.0	2258.0	2258.0	2229.0	2229.0	2284.0	2284.0	2284.0	2259.0	2259.0	2230.0	2230.0	2230.0	2199.0	2199.0	2189.0	2189.0	2189.0	2210.0	2210.0	2195.0	2195.0	2195.0	2177.0	2177.0	2160.0	2160.0	2160.0	2155.0	2155.0	2160.0	2160.0	2160.0	2219.0	2219.0	2199.0	2199.0	2199.0	2215.0	2215.0	2158.0	2158.0	2158.0	2151.0	2151.0	2123.0	2123.0	2123.0	2189.0	2189.0	2163.0	2163.0	2163.0	2131.0	2131.0	2185.0	2185.0	2185.0	2181.0	2181.0	2107.0	2107.0	2107.0	2161.0	2161.0	2162.0	2162.0	2162.0	2100.0	2100.0	2110.0	2110.0	2107.0	2107.0	2107.0	2096.0	2096.0	2121.0	2121.0	2121.0	2151.0	2151.0	2131.0	2131.0	2131.0	2143.0	2143.0	2143.0	2143.0	2143.0	2078.0	2078.0	2138.0	2138.0	2138.0	2105.0	2105.0	2082.0	2082.0	2082.0	2059.0	2059.0	2127.0	2127.0	2127.0	2053.0	2053.0	2068.0	2068.0	2068.0	2108.0	2108.0	2064.0	2064.0	2064.0	2116.0	2116.0	2116.0	2116.0	2116.0	2054.0	2054.0	2030.0	2030.0	2030.0	2085.0	2085.0	2067.0	2067.0	2067.0	2086.0	2086.0	2057.0	2057.0	2057.0	2074.0	2074.0	2066.0	2066.0	2066.0	2014.0	2014.0	2048.0	2048.0	2048.0	2072.0	2072.0	1989.0	1989.0	1989.0	2012.0	2012.0	2052.0	2052.0	2052.0	1976.0	1976.0	1989.0	1989.0	1989.0	2015.0	2015.0	2038.0	2038.0	2038.0	2047.0	2047.0	1996.0	1996.0	1996.0	1980.0	1980.0	1966.0	1966.0	1966.0	2019.0	2019.0	2016.0	2016.0	2016.0	2018.0	2018.0	2031.0	2031.0	2031.0	2012.0	2012.0	2020.0	2020.0	2020.0	2004.0	2004.0	2018.0	2018.0	2018.0	2002.0	2002.0	1955.0	1955.0	1955.0	2007.0	2007.0	2009.0	2009.0	2009.0	1993.0	1993.0	1965.0	1965.0	1965.0	2007.0	2007.0	1939.0	1939.0	1939.0	1958.0	1958.0	1934.0	1934.0	1934.0	1943.0	1943.0	1918.0	1918.0	1918.0	1937.0	1937.0	1994.0	1994.0	1994.0	1966.0	1966.0	1907.0	1907.0	1907.0	1929.0	1929.0	1911.0	1911.0	1911.0	1910.0	1910.0	1969.0	1969.0	1969.0	1964.0	1964.0	1935.0	1935.0	1935.0	1954.0	1954.0	1962.0	1962.0	1962.0	1948.0	1948.0	1944.0	1944.0	1944.0	1963.0	1963.0	1907.0	1907.0	1907.0	1902.0	1902.0	1879.0	1879.0	1879.0	1898.0	1898.0	1902.0	1902.0	1902.0	1882.0	1882.0	1878.0	1878.0	1870.0	1870.0	1870.0	1907.0	1907.0	1894.0	1894.0	1894.0	1896.0	1896.0	1891.0	1891.0	1891.0	1940.0	1940.0	1920.0	1920.0	1920.0	1875.0	1875.0	1879.0	1879.0	1879.0	1868.0	1868.0	1947.0	1947.0	1947.0	1900.0	1900.0	1896.0	1896.0	1896.0	1902.0	1902.0	1890.0	1890.0	1890.0	1856.0	1856.0	1862.0	1862.0	1862.0	1854.0	1854.0	1882.0	1882.0	1882.0	1914.0	1914.0	1922.0	1922.0	1922.0	1853.0	1853.0	1853.0	1853.0	1853.0	1899.0	1899.0	1869.0	1869.0	1869.0	1921.0	1921.0	1914.0	1914.0	1914.0	1923.0	1923.0	1922.0	1922.0	1922.0	1901.0	1901.0	1857.0	1857.0	1857.0	1891.0	1891.0	1926.0	1926.0	1926.0	1866.0	1866.0	1869.0	1869.0	1869.0	1886.0	1886.0	1839.0	1839.0	1839.0	1841.0	1841.0	1847.0	1847.0	1847.0	1874.0	1874.0	1919.0	1919.0	1919.0	1861.0	1861.0	1909.0	1909.0	1909.0	1848.0	1848.0	1853.0	1853.0	1853.0	1841.0	1841.0	1842.0	1842.0	1842.0	1841.0	1841.0	1861.0	1861.0	1861.0	1862.0	1862.0	1838.0	1838.0	1838.0	1849.0	1849.0	1870.0	1870.0	1870.0	1844.0	1844.0	1902.0	1902.0	1902.0	1879.0	1879.0	1852.0	1852.0	1852.0	1898.0	1898.0	1914.0	1914.0	1914.0	1842.0	1842.0	1837.0	1837.0	1837.0	1853.0	1853.0	1895.0	1895.0	1895.0	1888.0	1888.0	1848.0	1848.0	1848.0	1843.0	1843.0	1832.0	1832.0	1832.0	1903.0	1903.0	1904.0	1904.0	1904.0	1851.0	1851.0	1815.0	1815.0	1815.0	1857.0	1857.0	1887.0	1887.0	1887.0	1886.0	1886.0	1842.0	1842.0	1842.0	1818.0	1818.0	1827.0	1827.0	1827.0	1834.0	1834.0	1856.0	1856.0	1856.0	1827.0	1827.0	1840.0	1840.0	1822.0	1822.0	1822.0	1818.0	1818.0	1850.0	1850.0	1850.0	1858.0	1858.0	1893.0	1893.0	1893.0	1825.0	1825.0	1831.0	1831.0	1831.0	1823.0	1823.0	1880.0	1880.0	1880.0	1907.0	1907.0	1854.0	1854.0	1854.0	1922.0	1922.0	1906.0	1906.0	1906.0	1877.0	1877.0	1943.0	1943.0	1943.0	1959.0	1959.0	1910.0	1910.0	1910.0	1915.0	1915.0	1922.0	1922.0	1922.0	1951.0	1951.0	1972.0	1972.0	1972.0	2021.0	2021.0	1997.0	1997.0	1997.0	2058.0	2058.0	2069.0	2069.0	2069.0	2053.0	2053.0	2142.0	2142.0	2142.0	2092.0	2092.0	2106.0	2106.0	2106.0	2129.0	2129.0	2155.0	2155.0	2155.0	2200.0	2200.0	2187.0	2187.0	2187.0	2278.0	2278.0	2249.0	2249.0	2249.0	2250.0	2250.0	2258.0	2258.0	2258.0	2336.0	2336.0	2284.0	2284.0	2284.0	2324.0	2324.0	2303.0	2303.0	2303.0	2343.0	2343.0	2403.0	2403.0	2403.0	2334.0	2334.0	2376.0	2376.0	2376.0	2363.0	2363.0	2399.0	2399.0	2399.0	2458.0	2458.0	2451.0	2451.0	2451.0	2399.0	2399.0	2482.0	2482.0	2482.0	2416.0	2416.0	2418.0	2418.0	2418.0	2477.0	2477.0	2440.0	2440.0	2440.0	2519.0	2519.0	2469.0	2469.0	2469.0	2479.0	2479.0	2521.0	2521.0	2521.0	2472.0	2472.0	2475.0	2475.0	2475.0	2502.0	2502.0	2536.0	2536.0	2536.0	2495.0	2495.0	2484.0	2484.0	2484.0	2530.0	2530.0	2464.0	2464.0	2464.0	2486.0	2486.0	2540.0	2540.0	2540.0	2519.0	2519.0	2522.0	2522.0	2522.0	2529.0	2529.0	2525.0	2525.0	2525.0	2496.0	2496.0	2549.0	2549.0	2549.0	2470.0	2470.0	2541.0	2541.0	2541.0	2503.0	2503.0	2475.0	2475.0	2475.0	2510.0	2510.0	2542.0	2542.0	2542.0	2521.0	2521.0	2531.0	2531.0	2542.0	2542.0	2542.0	2542.0	2542.0	2538.0	2538.0	2538.0	2456.0	2456.0	2480.0	2480.0	2480.0	2457.0	2457.0	2495.0	2495.0	2495.0	2502.0	2502.0	2472.0	2472.0	2472.0	2443.0	2443.0	2491.0	2491.0	2491.0	2476.0	2476.0	2493.0	2493.0	2493.0	2433.0	2433.0	2422.0	2422.0	2422.0	2484.0	2484.0	2420.0	2420.0	2420.0	2476.0	2476.0	2469.0	2469.0	2469.0	2411.0	2411.0	2472.0	2472.0	2472.0	2424.0	2424.0	2460.0	2460.0	2460.0	2430.0	2430.0	2373.0	2373.0	2373.0	2374.0	2374.0	2362.0	2362.0	2362.0	2428.0	2428.0	2358.0	2358.0	2358.0	2345.0	2345.0	2375.0	2375.0	2375.0	2375.0	2375.0	2327.0	2327.0	2327.0	2360.0	2360.0	2332.0	2332.0	2332.0	2334.0	2334.0	2335.0	2335.0	2335.0	2325.0	2325.0	2352.0	2352.0	2352.0	2268.0	2268.0	2313.0	2313.0	2313.0	2319.0	2319.0	2253.0	2253.0	2253.0	2255.0	2255.0	2286.0	2286.0	2286.0	2226.0	2226.0	2296.0	2296.0	2296.0	2218.0	2218.0	2244.0	2244.0	2244.0	2257.0	2257.0	2193.0	2193.0	2193.0	2174.0	2174.0	2236.0	2236.0	2236.0	2172.0	2172.0	2165.0	2165.0	2165.0	2188.0	2188.0	2220.0	2220.0	2220.0	2143.0	2143.0	2202.0	2202.0	2202.0	2206.0	2206.0	2129.0	2129.0	2129.0	2179.0	2179.0	2190.0	2190.0	2190.0	2112.0	2112.0	2175.0	2175.0	2175.0	2112.0	2112.0	2123.0	2123.0	2123.0	2093.0	2093.0	2151.0	2151.0	2151.0	2142.0	2142.0	2093.0	2093.0	2093.0	2130.0	2130.0	2134.0	2134.0	2134.0	2155.0	2155.0	2128.0	2128.0	2128.0	2070.0	2070.0	2130.0	2130.0	2130.0	2129.0	2129.0	2129.0	2129.0	2129.0	2062.0	2062.0	2059.0	2059.0	2113.0	2113.0	2113.0	2068.0	2068.0	2106.0	2106.0	2106.0	2092.0	2092.0	2111.0	2111.0	2111.0	2108.0	2108.0	2110.0	2110.0	2110.0	2104.0	2104.0	2067.0	2067.0	2067.0	2063.0	2063.0	2019.0	2019.0	2019.0	2057.0	2057.0	2091.0	2091.0	2091.0	2051.0	2051.0	2084.0	2084.0	2084.0	2070.0	2070.0	2082.0	2082.0	2082.0	2083.0	2083.0	2014.0	2014.0	2014.0	2068.0	2068.0	2053.0	2053.0	2053.0	2000.0	2000.0	1988.0	1988.0	1988.0	2056.0	2056.0	2057.0	2057.0	2057.0	2042.0	2042.0	1986.0	1986.0	1986.0	2032.0	2032.0	2023.0	2023.0	2023.0	2032.0	2032.0	1971.0	1971.0	1971.0	2043.0	2043.0	1977.0	1977.0	1977.0	1961.0	1961.0	2022.0	2022.0	2022.0	1996.0	1996.0	1958.0	1958.0	1958.0	1979.0	1979.0	1965.0	1965.0	1965.0	2007.0	2007.0	2025.0	2025.0	2025.0	1981.0	1981.0	2017.0	2017.0	2017.0	1973.0	1973.0	1933.0	1933.0	1933.0	2010.0	2010.0	1943.0	1943.0	1943.0	1971.0	1971.0	1989.0	1989.0	1989.0	1999.0	1999.0	1986.0	1986.0	1986.0	1957.0	1957.0	1975.0	1975.0	1975.0	1990.0	1990.0	1972.0	1972.0	1972.0	1910.0	1910.0	1919.0	1919.0	1919.0	1973.0	1973.0	1940.0	1940.0	1940.0	1918.0	1918.0	1936.0	1936.0	1936.0	1920.0	1920.0	1967.0	1967.0	1967.0	1945.0	1945.0	1889.0	1889.0	1889.0	1969.0	1969.0	1960.0	1960.0	1960.0	1896.0	1896.0	1944.0	1944.0	1944.0	1887.0	1887.0	1928.0	1928.0	1928.0	1915.0	1915.0	1878.0	1878.0	1878.0	1923.0	1923.0	1878.0	1878.0	1878.0	1859.0	1859.0	1891.0	1891.0	1891.0	1942.0	1942.0	1897.0	1897.0	1897.0	1925.0	1925.0	1925.0	1925.0	1866.0	1866.0	1866.0	1918.0	1918.0	1872.0	1872.0	1872.0	1904.0	1904.0	1939.0	1939.0	1939.0	1904.0	1904.0	1915.0	1915.0	1915.0	1870.0	1870.0	1935.0	1935.0	1935.0	1867.0	1867.0	1899.0	1899.0	1899.0	1884.0	1884.0	1866.0	1866.0	1866.0	1927.0	1927.0	1927.0	1927.0	1927.0	1910.0	1910.0	1917.0	1917.0	1917.0	1848.0	1848.0	1848.0	1848.0	1848.0	1911.0	1911.0	1885.0	1885.0	1885.0	1853.0	1853.0	1864.0	1864.0	1864.0	1874.0	1874.0	1905.0	1905.0	1905.0	1865.0	1865.0	1872.0	1872.0	1872.0	1914.0	1914.0	1846.0	1846.0	1846.0	1838.0	1838.0	1836.0	1836.0	1836.0	1828.0	1828.0	1851.0	1851.0	1851.0	1819.0	1819.0	1836.0	1836.0	1836.0	1823.0	1823.0	1850.0	1850.0	1850.0	1867.0	1867.0	1835.0	1835.0	1835.0	1873.0	1873.0	1892.0	1892.0	1892.0	1843.0	1843.0	1897.0	1897.0	1897.0	1820.0	1820.0	1817.0	1817.0	1817.0	1821.0	1821.0	1839.0	1839.0	1839.0	1837.0	1837.0	1889.0	1889.0	1889.0	1856.0	1856.0	1857.0	1857.0	1857.0	1814.0	1814.0	1797.0	1797.0	1797.0	1808.0	1808.0	1832.0	1832.0	1832.0	1838.0	1838.0	1860.0	1860.0	1860.0	1797.0	1797.0	1799.0	1799.0	1799.0	1792.0	1792.0	1822.0	1822.0	1822.0	1799.0	1799.0	1855.0	1855.0	1855.0	1815.0	1815.0	1840.0	1840.0	1840.0	1837.0	1837.0	1856.0	1856.0	1856.0	1838.0	1838.0	1800.0	1800.0	1800.0	1835.0	1835.0	1850.0	1850.0	1850.0	1842.0	1842.0	1814.0	1814.0	1814.0	1819.0	1819.0	1787.0	1787.0	1787.0	1795.0	1795.0	1821.0	1821.0	1821.0	1860.0	1860.0	1860.0	1860.0	1860.0	1816.0	1816.0	1830.0	1830.0	1830.0	1888.0	1888.0	1850.0	1850.0	1889.0	1889.0	1889.0	1941.0	1941.0	1962.0	1962.0	1962.0	1927.0	1927.0	1984.0	1984.0	1984.0	2015.0	2015.0	1981.0	1981.0	1981.0	2012.0	2012.0	2035.0	2035.0	2035.0	2052.0	2052.0	2118.0	2118.0	2118.0	2082.0	2082.0	2122.0	2122.0	2122.0	2127.0	2127.0	2178.0	2178.0	2178.0	2209.0	2209.0	2233.0	2233.0	2233.0	2255.0	2255.0	2259.0	2259.0	2259.0	2232.0	2232.0	2279.0	2279.0	2279.0	2263.0	2263.0	2320.0	2320.0	2320.0	2279.0	2279.0	2303.0	2303.0	2303.0	2319.0	2319.0	2314.0	2314.0	2314.0	2381.0	2381.0	2382.0	2382.0	2382.0	2427.0	2427.0	2385.0	2385.0	2385.0	2386.0	2386.0	2457.0	2457.0	2457.0	2449.0	2449.0	2434.0	2434.0	2434.0	2402.0	2402.0	2402.0	2402.0	2402.0	2453.0	2453.0	2417.0	2417.0	2417.0	2444.0	2444.0	2484.0	2484.0	2484.0	2468.0	2468.0	2431.0	2431.0	2431.0	2467.0	2467.0	2479.0	2479.0	2479.0	2487.0	2487.0	2499.0	2499.0	2499.0	2440.0	2440.0	2452.0	2452.0	2452.0	2462.0	2462.0	2522.0	2522.0	2522.0	2457.0	2457.0	2482.0	2482.0	2482.0	2480.0	2480.0	2508.0	2508.0	2508.0	2494.0	2494.0	2483.0	2483.0	2483.0	2513.0	2513.0	2517.0	2517.0	2517.0	2510.0	2510.0	2507.0	2507.0	2507.0	2500.0	2500.0	2438.0	2438.0	2438.0	2504.0	2504.0	2440.0	2440.0	2440.0	2489.0	2489.0	2448.0	2448.0	2448.0	2482.0	2482.0	2486.0	2486.0	2486.0	2480.0	2480.0	2419.0	2419.0	2419.0	2445.0	2445.0	2485.0	2485.0	2485.0	2408.0	2408.0	2453.0	2453.0	2453.0	2432.0	2432.0	2465.0	2465.0	2465.0	2410.0	2410.0	2445.0	2445.0	2445.0	2446.0	2446.0	2443.0	2443.0	2437.0	2437.0	2437.0	2398.0	2398.0	2441.0	2441.0	2441.0	2392.0	2392.0	2422.0	2422.0	2422.0	2374.0	2374.0	2420.0	2420.0	2420.0	2381.0	2381.0	2386.0	2386.0	2386.0	2364.0	2364.0	2395.0	2395.0	2395.0	2320.0	2320.0	2390.0	2390.0	2390.0	2387.0	2387.0	2376.0	2376.0	2376.0	2303.0	2303.0	2329.0	2329.0	2329.0	2283.0	2283.0	2341.0	2341.0	2341.0	2313.0	2313.0	2287.0	2287.0	2287.0	2300.0	2300.0	2318.0	2318.0	2318.0	2296.0	2296.0	2305.0	2305.0	2305.0	2261.0	2261.0	2270.0	2270.0	2270.0	2205.0	2205.0	2209.0	2209.0	2209.0	2196.0	2196.0	2251.0	2251.0	2251.0	2203.0	2203.0	2170.0	2170.0	2170.0	2233.0	2233.0	2218.0	2218.0	2218.0	2158.0	2158.0	2193.0	2193.0	2193.0	2140.0	2140.0	2152.0	2152.0	2152.0	2151.0	2151.0	2182.0	2182.0	2182.0	2188.0	2188.0	2195.0	2195.0	2195.0	2193.0	2193.0	2147.0	2147.0	2147.0	2115.0	2115.0	2115.0	2115.0	2115.0	2107.0	2107.0	2115.0	2115.0	2115.0	2156.0	2156.0	2095.0	2095.0	2095.0	2090.0	2090.0	2107.0	2107.0	2107.0	2076.0	2076.0	2155.0	2155.0	2155.0	2149.0	2149.0	2095.0	2095.0	2095.0	2128.0	2128.0	2101.0	2101.0	2101.0	2134.0	2134.0	2082.0	2082.0	2082.0	2072.0	2072.0	2137.0	2137.0	2137.0	2094.0	2094.0	2058.0	2058.0	2058.0	2063.0	2063.0	2092.0	2092.0	2092.0	2056.0	2056.0	2123.0	2123.0	2123.0	2112.0	2112.0	2097.0	2097.0	2097.0	2115.0	2115.0	2111.0	2111.0	2111.0	2097.0	2097.0	2069.0	2069.0	2069.0	2057.0	2057.0	2101.0	2101.0	2101.0	2099.0	2099.0	2040.0	2040.0	2040.0	2083.0	2083.0	2011.0	2011.0	2009.0	2009.0	2009.0	2042.0	2042.0	1999.0	1999.0	1999.0	2046.0	2046.0	2015.0	2015.0	2015.0	1992.0	1992.0	1990.0	1990.0	1990.0	1988.0	1988.0	2065.0	2065.0	2065.0	1984.0	1984.0	2039.0	2039.0	2039.0	1978.0	1978.0	2046.0	2046.0	2046.0	2035.0	2035.0	1980.0	1980.0	1980.0	2011.0	2011.0	2016.0	2016.0	2016.0	1966.0	1966.0	1966.0	1966.0	1966.0	2023.0	2023.0	2028.0	2028.0	2028.0	1982.0	1982.0	2018.0	2018.0	2018.0	2023.0	2023.0	1961.0	1961.0	1961.0	1953.0	1953.0	2013.0	2013.0	2013.0	2002.0	2002.0	1982.0	1982.0	1982.0	1988.0	1988.0	1934.0	1934.0	1934.0	1928.0	1928.0	1959.0	1959.0	1959.0	1934.0	1934.0	2004.0	2004.0	2004.0	1968.0	1968.0	1983.0	1983.0	1983.0	1960.0	1960.0	1932.0	1932.0	1932.0	1989.0	1989.0	1911.0	1911.0	1911.0	1977.0	1977.0	1924.0	1924.0	1924.0	1901.0	1901.0	1955.0	1955.0	1955.0	1903.0	1903.0	1958.0	1958.0	1958.0	1965.0	1965.0	1942.0	1942.0	1942.0	1888.0	1888.0	1910.0	1910.0	1910.0	1926.0	1926.0	1911.0	1911.0	1911.0	1894.0	1894.0	1876.0	1876.0	1876.0	1900.0	1900.0	1880.0	1880.0	1880.0	1878.0	1878.0	1896.0	1896.0	1896.0	1868.0	1868.0	1863.0	1863.0	1863.0	1946.0	1946.0	1920.0	1920.0	1920.0	1878.0	1878.0	1857.0	1857.0	1857.0	1858.0	1858.0	1879.0	1879.0	1879.0	1857.0	1857.0	1854.0	1854.0	1854.0	1861.0	1861.0	1856.0	1856.0	1856.0	1844.0	1844.0	1846.0	1846.0	1846.0	1868.0	1868.0	1870.0	1870.0	1870.0	1898.0	1898.0	1903.0	1903.0	1903.0	1860.0	1860.0	1909.0	1909.0	1909.0	1918.0	1918.0	1907.0	1907.0	1907.0	1876.0	1876.0	1839.0	1839.0	1839.0	1839.0	1839.0	1889.0	1889.0	1836.0	1836.0	1836.0	1833.0	1833.0	1884.0	1884.0	1884.0	1834.0	1834.0	1829.0	1829.0	1829.0	1840.0	1840.0	1888.0	1888.0	1888.0	1846.0	1846.0	1902.0	1902.0	1902.0	1856.0	1856.0	1851.0	1851.0	1851.0	1845.0	1845.0	1835.0	1835.0	1835.0	1901.0	1901.0	1875.0	1875.0	1875.0	1838.0	1838.0	1892.0	1892.0	1892.0	1836.0	1836.0	1859.0	1859.0	1859.0	1827.0	1827.0	1879.0	1879.0	1879.0	1875.0	1875.0	1879.0	1879.0	1879.0	1868.0	1868.0	1872.0	1872.0	1872.0	1825.0	1825.0	1836.0	1836.0	1836.0	1856.0	1856.0	1867.0	1867.0	1867.0	1843.0	1843.0	1867.0	1867.0	1867.0	1876.0	1876.0	1839.0	