2017.0	2017.0	2017.0	1979.0	1979.0	2007.0	2007.0	2007.0	1977.0	1977.0	1956.0	1956.0	1956.0	2019.0	2019.0	2016.0	2016.0	2016.0	1949.0	1949.0	1988.0	1988.0	1988.0	1973.0	1973.0	1966.0	1966.0	1966.0	1938.0	1938.0	2000.0	2000.0	2000.0	1990.0	1990.0	2007.0	2007.0	2007.0	1982.0	1982.0	1957.0	1957.0	1957.0	1929.0	1929.0	1990.0	1990.0	1990.0	1956.0	1956.0	1920.0	1920.0	1920.0	1920.0	1920.0	1932.0	1932.0	1932.0	1923.0	1923.0	1974.0	1974.0	1974.0	1960.0	1960.0	1939.0	1939.0	1939.0	1894.0	1894.0	1964.0	1964.0	1964.0	1916.0	1916.0	1956.0	1956.0	1956.0	1892.0	1892.0	1925.0	1925.0	1925.0	1947.0	1947.0	1881.0	1881.0	1881.0	1940.0	1940.0	1939.0	1939.0	1939.0	1864.0	1864.0	1930.0	1930.0	1930.0	1935.0	1935.0	1883.0	1883.0	1883.0	1916.0	1916.0	1913.0	1913.0	1913.0	1934.0	1934.0	1884.0	1884.0	1884.0	1866.0	1866.0	1926.0	1926.0	1926.0	1842.0	1842.0	1894.0	1894.0	1894.0	1843.0	1843.0	1856.0	1856.0	1856.0	1870.0	1870.0	1871.0	1871.0	1871.0	1886.0	1886.0	1891.0	1891.0	1891.0	1890.0	1890.0	1898.0	1898.0	1898.0	1851.0	1851.0	1841.0	1841.0	1841.0	1888.0	1888.0	1875.0	1875.0	1875.0	1852.0	1852.0	1833.0	1833.0	1833.0	1828.0	1828.0	1871.0	1871.0	1871.0	1872.0	1872.0	1849.0	1849.0	1849.0	1869.0	1869.0	1839.0	1839.0	1839.0	1855.0	1855.0	1828.0	1828.0	1828.0	1831.0	1831.0	1852.0	1852.0	1852.0	1862.0	1862.0	1810.0	1810.0	1810.0	1836.0	1836.0	1830.0	1830.0	1830.0	1788.0	1788.0	1819.0	1819.0	1819.0	1787.0	1787.0	1850.0	1850.0	1803.0	1803.0	1803.0	1807.0	1807.0	1836.0	1836.0	1836.0	1784.0	1784.0	1800.0	1800.0	1800.0	1785.0	1785.0	1794.0	1794.0	1794.0	1827.0	1827.0	1778.0	1778.0	1778.0	1819.0	1819.0	1850.0	1850.0	1850.0	1839.0	1839.0	1791.0	1791.0	1791.0	1773.0	1773.0	1841.0	1841.0	1841.0	1832.0	1832.0	1775.0	1775.0	1775.0	1779.0	1779.0	1782.0	1782.0	1782.0	1802.0	1802.0	1771.0	1771.0	1771.0	1776.0	1776.0	1832.0	1832.0	1832.0	1843.0	1843.0	1821.0	1821.0	1821.0	1828.0	1828.0	1834.0	1834.0	1834.0	1824.0	1824.0	1817.0	1817.0	1817.0	1826.0	1826.0	1746.0	1746.0	1746.0	1805.0	1805.0	1755.0	1755.0	1755.0	1816.0	1816.0	1802.0	1802.0	1802.0	1773.0	1773.0	1820.0	1820.0	1820.0	1772.0	1772.0	1832.0	1832.0	1832.0	1776.0	1776.0	1779.0	1779.0	1779.0	1811.0	1811.0	1826.0	1826.0	1826.0	1821.0	1821.0	1826.0	1826.0	1826.0	1799.0	1799.0	1795.0	1795.0	1795.0	1802.0	1802.0	1754.0	1754.0	1754.0	1740.0	1740.0	1817.0	1817.0	1817.0	1788.0	1788.0	1759.0	1759.0	1759.0	1746.0	1746.0	1812.0	1812.0	1812.0	1816.0	1816.0	1759.0	1759.0	1759.0	1747.0	1747.0	1824.0	1824.0	1824.0	1744.0	1744.0	1814.0	1814.0	1814.0	1819.0	1819.0	1783.0	1783.0	1783.0	1807.0	1807.0	1759.0	1759.0	1759.0	1754.0	1754.0	1753.0	1753.0	1753.0	1741.0	1741.0	1746.0	1746.0	1746.0	1756.0	1756.0	1766.0	1766.0	1766.0	1803.0	1803.0	1811.0	1811.0	1811.0	1741.0	1741.0	1790.0	1790.0	1790.0	1766.0	1766.0	1770.0	1770.0	1770.0	1802.0	1802.0	1807.0	1807.0	1807.0	1833.0	1833.0	1773.0	1773.0	1836.0	1836.0	1836.0	1844.0	1844.0	1859.0	1859.0	1859.0	1907.0	1907.0	1856.0	1856.0	1856.0	1880.0	1880.0	1948.0	1948.0	1948.0	1957.0	1957.0	1919.0	1919.0	1919.0	1963.0	1963.0	2023.0	2023.0	2023.0	2009.0	2009.0	1988.0	1988.0	1988.0	2064.0	2064.0	2051.0	2051.0	2051.0	2082.0	2082.0	2092.0	2092.0	2092.0	2160.0	2160.0	2177.0	2177.0	2177.0	2144.0	2144.0	2171.0	2171.0	2171.0	2220.0	2220.0	2242.0	2242.0	2242.0	2212.0	2212.0	2247.0	2247.0	2247.0	2250.0	2250.0	2254.0	2254.0	2254.0	2239.0	2239.0	2293.0	2293.0	2293.0	2334.0	2334.0	2295.0	2295.0	2295.0	2284.0	2284.0	2335.0	2335.0	2335.0	2312.0	2312.0	2314.0	2314.0	2314.0	2366.0	2366.0	2375.0	2375.0	2375.0	2362.0	2362.0	2395.0	2395.0	2395.0	2406.0	2406.0	2359.0	2359.0	2359.0	2425.0	2425.0	2379.0	2379.0	2379.0	2372.0	2372.0	2419.0	2419.0	2419.0	2443.0	2443.0	2381.0	2381.0	2381.0	2441.0	2441.0	2443.0	2443.0	2443.0	2444.0	2444.0	2382.0	2382.0	2382.0	2392.0	2392.0	2448.0	2448.0	2448.0	2417.0	2417.0	2393.0	2393.0	2393.0	2408.0	2408.0	2381.0	2381.0	2381.0	2383.0	2383.0	2411.0	2411.0	2411.0	2459.0	2459.0	2387.0	2387.0	2387.0	2382.0	2382.0	2392.0	2392.0	2392.0	2385.0	2385.0	2438.0	2438.0	2438.0	2443.0	2443.0	2446.0	2446.0	2446.0	2372.0	2372.0	2431.0	2431.0	2431.0	2367.0	2367.0	2435.0	2435.0	2435.0	2434.0	2434.0	2424.0	2424.0	2424.0	2381.0	2381.0	2418.0	2418.0	2418.0	2340.0	2340.0	2387.0	2387.0	2387.0	2408.0	2408.0	2377.0	2377.0	2377.0	2338.0	2338.0	2401.0	2401.0	2376.0	2376.0	2376.0	2325.0	2325.0	2330.0	2330.0	2330.0	2320.0	2320.0	2313.0	2313.0	2313.0	2306.0	2306.0	2346.0	2346.0	2346.0	2297.0	2297.0	2312.0	2312.0	2312.0	2343.0	2343.0	2278.0	2278.0	2278.0	2333.0	2333.0	2334.0	2334.0	2334.0	2324.0	2324.0	2263.0	2263.0	2263.0	2271.0	2271.0	2303.0	2303.0	2303.0	2301.0	2301.0	2301.0	2301.0	2301.0	2212.0	2212.0	2207.0	2207.0	2207.0	2270.0	2270.0	2259.0	2259.0	2259.0	2235.0	2235.0	2252.0	2252.0	2252.0	2240.0	2240.0	2178.0	2178.0	2178.0	2197.0	2197.0	2158.0	2158.0	2158.0	2142.0	2142.0	2167.0	2167.0	2167.0	2147.0	2147.0	2133.0	2133.0	2133.0	2101.0	2101.0	2100.0	2100.0	2100.0	2107.0	2107.0	2138.0	2138.0	2138.0	2081.0	2081.0	2085.0	2085.0	2085.0	2084.0	2084.0	2141.0	2141.0	2141.0	2059.0	2059.0	2105.0	2105.0	2105.0	2103.0	2103.0	2057.0	2057.0	2057.0	2065.0	2065.0	2091.0	2091.0	2091.0	2072.0	2072.0	2028.0	2028.0	2028.0	2025.0	2025.0	2087.0	2087.0	2087.0	2007.0	2007.0	2075.0	2075.0	2075.0	2034.0	2034.0	2032.0	2032.0	2032.0	2009.0	2009.0	2064.0	2064.0	2064.0	2064.0	2064.0	2017.0	2017.0	2017.0	1992.0	1992.0	2023.0	2023.0	2023.0	1983.0	1983.0	2029.0	2029.0	2029.0	2056.0	2056.0	1974.0	1974.0	1974.0	1976.0	1976.0	1992.0	1992.0	1992.0	1972.0	1972.0	1980.0	1980.0	1980.0	2047.0	2047.0	1973.0	1973.0	1973.0	1960.0	1960.0	2030.0	2030.0	2030.0	1958.0	1958.0	1999.0	1999.0	1999.0	1955.0	1955.0	2004.0	2004.0	2004.0	1962.0	1962.0	1971.0	1971.0	1971.0	1951.0	1951.0	1955.0	1955.0	1955.0	2014.0	2014.0	1995.0	1995.0	1931.0	1931.0	1931.0	1939.0	1939.0	1997.0	1997.0	1997.0	2002.0	2002.0	1944.0	1944.0	1944.0	1949.0	1949.0	1979.0	1979.0	1979.0	1922.0	1922.0	1983.0	1983.0	1983.0	1918.0	1918.0	1927.0	1927.0	1927.0	1934.0	1934.0	1925.0	1925.0	1925.0	1911.0	1911.0	1941.0	1941.0	1941.0	1904.0	1904.0	1920.0	1920.0	1920.0	1924.0	1924.0	1898.0	1898.0	1898.0	1883.0	1883.0	1889.0	1889.0	1889.0	1943.0	1943.0	1895.0	1895.0	1895.0	1925.0	1925.0	1895.0	1895.0	1895.0	1869.0	1869.0	1877.0	1877.0	1877.0	1915.0	1915.0	1855.0	1855.0	1855.0	1879.0	1879.0	1864.0	1864.0	1864.0	1892.0	1892.0	1910.0	1910.0	1910.0	1855.0	1855.0	1892.0	1892.0	1892.0	1865.0	1865.0	1848.0	1848.0	1848.0	1837.0	1837.0	1910.0	1910.0	1910.0	1884.0	1884.0	1904.0	1904.0	1904.0	1830.0	1830.0	1883.0	1883.0	1883.0	1839.0	1839.0	1835.0	1835.0	1835.0	1870.0	1870.0	1817.0	1817.0	1817.0	1811.0	1811.0	1862.0	1862.0	1862.0	1872.0	1872.0	1809.0	1809.0	1809.0	1805.0	1805.0	1877.0	1877.0	1877.0	1850.0	1850.0	1803.0	1803.0	1803.0	1867.0	1867.0	1813.0	1813.0	1813.0	1808.0	1808.0	1831.0	1831.0	1831.0	1851.0	1851.0	1871.0	1871.0	1871.0	1788.0	1788.0	1863.0	1863.0	1863.0	1793.0	1793.0	1795.0	1795.0	1795.0	1802.0	1802.0	1842.0	1842.0	1842.0	1803.0	1803.0	1815.0	1815.0	1815.0	1806.0	1806.0	1799.0	1799.0	1799.0	1780.0	1780.0	1843.0	1843.0	1843.0	1829.0	1829.0	1764.0	1764.0	1764.0	1816.0	1816.0	1830.0	1830.0	1830.0	1819.0	1819.0	1792.0	1792.0	1792.0	1804.0	1804.0	1810.0	1810.0	1825.0	1825.0	1825.0	1798.0	1798.0	1787.0	1787.0	1787.0	1768.0	1768.0	1809.0	1809.0	1809.0	1839.0	1839.0	1753.0	1753.0	1753.0	1806.0	1806.0	1781.0	1781.0	1781.0	1828.0	1828.0	1831.0	1831.0	1831.0	1796.0	1796.0	1751.0	1751.0	1751.0	1764.0	1764.0	1755.0	1755.0	1755.0	1768.0	1768.0	1792.0	1792.0	1792.0	1802.0	1802.0	1823.0	1823.0	1823.0	1760.0	1760.0	1787.0	1787.0	1787.0	1818.0	1818.0	1792.0	1792.0	1792.0	1826.0	1826.0	1777.0	1777.0	1777.0	1753.0	1753.0	1817.0	1817.0	1817.0	1815.0	1815.0	1763.0	1763.0	1763.0	1803.0	1803.0	1749.0	1749.0	1749.0	1807.0	1807.0	1811.0	1811.0	1811.0	1809.0	1809.0	1788.0	1788.0	1788.0	1806.0	1806.0	1815.0	1815.0	1815.0	1774.0	1774.0	1812.0	1812.0	1812.0	1753.0	1753.0	1763.0	1763.0	1763.0	1768.0	1768.0	1756.0	1756.0	1756.0	1747.0	1747.0	1812.0	1812.0	1812.0	1748.0	1748.0	1792.0	1792.0	1792.0	1810.0	1810.0	1809.0	1809.0	1809.0	1792.0	1792.0	1745.0	1745.0	1745.0	1762.0	1762.0	1737.0	1737.0	1737.0	1799.0	1799.0	1749.0	1749.0	1749.0	1789.0	1789.0	1785.0	1785.0	1785.0	1809.0	1809.0	1732.0	1732.0	1732.0	1789.0	1789.0	1789.0	1789.0	1789.0	1770.0	1770.0	1804.0	1804.0	1804.0	1778.0	1778.0	1791.0	1791.0	1791.0	1802.0	1802.0	1806.0	1806.0	1806.0	1773.0	1773.0	1803.0	1803.0	1803.0	1783.0	1783.0	1828.0	1828.0	1828.0	1823.0	1823.0	1796.0	1796.0	1796.0	1866.0	1866.0	1812.0	1812.0	1812.0	1858.0	1858.0	1908.0	1908.0	1908.0	1892.0	1892.0	1942.0	1942.0	1942.0	1911.0	1911.0	1963.0	1963.0	1963.0	1939.0	1939.0	2035.0	2035.0	2007.0	2007.0	2007.0	1998.0	1998.0	2020.0	2020.0	2020.0	2109.0	2109.0	2057.0	2057.0	2057.0	2139.0	2139.0	2098.0	2098.0	2098.0	2146.0	2146.0	2130.0	2130.0	2130.0	2218.0	2218.0	2212.0	2212.0	2212.0	2170.0	2170.0	2211.0	2211.0	2211.0	2236.0	2236.0	2264.0	2264.0	2264.0	2228.0	2228.0	2228.0	2228.0	2228.0	2306.0	2306.0	2348.0	2348.0	2348.0	2317.0	2317.0	2365.0	2365.0	2365.0	2382.0	2382.0	2328.0	2328.0	2328.0	2359.0	2359.0	2374.0	2374.0	2374.0	2363.0	2363.0	2373.0	2373.0	2373.0	2336.0	2336.0	2422.0	2422.0	2422.0	2419.0	2419.0	2377.0	2377.0	2377.0	2380.0	2380.0	2411.0	2411.0	2411.0	2406.0	2406.0	2429.0	2429.0	2429.0	2381.0	2381.0	2447.0	2447.0	2447.0	2382.0	2382.0	2388.0	2388.0	2388.0	2386.0	2386.0	2454.0	2454.0	2454.0	2380.0	2380.0	2431.0	2431.0	2431.0	2457.0	2457.0	2430.0	2430.0	2430.0	2398.0	2398.0	2445.0	2445.0	2445.0	2423.0	2423.0	2384.0	2384.0	2384.0	2390.0	2390.0	2408.0	2408.0	2408.0	2401.0	2401.0	2422.0	2422.0	2422.0	2452.0	2452.0	2390.0	2390.0	2390.0	2389.0	2389.0	2372.0	2372.0	2372.0	2421.0	2421.0	2423.0	2423.0	2423.0	2424.0	2424.0	2427.0	2427.0	2427.0	2419.0	2419.0	2355.0	2355.0	2355.0	2415.0	2415.0	2360.0	2360.0	2360.0	2404.0	2404.0	2333.0	2333.0	2333.0	2347.0	2347.0	2329.0	2329.0	2329.0	2406.0	2406.0	2330.0	2330.0	2330.0	2381.0	2381.0	2354.0	2354.0	2354.0	2343.0	2343.0	2357.0	2357.0	2357.0	2326.0	2326.0	2347.0	2347.0	2347.0	2342.0	2342.0	2283.0	2283.0	2283.0	2283.0	2283.0	2323.0	2323.0	2271.0	2271.0	2271.0	2288.0	2288.0	2273.0	2273.0	2273.0	2285.0	2285.0	2256.0	2256.0	2256.0	2243.0	2243.0	2239.0	2239.0	2239.0	2269.0	2269.0	2214.0	2214.0	2214.0	2247.0	2247.0	2196.0	2196.0	2196.0	2263.0	2263.0	2213.0	2213.0	2213.0	2181.0	2181.0	2210.0	2210.0	2210.0	2170.0	2170.0	2210.0	2210.0	2210.0	2188.0	2188.0	2207.0	2207.0	2207.0	2154.0	2154.0	2138.0	2138.0	2138.0	2159.0	2159.0	2122.0	2122.0	2122.0	2152.0	2152.0	2167.0	2167.0	2167.0	2107.0	2107.0	2083.0	2083.0	2083.0	2115.0	2115.0	2122.0	2122.0	2122.0	2111.0	2111.0	2044.0	2044.0	2044.0	2093.0	2093.0	2064.0	2064.0	2064.0	2038.0	2038.0	2085.0	2085.0	2085.0	2073.0	2073.0	2005.0	2005.0	2005.0	2076.0	2076.0	2014.0	2014.0	2014.0	2064.0	2064.0	2012.0	2012.0	2012.0	2000.0	2000.0	1991.0	1991.0	1991.0	1992.0	1992.0	2049.0	2049.0	2049.0	1991.0	1991.0	1977.0	1977.0	1977.0	1974.0	1974.0	1966.0	1966.0	1966.0	1983.0	1983.0	2020.0	2020.0	2020.0	1983.0	1983.0	2021.0	2021.0	2021.0	1958.0	1958.0	1964.0	1964.0	1964.0	1963.0	1963.0	1986.0	1986.0	1986.0	1971.0	1971.0	1927.0	1927.0	1927.0	1921.0	1921.0	1924.0	1924.0	1924.0	1930.0	1930.0	1953.0	1953.0	1953.0	1932.0	1932.0	1994.0	1994.0	1994.0	1941.0	1941.0	1959.0	1959.0	1959.0	1898.0	1898.0	1942.0	1942.0	1942.0	1935.0	1935.0	1926.0	1926.0	1926.0	1905.0	1905.0	1957.0	1957.0	1957.0	1963.0	1963.0	1951.0	1951.0	1951.0	1966.0	1966.0	1964.0	1964.0	1964.0	1947.0	1947.0	1924.0	1924.0	1924.0	1927.0	1927.0	1875.0	1875.0	1949.0	1949.0	1949.0	1898.0	1898.0	1911.0	1911.0	1911.0	1883.0	1883.0	1865.0	1865.0	1865.0	1893.0	1893.0	1854.0	1854.0	1854.0	1862.0	1862.0	1921.0	1921.0	1921.0	1879.0	1879.0	1854.0	1854.0	1854.0	1850.0	1850.0	1889.0	1889.0	1889.0	1881.0	1881.0	1843.0	1843.0	1843.0	1861.0	1861.0	1859.0	1859.0	1859.0	1857.0	1857.0	1834.0	1834.0	1834.0	1909.0	1909.0	1860.0	1860.0	1860.0	1892.0	1892.0	1889.0	1889.0	1889.0	1860.0	1860.0	1844.0	1844.0	1844.0	1851.0	1851.0	1893.0	1893.0	1893.0	1817.0	1817.0	1883.0	1883.0	1883.0	1808.0	1808.0	1848.0	1848.0	1848.0	1859.0	1859.0	1869.0	1869.0	1869.0	1805.0	1805.0	1837.0	1837.0	1837.0	1837.0	1837.0	1850.0	1850.0	1850.0	1796.0	1796.0	1857.0	1857.0	1857.0	1824.0	1824.0	1784.0	1784.0	1784.0	1788.0	1788.0	1851.0	1851.0	1851.0	1782.0	1782.0	1829.0	1829.0	1829.0	1841.0	1841.0	1796.0	1796.0	1796.0	1777.0	1777.0	1791.0	1791.0	1791.0	1847.0	1847.0	1838.0	1838.0	1838.0	1820.0	1820.0	1790.0	1790.0	1790.0	1764.0	1764.0	1787.0	1787.0	1787.0	1814.0	1814.0	1768.0	1768.0	1768.0	1771.0	1771.0	1826.0	1826.0	1826.0	1772.0	1772.0	1774.0	1774.0	1774.0	1812.0	1812.0	1805.0	1805.0	1805.0	1750.0	1750.0	1793.0	1793.0	1793.0	1822.0	1822.0	1753.0	1753.0	1753.0	1815.0	1815.0	1745.0	1745.0	1745.0	1739.0	1739.0	1771.0	1771.0	1771.0	1775.0	1775.0	1799.0	1799.0	1799.0	1743.0	1743.0	1815.0	1815.0	1815.0	1734.0	1734.0	1809.0	1809.0	1809.0	1757.0	1757.0	1747.0	1747.0	1747.0	1814.0	1814.0	1745.0	1745.0	1745.0	1751.0	1751.0	1811.0	1811.0	1780.0	1780.0	1780.0	1767.0	1767.0	1786.0	1786.0	1786.0	1763.0	1763.0	1766.0	1766.0	1766.0	1803.0	1803.0	1751.0	1751.0	1751.0	1808.0	1808.0	1743.0	1743.0	1743.0	1746.0	1746.0	1811.0	1811.0	1811.0	1803.0	1803.0	1804.0	1804.0	1804.0	1737.0	1737.0	1805.0	1805.0	1805.0	1730.0	1730.0	1735.0	1735.0	1735.0	1721.0	1721.0	1763.0	1763.0	1763.0	1767.0	1767.0	1801.0	1801.0	1801.0	1786.0	1786.0	1749.0	1749.0	1749.0	1758.0	1758.0	1774.0	1774.0	1774.0	1772.0	1772.0	1755.0	1755.0	1755.0	1791.0	1791.0	1770.0	1770.0	1770.0	1782.0	1782.0	1731.0	1731.0	1731.0	1801.0	1801.0	1763.0	1763.0	1763.0	1725.0	1725.0	1781.0	1781.0	1781.0	1756.0	1756.0	1760.0	1760.0	1760.0	1735.0	1735.0	1786.0	1786.0	1786.0	1776.0	1776.0	1722.0	1722.0	1722.0	1713.0	1713.0	1712.0	1712.0	1712.0	1776.0	1776.0	1718.0	1718.0	1718.0	1789.0	1789.0	1739.0	1739.0	1739.0	1772.0	1772.0	1789.0	1789.0	1789.0	1728.0	1728.0	1753.0	1753.0	1753.0	1762.0	1762.0	1726.0	1726.0	1726.0	1727.0	1727.0	1758.0	1758.0	1758.0	1772.0	1772.0	1793.0	1793.0	1793.0	1811.0	1811.0	1835.0	1835.0	1835.0	1772.0	1772.0	1783.0	1783.0	1783.0	1870.0	1870.0	1844.0	1844.0	1844.0	1829.0	1829.0	1913.0	1913.0	1913.0	1897.0	1897.0	1915.0	1915.0	1915.0	1896.0	1896.0	1978.0	1978.0	1978.0	1988.0	1988.0	2004.0	2004.0	2004.0	1971.0	1971.0	2055.0	2055.0	2055.0	2044.0	2044.0	2062.0	2062.0	2062.0	2058.0	2058.0	2100.0	2100.0	2100.0	2142.0	2142.0	2164.0	2164.0	2164.0	2173.0	2173.0	2211.0	2211.0	2171.0	2171.0	2171.0	2236.0	2236.0	2201.0	2201.0	2201.0	2236.0	2236.0	2226.0	2226.0	2226.0	2240.0	2240.0	2271.0	2271.0	2271.0	2286.0	2286.0	2335.0	2335.0	2335.0	2360.0	2360.0	2307.0	2307.0	2307.0	2384.0	2384.0	2402.0	2402.0	2402.0	2366.0	2366.0	2337.0	2337.0	2337.0	2382.0	2382.0	2371.0	2371.0	2371.0	2386.0	2386.0	2430.0	2430.0	2430.0	2428.0	2428.0	2380.0	2380.0	2380.0	2371.0	2371.0	2377.0	2377.0	2377.0	2450.0	2450.0	2390.0	2390.0	2390.0	2444.0	2444.0	