2649.0	2649.0	2644.0	2644.0	2608.0	2608.0	2608.0	2605.0	2605.0	2645.0	2645.0	2645.0	2586.0	2586.0	2629.0	2629.0	2629.0	2612.0	2612.0	2607.0	2607.0	2607.0	2557.0	2557.0	2527.0	2527.0	2527.0	2526.0	2526.0	2543.0	2543.0	2543.0	2521.0	2521.0	2470.0	2470.0	2470.0	2544.0	2544.0	2492.0	2492.0	2492.0	2491.0	2491.0	2462.0	2462.0	2462.0	2418.0	2418.0	2471.0	2471.0	2471.0	2431.0	2431.0	2402.0	2402.0	2402.0	2384.0	2384.0	2376.0	2376.0	2376.0	2386.0	2386.0	2347.0	2347.0	2347.0	2387.0	2387.0	2321.0	2321.0	2321.0	2335.0	2335.0	2270.0	2270.0	2270.0	2258.0	2258.0	2264.0	2264.0	2264.0	2233.0	2233.0	2240.0	2240.0	2240.0	2254.0	2254.0	2233.0	2233.0	2233.0	2185.0	2185.0	2181.0	2181.0	2181.0	2159.0	2159.0	2146.0	2146.0	2146.0	2143.0	2143.0	2100.0	2100.0	2100.0	2154.0	2154.0	2095.0	2095.0	2095.0	2093.0	2093.0	2100.0	2100.0	2100.0	2077.0	2077.0	2051.0	2051.0	2051.0	2028.0	2028.0	2071.0	2071.0	2071.0	2065.0	2065.0	2028.0	2028.0	2028.0	1987.0	1987.0	2048.0	2048.0	2048.0	2010.0	2010.0	1980.0	1980.0	1980.0	1980.0	1980.0	1995.0	1995.0	1995.0	1966.0	1966.0	2013.0	2013.0	2013.0	1980.0	1980.0	2006.0	2006.0	2006.0	1957.0	1957.0	2022.0	2022.0	2022.0	2014.0	2014.0	1964.0	1964.0	1964.0	1990.0	1990.0	1972.0	1972.0	1972.0	1946.0	1946.0	1970.0	1970.0	1970.0	1953.0	1953.0	1999.0	1999.0	1999.0	1970.0	1970.0	1978.0	1978.0	2008.0	2008.0	2008.0	1968.0	1968.0	1993.0	1993.0	1993.0	1977.0	1977.0	1987.0	1987.0	1987.0	1941.0	1941.0	1947.0	1947.0	1947.0	1936.0	1936.0	1935.0	1935.0	1935.0	1988.0	1988.0	1928.0	1928.0	1928.0	1930.0	1930.0	1952.0	1952.0	1952.0	1970.0	1970.0	1948.0	1948.0	1948.0	1964.0	1964.0	1898.0	1898.0	1898.0	1944.0	1944.0	1893.0	1893.0	1893.0	1917.0	1917.0	1932.0	1932.0	1932.0	1888.0	1888.0	1933.0	1933.0	1933.0	1875.0	1875.0	1891.0	1891.0	1891.0	1904.0	1904.0	1874.0	1874.0	1874.0	1895.0	1895.0	1847.0	1847.0	1847.0	1879.0	1879.0	1897.0	1897.0	1897.0	1886.0	1886.0	1830.0	1830.0	1830.0	1837.0	1837.0	1818.0	1818.0	1818.0	1872.0	1872.0	1817.0	1817.0	1817.0	1814.0	1814.0	1849.0	1849.0	1849.0	1851.0	1851.0	1825.0	1825.0	1825.0	1796.0	1796.0	1782.0	1782.0	1782.0	1820.0	1820.0	1765.0	1765.0	1765.0	1782.0	1782.0	1764.0	1764.0	1764.0	1819.0	1819.0	1807.0	1807.0	1807.0	1790.0	1790.0	1743.0	1743.0	1743.0	1796.0	1796.0	1738.0	1738.0	1738.0	1778.0	1778.0	1733.0	1733.0	1733.0	1734.0	1734.0	1777.0	1777.0	1777.0	1726.0	1726.0	1713.0	1713.0	1713.0	1744.0	1744.0	1707.0	1707.0	1707.0	1699.0	1699.0	1750.0	1750.0	1750.0	1717.0	1717.0	1726.0	1726.0	1726.0	1675.0	1675.0	1741.0	1741.0	1741.0	1684.0	1684.0	1713.0	1713.0	1713.0	1715.0	1715.0	1731.0	1731.0	1731.0	1719.0	1719.0	1715.0	1715.0	1715.0	1717.0	1717.0	1671.0	1671.0	1671.0	1702.0	1702.0	1662.0	1662.0	1662.0	1711.0	1711.0	1693.0	1693.0	1693.0	1711.0	1711.0	1678.0	1678.0	1639.0	1639.0	1639.0	1679.0	1679.0	1671.0	1671.0	1671.0	1694.0	1694.0	1664.0	1664.0	1664.0	1653.0	1653.0	1620.0	1620.0	1620.0	1628.0	1628.0	1696.0	1696.0	1696.0	1679.0	1679.0	1646.0	1646.0	1646.0	1624.0	1624.0	1664.0	1664.0	1664.0	1615.0	1615.0	1673.0	1673.0	1673.0	1618.0	1618.0	1614.0	1614.0	1614.0	1649.0	1649.0	1649.0	1649.0	1649.0	1619.0	1619.0	1611.0	1611.0	1611.0	1604.0	1604.0	1656.0	1656.0	1656.0	1659.0	1659.0	1625.0	1625.0	1625.0	1635.0	1635.0	1620.0	1620.0	1620.0	1587.0	1587.0	1612.0	1612.0	1612.0	1659.0	1659.0	1624.0	1624.0	1624.0	1620.0	1620.0	1647.0	1647.0	1647.0	1627.0	1627.0	1615.0	1615.0	1615.0	1653.0	1653.0	1594.0	1594.0	1594.0	1620.0	1620.0	1657.0	1657.0	1657.0	1589.0	1589.0	1609.0	1609.0	1609.0	1640.0	1640.0	1643.0	1643.0	1643.0	1641.0	1641.0	1614.0	1614.0	1614.0	1653.0	1653.0	1609.0	1609.0	1609.0	1617.0	1617.0	1650.0	1650.0	1650.0	1621.0	1621.0	1634.0	1634.0	1634.0	1574.0	1574.0	1601.0	1601.0	1601.0	1588.0	1588.0	1592.0	1592.0	1592.0	1610.0	1610.0	1626.0	1626.0	1626.0	1581.0	1581.0	1591.0	1591.0	1591.0	1635.0	1635.0	1594.0	1594.0	1594.0	1622.0	1622.0	1585.0	1585.0	1585.0	1609.0	1609.0	1645.0	1645.0	1645.0	1576.0	1576.0	1609.0	1609.0	1609.0	1627.0	1627.0	1607.0	1607.0	1607.0	1643.0	1643.0	1648.0	1648.0	1648.0	1594.0	1594.0	1611.0	1611.0	1611.0	1638.0	1638.0	1614.0	1614.0	1614.0	1675.0	1675.0	1677.0	1677.0	1677.0	1719.0	1719.0	1717.0	1717.0	1717.0	1699.0	1699.0	1703.0	1703.0	1703.0	1782.0	1782.0	1811.0	1811.0	1795.0	1795.0	1795.0	1844.0	1844.0	1861.0	1861.0	1861.0	1919.0	1919.0	1947.0	1947.0	1947.0	1980.0	1980.0	1970.0	1970.0	1970.0	2016.0	2016.0	2060.0	2060.0	2060.0	2138.0	2138.0	2121.0	2121.0	2121.0	2202.0	2202.0	2182.0	2182.0	2182.0	2221.0	2221.0	2290.0	2290.0	2290.0	2347.0	2347.0	2323.0	2323.0	2323.0	2353.0	2353.0	2442.0	2442.0	2442.0	2408.0	2408.0	2443.0	2443.0	2443.0	2483.0	2483.0	2488.0	2488.0	2488.0	2564.0	2564.0	2548.0	2548.0	2548.0	2612.0	2612.0	2587.0	2587.0	2587.0	2592.0	2592.0	2607.0	2607.0	2607.0	2634.0	2634.0	2663.0	2663.0	2663.0	2705.0	2705.0	2708.0	2708.0	2708.0	2701.0	2701.0	2712.0	2712.0	2712.0	2739.0	2739.0	2761.0	2761.0	2761.0	2715.0	2715.0	2746.0	2746.0	2746.0	2763.0	2763.0	2724.0	2724.0	2724.0	2762.0	2762.0	2747.0	2747.0	2747.0	2741.0	2741.0	2720.0	2720.0	2720.0	2736.0	2736.0	2746.0	2746.0	2746.0	2772.0	2772.0	2758.0	2758.0	2758.0	2708.0	2708.0	2738.0	2738.0	2738.0	2737.0	2737.0	2764.0	2764.0	2764.0	2746.0	2746.0	2746.0	2746.0	2746.0	2710.0	2710.0	2713.0	2713.0	2713.0	2740.0	2740.0	2685.0	2685.0	2685.0	2679.0	2679.0	2664.0	2664.0	2664.0	2709.0	2709.0	2715.0	2715.0	2715.0	2658.0	2658.0	2639.0	2639.0	2639.0	2618.0	2618.0	2655.0	2655.0	2655.0	2663.0	2663.0	2631.0	2631.0	2631.0	2615.0	2615.0	2611.0	2611.0	2611.0	2582.0	2582.0	2641.0	2641.0	2641.0	2619.0	2619.0	2596.0	2596.0	2596.0	2538.0	2538.0	2581.0	2581.0	2581.0	2524.0	2524.0	2518.0	2518.0	2518.0	2566.0	2566.0	2555.0	2555.0	2511.0	2511.0	2511.0	2516.0	2516.0	2474.0	2474.0	2474.0	2451.0	2451.0	2431.0	2431.0	2431.0	2436.0	2436.0	2418.0	2418.0	2418.0	2451.0	2451.0	2417.0	2417.0	2417.0	2371.0	2371.0	2374.0	2374.0	2374.0	2343.0	2343.0	2359.0	2359.0	2359.0	2329.0	2329.0	2303.0	2303.0	2303.0	2320.0	2320.0	2252.0	2252.0	2252.0	2274.0	2274.0	2224.0	2224.0	2224.0	2227.0	2227.0	2226.0	2226.0	2226.0	2171.0	2171.0	2167.0	2167.0	2167.0	2187.0	2187.0	2177.0	2177.0	2177.0	2158.0	2158.0	2134.0	2134.0	2134.0	2118.0	2118.0	2106.0	2106.0	2106.0	2055.0	2055.0	2097.0	2097.0	2097.0	2064.0	2064.0	2020.0	2020.0	2020.0	2048.0	2048.0	2024.0	2024.0	2024.0	2001.0	2001.0	1987.0	1987.0	1987.0	2035.0	2035.0	2011.0	2011.0	2011.0	1971.0	1971.0	1988.0	1988.0	1988.0	1956.0	1956.0	1949.0	1949.0	1949.0	1942.0	1942.0	1963.0	1963.0	1963.0	1937.0	1937.0	1983.0	1983.0	1983.0	1974.0	1974.0	1953.0	1953.0	1953.0	1970.0	1970.0	1995.0	1995.0	1995.0	1977.0	1977.0	1941.0	1941.0	1941.0	1969.0	1969.0	1929.0	1929.0	1929.0	1967.0	1967.0	1956.0	1956.0	1956.0	1974.0	1974.0	1975.0	1975.0	1975.0	1967.0	1967.0	1967.0	1967.0	1967.0	1982.0	1982.0	1969.0	1969.0	1969.0	1983.0	1983.0	1961.0	1961.0	1961.0	1973.0	1973.0	1939.0	1939.0	1939.0	1977.0	1977.0	1919.0	1919.0	1919.0	1964.0	1964.0	1915.0	1915.0	1915.0	1935.0	1935.0	1930.0	1930.0	1930.0	1934.0	1934.0	1914.0	1914.0	1914.0	1922.0	1922.0	1917.0	1917.0	1917.0	1877.0	1877.0	1938.0	1938.0	1938.0	1931.0	1931.0	1879.0	1879.0	1879.0	1870.0	1870.0	1912.0	1912.0	1892.0	1892.0	1892.0	1890.0	1890.0	1864.0	1864.0	1864.0	1903.0	1903.0	1858.0	1858.0	1858.0	1896.0	1896.0	1881.0	1881.0	1881.0	1826.0	1826.0	1861.0	1861.0	1861.0	1814.0	1814.0	1812.0	1812.0	1812.0	1860.0	1860.0	1811.0	1811.0	1811.0	1816.0	1816.0	1855.0	1855.0	1855.0	1808.0	1808.0	1817.0	1817.0	1817.0	1783.0	1783.0	1775.0	1775.0	1775.0	1822.0	1822.0	1767.0	1767.0	1767.0	1760.0	1760.0	1796.0	1796.0	1796.0	1783.0	1783.0	1782.0	1782.0	1782.0	1796.0	1796.0	1788.0	1788.0	1788.0	1754.0	1754.0	1743.0	1743.0	1743.0	1765.0	1765.0	1748.0	1748.0	1748.0	1747.0	1747.0	1759.0	1759.0	1759.0	1771.0	1771.0	1693.0	1693.0	1693.0	1747.0	1747.0	1695.0	1695.0	1695.0	1696.0	1696.0	1697.0	1697.0	1697.0	1740.0	1740.0	1687.0	1687.0	1687.0	1693.0	1693.0	1742.0	1742.0	1742.0	1736.0	1736.0	1669.0	1669.0	1669.0	1713.0	1713.0	1717.0	1717.0	1717.0	1689.0	1689.0	1719.0	1719.0	1719.0	1690.0	1690.0	1707.0	1707.0	1707.0	1681.0	1681.0	1659.0	1659.0	1659.0	1654.0	1654.0	1715.0	1715.0	1715.0	1667.0	1667.0	1657.0	1657.0	1657.0	1707.0	1707.0	1668.0	1668.0	1668.0	1683.0	1683.0	1651.0	1651.0	1651.0	1686.0	1686.0	1696.0	1696.0	1696.0	1652.0	1652.0	1637.0	1637.0	1637.0	1691.0	1691.0	1634.0	1634.0	1634.0	1618.0	1618.0	1656.0	1656.0	1656.0	1670.0	1670.0	1645.0	1645.0	1645.0	1647.0	1647.0	1619.0	1619.0	1619.0	1610.0	1610.0	1640.0	1640.0	1640.0	1648.0	1648.0	1661.0	1661.0	1661.0	1611.0	1611.0	1660.0	1660.0	1660.0	1604.0	1604.0	1621.0	1621.0	1648.0	1648.0	1648.0	1608.0	1608.0	1601.0	1601.0	1601.0	1658.0	1658.0	1621.0	1621.0	1621.0	1644.0	1644.0	1657.0	1657.0	1657.0	1585.0	1585.0	1595.0	1595.0	1595.0	1585.0	1585.0	1632.0	1632.0	1632.0	1647.0	1647.0	1610.0	1610.0	1610.0	1586.0	1586.0	1587.0	1587.0	1587.0	1643.0	1643.0	1645.0	1645.0	1645.0	1574.0	1574.0	1600.0	1600.0	1600.0	1594.0	1594.0	1593.0	1593.0	1593.0	1642.0	1642.0	1610.0	1610.0	1610.0	1598.0	1598.0	1647.0	1647.0	1647.0	1609.0	1609.0	1580.0	1580.0	1580.0	1575.0	1575.0	1597.0	1597.0	1597.0	1585.0	1585.0	1644.0	1644.0	1644.0	1621.0	1621.0	1620.0	1620.0	1620.0	1637.0	1637.0	1619.0	1619.0	1619.0	1565.0	1565.0	1634.0	1634.0	1634.0	1570.0	1570.0	1623.0	1623.0	1623.0	1621.0	1621.0	1606.0	1606.0	1606.0	1607.0	1607.0	1586.0	1586.0	1586.0	1615.0	1615.0	1570.0	1570.0	1570.0	1565.0	1565.0	1610.0	1610.0	1610.0	1599.0	1599.0	1611.0	1611.0	1611.0	1583.0	1583.0	1578.0	1578.0	1578.0	1590.0	1590.0	1650.0	1650.0	1650.0	1671.0	1671.0	1630.0	1630.0	1630.0	1697.0	1697.0	1658.0	1658.0	1658.0	1686.0	1686.0	1735.0	1735.0	1735.0	1742.0	1742.0	1798.0	1798.0	1798.0	1819.0	1819.0	1842.0	1842.0	1842.0	1896.0	1896.0	1938.0	1938.0	1938.0	1932.0	1932.0	1986.0	1986.0	1986.0	2053.0	2053.0	2103.0	2103.0	2103.0	2089.0	2089.0	2136.0	2136.0	2136.0	2210.0	2210.0	2241.0	2241.0	2241.0	2252.0	2252.0	2286.0	2286.0	2286.0	2305.0	2305.0	2384.0	2384.0	2384.0	2377.0	2377.0	2432.0	2432.0	2432.0	2441.0	2441.0	2444.0	2444.0	2458.0	2458.0	2458.0	2496.0	2496.0	2543.0	2543.0	2543.0	2539.0	2539.0	2574.0	2574.0	2574.0	2553.0	2553.0	2560.0	2560.0	2560.0	2604.0	2604.0	2599.0	2599.0	2599.0	2596.0	2596.0	2654.0	2654.0	2654.0	2629.0	2629.0	2650.0	2650.0	2650.0	2665.0	2665.0	2626.0	2626.0	2626.0	2662.0	2662.0	2676.0	2676.0	2676.0	2693.0	2693.0	2693.0	2693.0	2693.0	2671.0	2671.0	2642.0	2642.0	2642.0	2681.0	2681.0	2687.0	2687.0	2687.0	2661.0	2661.0	2627.0	2627.0	2627.0	2629.0	2629.0	2663.0	2663.0	2663.0	2650.0	2650.0	2626.0	2626.0	2626.0	2648.0	2648.0	2628.0	2628.0	2628.0	2613.0	2613.0	2620.0	2620.0	2620.0	2595.0	2595.0	2647.0	2647.0	2647.0	2626.0	2626.0	2569.0	2569.0	2569.0	2631.0	2631.0	2557.0	2557.0	2557.0	2612.0	2612.0	2608.0	2608.0	2608.0	2541.0	2541.0	2554.0	2554.0	2554.0	2523.0	2523.0	2528.0	2528.0	2528.0	2522.0	2522.0	2542.0	2542.0	2542.0	2520.0	2520.0	2528.0	2528.0	2528.0	2521.0	2521.0	2475.0	2475.0	2475.0	2454.0	2454.0	2484.0	2484.0	2484.0	2461.0	2461.0	2428.0	2428.0	2428.0	2416.0	2416.0	2465.0	2465.0	2465.0	2416.0	2416.0	2394.0	2394.0	2394.0	2422.0	2422.0	2437.0	2437.0	2437.0	2358.0	2358.0	2345.0	2345.0	2345.0	2329.0	2329.0	2363.0	2363.0	2363.0	2327.0	2327.0	2315.0	2315.0	2315.0	2293.0	2293.0	2264.0	2264.0	2264.0	2311.0	2311.0	2236.0	2236.0	2236.0	2218.0	2218.0	2256.0	2256.0	2256.0	2237.0	2237.0	2197.0	2197.0	2197.0	2168.0	2168.0	2155.0	2155.0	2155.0	2156.0	2156.0	2123.0	2123.0	2123.0	2121.0	2121.0	2151.0	2151.0	2151.0	2076.0	2076.0	2087.0	2087.0	2106.0	2106.0	2106.0	2106.0	2106.0	2071.0	2071.0	2071.0	2024.0	2024.0	2008.0	2008.0	2008.0	2069.0	2069.0	2042.0	2042.0	2042.0	1994.0	1994.0	2036.0	2036.0	2036.0	1974.0	1974.0	2023.0	2023.0	2023.0	1984.0	1984.0	1972.0	1972.0	1972.0	1995.0	1995.0	1995.0	1995.0	1995.0	1947.0	1947.0	2006.0	2006.0	2006.0	1960.0	1960.0	1966.0	1966.0	1966.0	1991.0	1991.0	1954.0	1954.0	1954.0	1975.0	1975.0	1957.0	1957.0	1957.0	2000.0	2000.0	1969.0	1969.0	1969.0	1949.0	1949.0	1937.0	1937.0	1937.0	1993.0	1993.0	1935.0	1935.0	1935.0	1940.0	1940.0	1956.0	1956.0	1956.0	1938.0	1938.0	1932.0	1932.0	1932.0	1949.0	1949.0	1937.0	1937.0	1937.0	1944.0	1944.0	1936.0	1936.0	1936.0	1916.0	1916.0	1988.0	1988.0	1988.0	1966.0	1966.0	1981.0	1981.0	1981.0	1931.0	1931.0	1918.0	1918.0	1918.0	1959.0	1959.0	1945.0	1945.0	1945.0	1951.0	1951.0	1908.0	1908.0	1908.0	1915.0	1915.0	1953.0	1953.0	1953.0	1889.0	1889.0	1910.0	1910.0	1910.0	1889.0	1889.0	1936.0	1936.0	1936.0	1914.0	1914.0	1927.0	1927.0	1927.0	1910.0	1910.0	1894.0	1894.0	1894.0	1874.0	1874.0	1907.0	1907.0	1907.0	1876.0	1876.0	1858.0	1858.0	1858.0	1895.0	1895.0	1831.0	1831.0	1831.0	1893.0	1893.0	1830.0	1830.0	1830.0	1835.0	1835.0	1830.0	1830.0	1830.0	1861.0	1861.0	1792.0	1792.0	1792.0	1809.0	1809.0	1824.0	1824.0	1824.0	1800.0	1800.0	1804.0	1804.0	1804.0	1770.0	1770.0	1776.0	1776.0	1776.0	1771.0	1771.0	1789.0	1789.0	1789.0	1822.0	1822.0	1804.0	1804.0	1804.0	1787.0	1787.0	1793.0	1793.0	1750.0	1750.0	1750.0	1767.0	1767.0	1778.0	1778.0	1778.0	1774.0	1774.0	1736.0	1736.0	1736.0	1739.0	1739.0	1757.0	1757.0	1757.0	1754.0	1754.0	1756.0	1756.0	1756.0	1735.0	1735.0	1729.0	1729.0	1729.0	1706.0	1706.0	1694.0	1694.0	1694.0	1698.0	1698.0	1751.0	1751.0	1751.0	1716.0	1716.0	1685.0	1685.0	1685.0	1749.0	1749.0	1708.0	1708.0	1708.0	1706.0	1706.0	1676.0	1676.0	1676.0	1669.0	1669.0	1668.0	1668.0	1668.0	1689.0	1689.0	1662.0	1662.0	1662.0	1691.0	1691.0	1690.0	1690.0	1690.0	1648.0	1648.0	1655.0	1655.0	1655.0	1662.0	1662.0	1657.0	1657.0	1657.0	1698.0	1698.0	1683.0	1683.0	1683.0	1684.0	1684.0	1633.0	1633.0	1633.0	1671.0	1671.0	1627.0	1627.0	1627.0	1659.0	1659.0	1641.0	1641.0	1641.0	1668.0	1668.0	1689.0	1689.0	1689.0	1619.0	1619.0	1619.0	1619.0	1619.0	1662.0	1662.0	1629.0	1629.0	1629.0	1663.0	1663.0	1644.0	1644.0	1644.0	1623.0	1623.0	1624.0	1624.0	1624.0	1611.0	1611.0	1619.0	1619.0	1619.0	1635.0	1635.0	1627.0	1627.0	1627.0	1642.0	1642.0	1667.0	1667.0	1667.0	1655.0	1655.0	1674.0	1674.0	1674.0	1644.0	1644.0	1665.0	1665.0	1665.0	1631.0	1631.0	1663.0	1663.0	1663.0	1596.0	1596.0	1590.0	1590.0	1590.0	1654.0	1654.0	1637.0	1637.0	1637.0	1654.0	1654.0	1639.0	1639.0	1639.0	1595.0	1595.0	1624.0	1624.0	1624.0	1611.0	1611.0	1644.0	1644.0	1644.0	1630.0	1630.0	1642.0	1642.0	1642.0	1655.0	1655.0	1651.0	1651.0	1651.0	1631.0	1631.0	1629.0	1629.0	1629.0	1635.0	1635.0	1644.0	1644.0	1644.0	1591.0	1591.0	1647.0	1647.0	1647.0	1593.0	1593.0	1615.0	1615.0	1624.0	1624.0	1624.0	1623.0	1623.0	1629.0	1629.0	1629.0	1595.0	1595.0	1644.0	1644.0	1644.0	1622.0	1622.0	1587.0	1587.0	1587.0	1635.0	1635.0	1643.0	1643.0	1643.0	1584.0	1584.0	1603.0	1603.0	1603.0	1577.0	1577.0	1651.0	1651.0	1651.0	1635.0	1635.0	1625.0	1625.0	1625.0	1606.0	1606.0	1606.0	1606.0	1606.0	1612.0	1612.0	1644.0	1644.0	1644.0	1617.0	1617.0	1672.0	1672.0	1672.0	1654.0	1654.0	1610.0	1610.0	1610.0	1658.0	1658.0	1622.0	1622.0	1622.0	1644.0	1644.0	1646.0	1646.0	1646.0	1667.0	1667.0	1735.0	1735.0	1735.0	1782.0	1782.0	1798.0	