1758.0	1758.0	1676.0	1676.0	1676.0	1716.0	1716.0	1679.0	1679.0	1679.0	1681.0	1681.0	1752.0	1752.0	1752.0	1743.0	1743.0	1748.0	1748.0	1748.0	1751.0	1751.0	1749.0	1749.0	1749.0	1747.0	1747.0	1744.0	1744.0	1744.0	1706.0	1706.0	1739.0	1739.0	1739.0	1666.0	1666.0	1738.0	1738.0	1738.0	1652.0	1652.0	1706.0	1706.0	1706.0	1661.0	1661.0	1665.0	1665.0	1665.0	1729.0	1729.0	1664.0	1664.0	1664.0	1671.0	1671.0	1693.0	1693.0	1693.0	1684.0	1684.0	1727.0	1727.0	1727.0	1692.0	1692.0	1708.0	1708.0	1708.0	1746.0	1746.0	1671.0	1671.0	1671.0	1695.0	1695.0	1769.0	1769.0	1769.0	1746.0	1746.0	1784.0	1784.0	1784.0	1711.0	1711.0	1732.0	1732.0	1732.0	1790.0	1790.0	1755.0	1755.0	1755.0	1776.0	1776.0	1803.0	1803.0	1803.0	1829.0	1829.0	1847.0	1847.0	1847.0	1860.0	1860.0	1884.0	1884.0	1884.0	1977.0	1977.0	1911.0	1911.0	1911.0	1938.0	1938.0	1962.0	1962.0	1962.0	1988.0	1988.0	2000.0	2000.0	2000.0	2091.0	2091.0	2046.0	2046.0	2046.0	2098.0	2098.0	2107.0	2107.0	2107.0	2173.0	2173.0	2111.0	2111.0	2111.0	2190.0	2190.0	2155.0	2155.0	2155.0	2175.0	2175.0	2182.0	2182.0	2182.0	2204.0	2204.0	2250.0	2250.0	2250.0	2222.0	2222.0	2299.0	2299.0	2299.0	2251.0	2251.0	2310.0	2310.0	2310.0	2247.0	2247.0	2270.0	2270.0	2270.0	2322.0	2322.0	2266.0	2266.0	2266.0	2270.0	2270.0	2276.0	2276.0	2276.0	2307.0	2307.0	2285.0	2285.0	2285.0	2276.0	2276.0	2291.0	2291.0	2291.0	2351.0	2351.0	2310.0	2310.0	2310.0	2349.0	2349.0	2319.0	2319.0	2294.0	2294.0	2294.0	2376.0	2376.0	2360.0	2360.0	2360.0	2349.0	2349.0	2386.0	2386.0	2386.0	2337.0	2337.0	2386.0	2386.0	2386.0	2342.0	2342.0	2390.0	2390.0	2390.0	2311.0	2311.0	2307.0	2307.0	2307.0	2383.0	2383.0	2346.0	2346.0	2346.0	2310.0	2310.0	2359.0	2359.0	2359.0	2344.0	2344.0	2304.0	2304.0	2304.0	2360.0	2360.0	2380.0	2380.0	2380.0	2376.0	2376.0	2315.0	2315.0	2315.0	2348.0	2348.0	2293.0	2293.0	2293.0	2300.0	2300.0	2293.0	2293.0	2293.0	2282.0	2282.0	2351.0	2351.0	2351.0	2303.0	2303.0	2330.0	2330.0	2330.0	2318.0	2318.0	2259.0	2259.0	2259.0	2288.0	2288.0	2324.0	2324.0	2324.0	2288.0	2288.0	2260.0	2260.0	2260.0	2296.0	2296.0	2280.0	2280.0	2280.0	2228.0	2228.0	2272.0	2272.0	2272.0	2206.0	2206.0	2210.0	2210.0	2210.0	2241.0	2241.0	2167.0	2167.0	2167.0	2163.0	2163.0	2223.0	2223.0	2223.0	2156.0	2156.0	2131.0	2131.0	2131.0	2141.0	2141.0	2157.0	2157.0	2157.0	2178.0	2178.0	2148.0	2148.0	2148.0	2100.0	2100.0	2068.0	2068.0	2068.0	2066.0	2066.0	2074.0	2074.0	2074.0	2136.0	2136.0	2055.0	2055.0	2055.0	2128.0	2128.0	2035.0	2035.0	2035.0	2034.0	2034.0	2113.0	2113.0	2113.0	2063.0	2063.0	2097.0	2097.0	2097.0	2055.0	2055.0	2051.0	2051.0	2051.0	2014.0	2014.0	2069.0	2069.0	2069.0	2081.0	2081.0	2079.0	2079.0	2079.0	2075.0	2075.0	2051.0	2051.0	2051.0	2015.0	2015.0	2021.0	2021.0	2021.0	2045.0	2045.0	1986.0	1986.0	1986.0	2040.0	2040.0	2042.0	2042.0	2042.0	2045.0	2045.0	2040.0	2040.0	2040.0	2043.0	2043.0	2030.0	2030.0	2038.0	2038.0	2038.0	1968.0	1968.0	2004.0	2004.0	2004.0	1962.0	1962.0	1969.0	1969.0	1969.0	1966.0	1966.0	2031.0	2031.0	2031.0	2034.0	2034.0	1963.0	1963.0	1963.0	1948.0	1948.0	1995.0	1995.0	1995.0	2017.0	2017.0	1942.0	1942.0	1942.0	1986.0	1986.0	2012.0	2012.0	2012.0	1956.0	1956.0	1954.0	1954.0	1954.0	1941.0	1941.0	1941.0	1941.0	1941.0	1914.0	1914.0	1909.0	1909.0	1909.0	1923.0	1923.0	1944.0	1944.0	1944.0	1952.0	1952.0	1933.0	1933.0	1933.0	1944.0	1944.0	1898.0	1898.0	1898.0	1923.0	1923.0	1887.0	1887.0	1887.0	1957.0	1957.0	1912.0	1912.0	1912.0	1881.0	1881.0	1956.0	1956.0	1956.0	1872.0	1872.0	1896.0	1896.0	1896.0	1938.0	1938.0	1912.0	1912.0	1912.0	1903.0	1903.0	1907.0	1907.0	1907.0	1887.0	1887.0	1905.0	1905.0	1905.0	1886.0	1886.0	1876.0	1876.0	1876.0	1843.0	1843.0	1915.0	1915.0	1915.0	1838.0	1838.0	1842.0	1842.0	1842.0	1912.0	1912.0	1828.0	1828.0	1828.0	1875.0	1875.0	1825.0	1825.0	1825.0	1824.0	1824.0	1836.0	1836.0	1836.0	1847.0	1847.0	1859.0	1859.0	1859.0	1832.0	1832.0	1880.0	1880.0	1880.0	1817.0	1817.0	1808.0	1808.0	1808.0	1855.0	1855.0	1832.0	1832.0	1832.0	1810.0	1810.0	1803.0	1803.0	1803.0	1843.0	1843.0	1866.0	1866.0	1866.0	1852.0	1852.0	1870.0	1870.0	1870.0	1879.0	1879.0	1850.0	1850.0	1850.0	1822.0	1822.0	1835.0	1835.0	1835.0	1824.0	1824.0	1779.0	1779.0	1779.0	1804.0	1804.0	1774.0	1774.0	1774.0	1786.0	1786.0	1823.0	1823.0	1823.0	1779.0	1779.0	1791.0	1791.0	1791.0	1756.0	1756.0	1771.0	1771.0	1771.0	1766.0	1766.0	1763.0	1763.0	1815.0	1815.0	1815.0	1831.0	1831.0	1769.0	1769.0	1769.0	1848.0	1848.0	1783.0	1783.0	1783.0	1789.0	1789.0	1822.0	1822.0	1822.0	1756.0	1756.0	1760.0	1760.0	1760.0	1799.0	1799.0	1758.0	1758.0	1758.0	1758.0	1758.0	1831.0	1831.0	1831.0	1775.0	1775.0	1761.0	1761.0	1761.0	1745.0	1745.0	1831.0	1831.0	1831.0	1791.0	1791.0	1787.0	1787.0	1787.0	1824.0	1824.0	1739.0	1739.0	1739.0	1739.0	1739.0	1797.0	1797.0	1797.0	1814.0	1814.0	1758.0	1758.0	1758.0	1779.0	1779.0	1734.0	1734.0	1734.0	1739.0	1739.0	1735.0	1735.0	1735.0	1810.0	1810.0	1798.0	1798.0	1798.0	1750.0	1750.0	1744.0	1744.0	1744.0	1736.0	1736.0	1792.0	1792.0	1792.0	1766.0	1766.0	1720.0	1720.0	1720.0	1805.0	1805.0	1757.0	1757.0	1757.0	1746.0	1746.0	1783.0	1783.0	1783.0	1713.0	1713.0	1751.0	1751.0	1751.0	1727.0	1727.0	1753.0	1753.0	1753.0	1712.0	1712.0	1769.0	1769.0	1769.0	1723.0	1723.0	1776.0	1776.0	1776.0	1786.0	1786.0	1722.0	1722.0	1722.0	1713.0	1713.0	1768.0	1768.0	1768.0	1715.0	1715.0	1756.0	1756.0	1756.0	1724.0	1724.0	1729.0	1729.0	1729.0	1769.0	1769.0	1776.0	1776.0	1776.0	1810.0	1810.0	1728.0	1728.0	1728.0	1803.0	1803.0	1751.0	1751.0	1751.0	1805.0	1805.0	1816.0	1816.0	1816.0	1857.0	1857.0	1851.0	1851.0	1851.0	1813.0	1813.0	1860.0	1860.0	1860.0	1901.0	1901.0	1869.0	1869.0	1869.0	1951.0	1951.0	1970.0	1970.0	1970.0	1926.0	1926.0	1947.0	1947.0	1947.0	2041.0	2041.0	1978.0	1978.0	1978.0	2030.0	2030.0	2106.0	2106.0	2106.0	2076.0	2076.0	2146.0	2146.0	2163.0	2163.0	2163.0	2139.0	2139.0	2194.0	2194.0	2194.0	2134.0	2134.0	2233.0	2233.0	2233.0	2169.0	2169.0	2193.0	2193.0	2193.0	2280.0	2280.0	2296.0	2296.0	2296.0	2228.0	2228.0	2255.0	2255.0	2255.0	2265.0	2265.0	2342.0	2342.0	2342.0	2287.0	2287.0	2329.0	2329.0	2329.0	2311.0	2311.0	2337.0	2337.0	2337.0	2367.0	2367.0	2332.0	2332.0	2332.0	2332.0	2332.0	2358.0	2358.0	2358.0	2390.0	2390.0	2321.0	2321.0	2321.0	2332.0	2332.0	2374.0	2374.0	2374.0	2339.0	2339.0	2330.0	2330.0	2330.0	2386.0	2386.0	2381.0	2381.0	2381.0	2335.0	2335.0	2338.0	2338.0	2338.0	2400.0	2400.0	2350.0	2350.0	2350.0	2392.0	2392.0	2431.0	2431.0	2431.0	2355.0	2355.0	2354.0	2354.0	2354.0	2379.0	2379.0	2352.0	2352.0	2352.0	2363.0	2363.0	2346.0	2346.0	2346.0	2423.0	2423.0	2380.0	2380.0	2380.0	2356.0	2356.0	2361.0	2361.0	2361.0	2343.0	2343.0	2425.0	2425.0	2425.0	2386.0	2386.0	2355.0	2355.0	2355.0	2353.0	2353.0	2434.0	2434.0	2434.0	2375.0	2375.0	2372.0	2372.0	2372.0	2399.0	2399.0	2351.0	2351.0	2351.0	2387.0	2387.0	2321.0	2321.0	2321.0	2326.0	2326.0	2382.0	2382.0	2382.0	2310.0	2310.0	2383.0	2383.0	2383.0	2378.0	2378.0	2284.0	2284.0	2284.0	2345.0	2345.0	2357.0	2357.0	2357.0	2295.0	2295.0	2292.0	2292.0	2292.0	2299.0	2299.0	2265.0	2265.0	2265.0	2247.0	2247.0	2259.0	2259.0	2259.0	2242.0	2242.0	2265.0	2265.0	2265.0	2234.0	2234.0	2196.0	2196.0	2196.0	2192.0	2192.0	2183.0	2183.0	2183.0	2192.0	2192.0	2183.0	2183.0	2183.0	2152.0	2152.0	2222.0	2222.0	2222.0	2217.0	2217.0	2191.0	2191.0	2178.0	2178.0	2178.0	2186.0	2186.0	2104.0	2104.0	2104.0	2176.0	2176.0	2124.0	2124.0	2124.0	2134.0	2134.0	2073.0	2073.0	2073.0	2148.0	2148.0	2068.0	2068.0	2068.0	2135.0	2135.0	2078.0	2078.0	2078.0	2099.0	2099.0	2042.0	2042.0	2042.0	2038.0	2038.0	2035.0	2035.0	2035.0	2109.0	2109.0	2078.0	2078.0	2078.0	2045.0	2045.0	2088.0	2088.0	2088.0	2086.0	2086.0	2026.0	2026.0	2026.0	2011.0	2011.0	2015.0	2015.0	2015.0	2069.0	2069.0	2008.0	2008.0	2008.0	1984.0	1984.0	2002.0	2002.0	2002.0	1986.0	1986.0	1975.0	1975.0	1975.0	2042.0	2042.0	2038.0	2038.0	2038.0	1962.0	1962.0	1983.0	1983.0	1983.0	2034.0	2034.0	1956.0	1956.0	1956.0	2034.0	2034.0	1974.0	1974.0	1974.0	2034.0	2034.0	1995.0	1995.0	1995.0	1944.0	1944.0	2002.0	2002.0	2002.0	2021.0	2021.0	1955.0	1955.0	1955.0	1990.0	1990.0	2005.0	2005.0	2005.0	1934.0	1934.0	1942.0	1942.0	1942.0	1961.0	1961.0	1988.0	1988.0	1988.0	1919.0	1919.0	2003.0	2003.0	2003.0	1914.0	1914.0	1955.0	1955.0	1955.0	1898.0	1898.0	1920.0	1920.0	1920.0	1918.0	1918.0	1965.0	1965.0	1965.0	1908.0	1908.0	1969.0	1969.0	1969.0	1938.0	1938.0	1926.0	1926.0	1926.0	1955.0	1955.0	1906.0	1906.0	1906.0	1955.0	1955.0	1948.0	1948.0	1948.0	1947.0	1947.0	1859.0	1859.0	1859.0	1898.0	1898.0	1937.0	1937.0	1937.0	1924.0	1924.0	1855.0	1855.0	1855.0	1926.0	1926.0	1877.0	1877.0	1877.0	1872.0	1872.0	1911.0	1911.0	1911.0	1890.0	1890.0	1864.0	1864.0	1864.0	1844.0	1844.0	1860.0	1860.0	1860.0	1876.0	1876.0	1834.0	1834.0	1839.0	1839.0	1839.0	1820.0	1820.0	1823.0	1823.0	1823.0	1830.0	1830.0	1865.0	1865.0	1865.0	1879.0	1879.0	1879.0	1879.0	1879.0	1809.0	1809.0	1813.0	1813.0	1813.0	1891.0	1891.0	1810.0	1810.0	1810.0	1863.0	1863.0	1832.0	1832.0	1832.0	1806.0	1806.0	1845.0	1845.0	1845.0	1806.0	1806.0	1820.0	1820.0	1820.0	1863.0	1863.0	1822.0	1822.0	1822.0	1825.0	1825.0	1844.0	1844.0	1844.0	1862.0	1862.0	1802.0	1802.0	1802.0	1781.0	1781.0	1782.0	1782.0	1782.0	1850.0	1850.0	1836.0	1836.0	1836.0	1804.0	1804.0	1784.0	1784.0	1784.0	1830.0	1830.0	1764.0	1764.0	1764.0	1768.0	1768.0	1845.0	1845.0	1845.0	1791.0	1791.0	1833.0	1833.0	1833.0	1813.0	1813.0	1763.0	1763.0	1763.0	1825.0	1825.0	1769.0	1769.0	1769.0	1754.0	1754.0	1764.0	1764.0	1764.0	1814.0	1814.0	1816.0	1816.0	1816.0	1767.0	1767.0	1754.0	1754.0	1754.0	1747.0	1747.0	1739.0	1739.0	1739.0	1818.0	1818.0	1798.0	1798.0	1798.0	1821.0	1821.0	1741.0	1741.0	1741.0	1808.0	1808.0	1809.0	1809.0	1809.0	1727.0	1727.0	1807.0	1807.0	1807.0	1726.0	1726.0	1716.0	1716.0	1716.0	1751.0	1751.0	1743.0	1743.0	1743.0	1726.0	1726.0	1805.0	1805.0	1805.0	1755.0	1755.0	1745.0	1745.0	1745.0	1764.0	1764.0	1789.0	1789.0	1789.0	1801.0	1801.0	1764.0	1764.0	1764.0	1713.0	1713.0	1713.0	1713.0	1713.0	1782.0	1782.0	1774.0	1774.0	1774.0	1775.0	1775.0	1782.0	1782.0	1782.0	1708.0	1708.0	1768.0	1768.0	1768.0	1720.0	1720.0	1709.0	1709.0	1709.0	1766.0	1766.0	1699.0	1699.0	1699.0	1775.0	1775.0	1721.0	1721.0	1756.0	1756.0	1756.0	1749.0	1749.0	1703.0	1703.0	1703.0	1719.0	1719.0	1722.0	1722.0	1722.0	1704.0	1704.0	1740.0	1740.0	1740.0	1723.0	1723.0	1709.0	1709.0	1709.0	1742.0	1742.0	1731.0	1731.0	1731.0	1775.0	1775.0	1722.0	1722.0	1722.0	1747.0	1747.0	1827.0	1827.0	1827.0	1842.0	1842.0	1800.0	1800.0	1800.0	1816.0	1816.0	1816.0	1816.0	1816.0	1861.0	1861.0	1839.0	1839.0	1839.0	1920.0	1920.0	1886.0	1886.0	1886.0	1956.0	1956.0	1928.0	1928.0	1928.0	2019.0	2019.0	1981.0	1981.0	1981.0	2044.0	2044.0	2022.0	2022.0	2022.0	2054.0	2054.0	2051.0	2051.0	2051.0	2090.0	2090.0	2168.0	2168.0	2168.0	2107.0	2107.0	2207.0	2207.0	2207.0	2217.0	2217.0	2170.0	2170.0	2170.0	2186.0	2186.0	2182.0	2182.0	2182.0	2193.0	2193.0	2264.0	2264.0	2264.0	2212.0	2212.0	2248.0	2248.0	2248.0	2224.0	2224.0	2319.0	2319.0	2319.0	2268.0	2268.0	2304.0	2304.0	2304.0	2271.0	2271.0	2279.0	2279.0	2279.0	2334.0	2334.0	2345.0	2345.0	2345.0	2312.0	2312.0	2362.0	2362.0	2362.0	2293.0	2293.0	2368.0	2368.0	2368.0	2293.0	2293.0	2367.0	2367.0	2367.0	2335.0	2335.0	2324.0	2324.0	2324.0	2367.0	2367.0	2307.0	2307.0	2307.0	2395.0	2395.0	2366.0	2366.0	2366.0	2348.0	2348.0	2341.0	2341.0	2341.0	2339.0	2339.0	2358.0	2358.0	2358.0	2393.0	2393.0	2325.0	2325.0	2325.0	2406.0	2406.0	2408.0	2408.0	2408.0	2396.0	2396.0	2316.0	2316.0	2316.0	2346.0	2346.0	2319.0	2319.0	2319.0	2365.0	2365.0	2321.0	2321.0	2321.0	2314.0	2314.0	2336.0	2336.0	2336.0	2340.0	2340.0	2367.0	2367.0	2367.0	2359.0	2359.0	2380.0	2380.0	2376.0	2376.0	2376.0	2293.0	2293.0	2327.0	2327.0	2327.0	2340.0	2340.0	2357.0	2357.0	2357.0	2276.0	2276.0	2299.0	2299.0	2299.0	2295.0	2295.0	2267.0	2267.0	2267.0	2305.0	2305.0	2315.0	2315.0	2315.0	2239.0	2239.0	2243.0	2243.0	2243.0	2262.0	2262.0	2250.0	2250.0	2250.0	2213.0	2213.0	2246.0	2246.0	2246.0	2268.0	2268.0	2208.0	2208.0	2208.0	2173.0	2173.0	2236.0	2236.0	2236.0	2172.0	2172.0	2143.0	2143.0	2143.0	2152.0	2152.0	2149.0	2149.0	2149.0	2188.0	2188.0	2112.0	2112.0	2112.0	2165.0	2165.0	2086.0	2086.0	2086.0	2079.0	2079.0	2077.0	2077.0	2077.0	2141.0	2141.0	2057.0	2057.0	2057.0	2077.0	2077.0	2103.0	2103.0	2103.0	2048.0	2048.0	2039.0	2039.0	2039.0	2101.0	2101.0	2098.0	2098.0	2098.0	2079.0	2079.0	2082.0	2082.0	2082.0	1998.0	1998.0	2036.0	2036.0	2036.0	2049.0	2049.0	2029.0	2029.0	2029.0	2064.0	2064.0	2001.0	2001.0	2001.0	1975.0	1975.0	1982.0	1982.0	1982.0	2011.0	2011.0	1969.0	1969.0	1969.0	1986.0	1986.0	2036.0	2036.0	2036.0	2015.0	2015.0	1990.0	1990.0	1990.0	2026.0	2026.0	1952.0	1952.0	1952.0	1970.0	1970.0	1973.0	1973.0	1973.0	2022.0	2022.0	1959.0	1959.0	1959.0	1944.0	1944.0	1934.0	1934.0	1934.0	1990.0	1990.0	1921.0	1921.0	1921.0	1915.0	1915.0	1999.0	1999.0	1999.0	1984.0	1984.0	1911.0	1911.0	1911.0	1936.0	1936.0	1988.0	1988.0	1988.0	1943.0	1943.0	1967.0	1967.0	1967.0	1972.0	1972.0	1938.0	1938.0	1938.0	1925.0	1925.0	1890.0	1890.0	1890.0	1887.0	1887.0	1913.0	1913.0	1913.0	1890.0	1890.0	1956.0	1956.0	1919.0	1919.0	1919.0	1887.0	1887.0	1895.0	1895.0	1895.0	1879.0	1879.0	1863.0	1863.0	1863.0	1925.0	1925.0	1887.0	1887.0	1887.0	1889.0	1889.0	1911.0	1911.0	1911.0	1858.0	1858.0	1842.0	1842.0	1842.0	1844.0	1844.0	1837.0	1837.0	1837.0	1828.0	1828.0	1919.0	1919.0	1919.0	1835.0	1835.0	1829.0	1829.0	1829.0	1827.0	1827.0	1862.0	1862.0	1862.0	1824.0	1824.0	1886.0	1886.0	1886.0	1852.0	1852.0	1845.0	1845.0	1845.0	1861.0	1861.0	1876.0	1876.0	1876.0	1867.0	1867.0	1849.0	1849.0	1849.0	1796.0	1796.0	1851.0	1851.0	1851.0	1792.0	1792.0	1856.0	1856.0	1856.0	1865.0	1865.0	1782.0	1782.0	1782.0	1779.0	1779.0	1774.0	1774.0	1774.0	1780.0	1780.0	1801.0	1801.0	1801.0	1807.0	1807.0	1808.0	1808.0	1808.0	1781.0	1781.0	1785.0	1785.0	1785.0	1813.0	1813.0	1837.0	1837.0	1837.0	1842.0	1842.0	1831.0	1831.0	1831.0	1836.0	1836.0	1790.0	1790.0	1790.0	1754.0	1754.0	1827.0	1827.0	1827.0	1839.0	1839.0	1802.0	1802.0	1802.0	1754.0	1754.0	1754.0	1754.0	1754.0	1761.0	1761.0	1804.0	1804.0	1804.0	1826.0	1826.0	1766.0	1766.0	1766.0	1786.0	1786.0	1759.0	1759.0	1759.0	1781.0	1781.0	1783.0	1783.0	1783.0	1745.0	1745.0	1794.0	1794.0	1794.0	1728.0	1728.0	1815.0	1815.0	1815.0	1743.0	1743.0	1804.0	1804.0	1804.0	1799.0	1799.0	1804.0	1804.0	1804.0	1786.0	1786.0	1727.0	1727.0	1727.0	1764.0	1764.0	1714.0	1714.0	1714.0	1777.0	1777.0	1769.0	1769.0	1769.0	1800.0	1800.0	1742.0	1742.0	1742.0	1757.0	1757.0	1781.0	1781.0	1781.0	1740.0	1740.0	1727.0	1727.0	1782.0	1782.0	1782.0	1716.0	1716.0	1722.0	1722.0	1722.0	1788.0	1788.0	1747.0	1747.0	1747.0	1790.0	1790.0	1781.0	1781.0	1781.0	1777.0	1777.0	1744.0	1744.0	1744.0	1706.0	1706.0	1744.0	1744.0	1744.0	1724.0	1724.0	1778.0	1778.0	1778.0	1723.0	1723.0	1715.0	1715.0	1715.0	1766.0	1766.0	1687.0	1687.0	1687.0	1691.0	1691.0	1691.0	1691.0	1691.0	1690.0	1690.0	1706.0	1706.0	1706.0	1693.0	1693.0	1756.0	1756.0	1756.0	1745.0	1745.0	1679.0	1679.0	1679.0	1690.0	1690.0	1707.0	1707.0	1707.0	