4095.0	4095.0	4095.0	4095.0	4095.0	4095.0	4095.0	4095.0	4095.0	4095.0	4095.0	4095.0	4095.0	4095.0	4095.0	4095.0	4095.0	4095.0	4095.0	4095.0	4095.0	4095.0	4095.0	4095.0	4095.0	4095.0	4095.0	4095.0	4095.0	4095.0	4095.0	4095.0	4095.0	4095.0	4095.0	4095.0	4095.0	4095.0	4095.0	4095.0	4090.0	4090.0	4091.0	4091.0	4091.0	4095.0	4095.0	4095.0	4095.0	4095.0	4095.0	4095.0	4095.0	4095.0	4095.0	4095.0	4095.0	4095.0	4095.0	4095.0	4095.0	4095.0	4095.0	4095.0	4095.0	4095.0	4095.0	4095.0	4095.0	4095.0	4095.0	4095.0	4095.0	4095.0	4095.0	4095.0	4095.0	4094.0	4094.0	4095.0	4095.0	4095.0	4095.0	4095.0	4095.0	4095.0	4095.0	4095.0	4095.0	4095.0	4095.0	4095.0	4095.0	4095.0	4095.0	4095.0	4095.0	4092.0	4092.0	4095.0	4095.0	4095.0	4095.0	4095.0	4094.0	4094.0	4094.0	4092.0	4092.0	4095.0	4095.0	4095.0	4095.0	4095.0	4095.0	4095.0	4095.0	4095.0	4095.0	4095.0	4095.0	4095.0	4094.0	4094.0	4095.0	4095.0	4095.0	4095.0	4095.0	4095.0	4095.0	4095.0	4095.0	4095.0	4095.0	4095.0	4095.0	4094.0	4094.0	4091.0	4091.0	4091.0	4095.0	4095.0	4095.0	4095.0	4095.0	4095.0	4095.0	4095.0	4095.0	4095.0	4095.0	4095.0	4095.0	4095.0	4095.0	4095.0	4095.0	4095.0	4095.0	4095.0	4095.0	4095.0	4095.0	4095.0	4095.0	4095.0	4095.0	4095.0	4095.0	4095.0	4095.0	4095.0	4095.0	4095.0	4095.0	4094.0	4094.0	4094.0	4094.0	4094.0	4094.0	4094.0	4095.0	4095.0	4095.0	4095.0	4095.0	4095.0	4095.0	4095.0	4095.0	4095.0	4092.0	4092.0	4092.0	4094.0	4094.0	4095.0	4095.0	4095.0	4095.0	4095.0	4092.0	4092.0	4092.0	4094.0	4094.0	4095.0	4095.0	4095.0	4095.0	4095.0	4090.0	4090.0	4090.0	4095.0	4095.0	4093.0	4093.0	4093.0	4095.0	4095.0	4095.0	4095.0	4095.0	4095.0	4095.0	4095.0	4095.0	4095.0	4095.0	4095.0	4095.0	4095.0	4095.0	4095.0	4095.0	4095.0	4095.0	4095.0	4093.0	4093.0	4095.0	4095.0	4095.0	4095.0	4095.0	4095.0	4095.0	4095.0	4095.0	4095.0	4095.0	4095.0	4095.0	4095.0	4095.0	4095.0	4095.0	4095.0	4095.0	4095.0	4095.0	4095.0	4095.0	4095.0	4095.0	4095.0	4095.0	4095.0	4095.0	4095.0	4095.0	4095.0	4095.0	4095.0	4095.0	4095.0	4095.0	4095.0	4095.0	4095.0	4095.0	4095.0	4094.0	4094.0	4094.0	4095.0	4095.0	4095.0	4095.0	4095.0	4095.0	4095.0	4090.0	4090.0	4090.0	4095.0	4095.0	4095.0	4095.0	4095.0	4094.0	4094.0	4095.0	4095.0	4095.0	4095.0	4095.0	4095.0	4095.0	4095.0	4095.0	4095.0	4092.0	4092.0	4092.0	4095.0	4095.0	4095.0	4095.0	4095.0	4093.0	4093.0	4095.0	4095.0	4095.0	4095.0	4095.0	4095.0	4095.0	4095.0	4095.0	4095.0	4094.0	4094.0	4094.0	4095.0	4095.0	4095.0	4095.0	4095.0	4095.0	4095.0	4093.0	4093.0	4093.0	4095.0	4095.0	4095.0	4095.0	4095.0	4093.0	4093.0	4095.0	4095.0	4095.0	4094.0	4094.0	4095.0	4095.0	4095.0	4092.0	4092.0	4095.0	4095.0	4095.0	4090.0	4090.0	4095.0	4095.0	4095.0	4095.0	4095.0	4095.0	4095.0	4095.0	4095.0	4095.0	4095.0	4095.0	4095.0	4095.0	4095.0	4093.0	4093.0	4093.0	4095.0	4095.0	4095.0	4095.0	4095.0	4095.0	4095.0	4095.0	4095.0	4095.0	4095.0	4095.0	4095.0	4095.0	4095.0	4095.0	4095.0	4095.0	4095.0	4095.0	4095.0	4095.0	4095.0	4095.0	4095.0	4095.0	4095.0	4095.0	4095.0	4095.0	4095.0	4095.0	4091.0	4091.0	4091.0	4090.0	4090.0	4095.0	4095.0	4095.0	4095.0	4095.0	4095.0	4095.0	4095.0	4094.0	4094.0	4095.0	4095.0	4095.0	4095.0	4095.0	4088.0	4088.0	4088.0	4095.0	4095.0	4095.0	4095.0	4095.0	4095.0	4095.0	4094.0	4094.0	4094.0	4094.0	4094.0	4095.0	4095.0	4094.0	4094.0	4094.0	4095.0	4095.0	4095.0	4095.0	4095.0	4095.0	4095.0	4095.0	4095.0	4095.0	4095.0	4095.0	4095.0	4095.0	4095.0	4095.0	4095.0	4095.0	4095.0	4095.0	4094.0	4094.0	4095.0	4095.0	4095.0	4095.0	4095.0	4095.0	4095.0	4095.0	4095.0	4095.0	4092.0	4092.0	4092.0	4095.0	4095.0	4094.0	4094.0	4094.0	4095.0	4095.0	4095.0	4095.0	4095.0	4095.0	4095.0	4095.0	4095.0	4095.0	4095.0	4095.0	4093.0	4093.0	4093.0	4095.0	4095.0	4095.0	4095.0	4095.0	4095.0	4095.0	4095.0	4095.0	4095.0	4095.0	4095.0	4095.0	4095.0	4095.0	4094.0	4094.0	4095.0	4095.0	4095.0	4095.0	4095.0	4095.0	4095.0	4095.0	4094.0	4094.0	4095.0	4095.0	4095.0	4095.0	4095.0	4095.0	4095.0	4095.0	4095.0	4095.0	4095.0	4095.0	4095.0	4095.0	4095.0	4095.0	4095.0	4095.0	4095.0	4095.0	4094.0	4094.0	4094.0	4095.0	4095.0	4095.0	4095.0	4095.0	4095.0	4095.0	4095.0	4095.0	4095.0	4095.0	4095.0	4095.0	4095.0	4095.0	4095.0	4095.0	4095.0	4095.0	4095.0	4095.0	4095.0	4095.0	4095.0	4095.0	4095.0	4095.0	4094.0	4094.0	4094.0	4095.0	4095.0	4095.0	4095.0	4095.0	4095.0	4095.0	4095.0	4095.0	4095.0	4095.0	4095.0	4095.0	4095.0	4095.0	4095.0	4095.0	4093.0	4093.0	4093.0	4095.0	4095.0	4094.0	4094.0	4094.0	4095.0	4095.0	4094.0	4094.0	4094.0	4095.0	4095.0	4095.0	4095.0	4095.0	4095.0	4095.0	4095.0	4095.0	4095.0	4095.0	4095.0	4094.0	4094.0	4094.0	4094.0	4094.0	4095.0	4095.0	4095.0	4095.0	4095.0	4095.0	4095.0	4095.0	4095.0	4095.0	4095.0	4095.0	4095.0	4095.0	4095.0	4095.0	4095.0	4095.0	4095.0	4095.0	4095.0	4095.0	4095.0	4095.0	4095.0	4095.0	4095.0	4095.0	4095.0	4095.0	4095.0	4095.0	4095.0	4095.0	4095.0	4095.0	4095.0	4095.0	4095.0	4095.0	4094.0	4094.0	4095.0	4095.0	4095.0	4090.0	4090.0	4095.0	4095.0	4095.0	4095.0	4095.0	4094.0	4094.0	4094.0	4095.0	4095.0	4094.0	4094.0	4094.0	4095.0	4095.0	4095.0	4095.0	4095.0	4095.0	4095.0	4095.0	4095.0	4095.0	4095.0	4095.0	4094.0	4094.0	4094.0	4094.0	4094.0	4095.0	4095.0	4095.0	4095.0	4095.0	4095.0	4095.0	4095.0	4094.0	4094.0	4095.0	4095.0	4095.0	4095.0	4095.0	4095.0	4095.0	4095.0	4095.0	4095.0	4094.0	4094.0	4094.0	4095.0	4095.0	4095.0	4095.0	4095.0	4095.0	4095.0	4095.0	4095.0	4095.0	4094.0	4094.0	4095.0	4095.0	4095.0	4095.0	4095.0	4093.0	4093.0	4093.0	4095.0	4095.0	4095.0	4095.0	4095.0	4095.0	4095.0	4095.0	4095.0	4095.0	4095.0	4095.0	4094.0	4094.0	4094.0	4095.0	4095.0	4095.0	4095.0	4095.0	4093.0	4093.0	4095.0	4095.0	4095.0	4094.0	4094.0	4095.0	4095.0	4095.0	4094.0	4094.0	4095.0	4095.0	4095.0	4095.0	4095.0	4095.0	4095.0	4095.0	4092.0	4092.0	4095.0	4095.0	4095.0	4095.0	4095.0	4095.0	4095.0	4095.0	4095.0	4095.0	4095.0	4095.0	4095.0	4095.0	4095.0	4095.0	4095.0	4095.0	4095.0	4095.0	4095.0	4095.0	4095.0	4094.0	4094.0	4095.0	4095.0	4095.0	4095.0	4095.0	4095.0	4095.0	4095.0	4095.0	4095.0	4092.0	4092.0	4092.0	4095.0	4095.0	4095.0	4095.0	4095.0	4095.0	4095.0	4095.0	4095.0	4095.0	4095.0	4095.0	4095.0	4095.0	4095.0	4093.0	4093.0	4095.0	4095.0	4095.0	4094.0	4094.0	4092.0	4092.0	4095.0	4095.0	4095.0	4095.0	4095.0	4095.0	4095.0	4095.0	4095.0	4095.0	4095.0	4095.0	4095.0	4095.0	4095.0	4095.0	4095.0	4095.0	4095.0	4095.0	4095.0	4095.0	4095.0	4095.0	4095.0	4095.0	4095.0	4095.0	4095.0	4095.0	4095.0	4095.0	4095.0	4095.0	4095.0	4095.0	4095.0	4095.0	4095.0	4095.0	4095.0	4095.0	4095.0	4095.0	4095.0	4095.0	4095.0	4095.0	4095.0	4095.0	4095.0	4095.0	4095.0	4095.0	4095.0	4095.0	4095.0	4095.0	4095.0	4095.0	4095.0	4095.0	4095.0	4089.0	4089.0	4095.0	4095.0	4095.0	4095.0	4095.0	4095.0	4095.0	4095.0	4095.0	4095.0	4094.0	4094.0	4094.0	4095.0	4095.0	4095.0	4095.0	4095.0	4094.0	4094.0	4094.0	4094.0	4094.0	4095.0	4095.0	4095.0	4095.0	4095.0	4094.0	4094.0	4095.0	4095.0	4095.0	4095.0	4095.0	4095.0	4095.0	4095.0	4091.0	4091.0	4095.0	4095.0	4095.0	4095.0	4095.0	4095.0	4095.0	4095.0	4095.0	4095.0	4090.0	4090.0	4090.0	4093.0	4093.0	4094.0	4094.0	4094.0	4095.0	4095.0	4095.0	4095.0	4095.0	4095.0	4095.0	4095.0	4095.0	4095.0	4095.0	4095.0	4095.0	4095.0	4095.0	4094.0	4094.0	4095.0	4095.0	4095.0	4095.0	4095.0	4095.0	4095.0	4095.0	4095.0	4095.0	4095.0	4095.0	4095.0	4094.0	4094.0	4095.0	4095.0	4095.0	4095.0	4095.0	4095.0	4095.0	4095.0	4095.0	4095.0	4095.0	4095.0	4095.0	4094.0	4094.0	4095.0	4095.0	4095.0	4095.0	4095.0	4095.0	4095.0	4095.0	4095.0	4095.0	4094.0	4094.0	4094.0	4095.0	4095.0	4093.0	4093.0	4093.0	4095.0	4095.0	4094.0	4094.0	4094.0	4095.0	4095.0	4095.0	4095.0	4095.0	4095.0	4095.0	4095.0	4095.0	4095.0	4095.0	4095.0	4095.0	4095.0	4095.0	4095.0	4095.0	4095.0	4095.0	4095.0	4095.0	4095.0	4095.0	4095.0	4095.0	4095.0	4095.0	4095.0	4095.0	4095.0	4095.0	4095.0	4095.0	4095.0	4095.0	4095.0	4095.0	4095.0	4095.0	4095.0	4095.0	4095.0	4095.0	4095.0	4095.0	4095.0	4095.0	4094.0	4094.0	4095.0	4095.0	4095.0	4095.0	4095.0	4095.0	4095.0	4095.0	4095.0	4095.0	4095.0	4095.0	4095.0	4095.0	4095.0	4095.0	4095.0	4095.0	4095.0	4095.0	4095.0	4095.0	4095.0	4095.0	4095.0	4093.0	4093.0	4093.0	4095.0	4095.0	4095.0	4095.0	4095.0	4094.0	4094.0	4095.0	4095.0	4095.0	4095.0	4095.0	4095.0	4095.0	4095.0	4095.0	4095.0	4095.0	4095.0	4095.0	4095.0	4095.0	4094.0	4094.0	4094.0	4095.0	4095.0	4095.0	4095.0	4095.0	4095.0	4095.0	4095.0	4095.0	4095.0	4094.0	4094.0	4095.0	4095.0	4095.0	4094.0	4094.0	4095.0	4095.0	4095.0	4095.0	4095.0	4095.0	4095.0	4095.0	4095.0	4095.0	4095.0	4095.0	4095.0	4092.0	4092.0	4095.0	4095.0	4095.0	4095.0	4095.0	4095.0	4095.0	4095.0	4095.0	4095.0	4095.0	4095.0	4095.0	4095.0	4095.0	4095.0	4095.0	4095.0	4095.0	4095.0	4095.0	4095.0	4095.0	4095.0	4095.0	4095.0	4095.0	4095.0	4095.0	4095.0	4095.0	4095.0	4095.0	4095.0	4095.0	4095.0	4095.0	4095.0	4094.0	4094.0	4095.0	4095.0	4095.0	4095.0	4095.0	4095.0	4095.0	4095.0	4095.0	4095.0	4095.0	4095.0	4095.0	4095.0	4095.0	4095.0	4095.0	4095.0	4095.0	4095.0	4095.0	4095.0	4095.0	4095.0	4095.0	4095.0	4095.0	4095.0	4095.0	4095.0	4095.0	4095.0	4095.0	4094.0	4094.0	4095.0	4095.0	4095.0	4095.0	4095.0	4095.0	4095.0	4095.0	4095.0	4095.0	4095.0	4095.0	4095.0	4095.0	4095.0	4095.0	4095.0	4095.0	4095.0	4095.0	4095.0	4095.0	4095.0	4095.0	4095.0	4095.0	4095.0	4095.0	4095.0	4095.0	4095.0	4095.0	4095.0	4095.0	4095.0	4095.0	4095.0	4095.0	4095.0	4095.0	4095.0	4095.0	4095.0	4095.0	4095.0	4094.0	4094.0	4094.0	4094.0	4094.0	4095.0	4095.0	4095.0	4095.0	4095.0	4095.0	4095.0	4093.0	4093.0	4093.0	4095.0	4095.0	4095.0	4095.0	4095.0	4095.0	4095.0	4095.0	4095.0	4095.0	4095.0	4095.0	4095.0	4095.0	4095.0	4095.0	4095.0	4093.0	4093.0	4093.0	4095.0	4095.0	4095.0	4095.0	4095.0	4095.0	4095.0	4095.0	4095.0	4095.0	4095.0	4095.0	4091.0	4091.0	4091.0	4095.0	4095.0	4095.0	4095.0	4095.0	4095.0	4095.0	4095.0	4095.0	4095.0	4095.0	4095.0	4095.0	4095.0	4095.0	4095.0	4095.0	4095.0	4095.0	4095.0	4095.0	4095.0	4095.0	4095.0	4095.0	4095.0	4095.0	4095.0	4095.0	4095.0	4095.0	4095.0	4095.0	4095.0	4095.0	4095.0	4095.0	4095.0	4095.0	4095.0	4095.0	4095.0	4095.0	4095.0	4095.0	4095.0	4095.0	4095.0	4095.0	4095.0	4095.0	4095.0	4095.0	4095.0	4095.0	4095.0	4095.0	4095.0	4095.0	4095.0	4095.0	4095.0	4092.0	4092.0	4092.0	4094.0	4094.0	4095.0	4095.0	4095.0	4095.0	4095.0	4095.0	4095.0	4095.0	4095.0	4095.0	4095.0	4095.0	4095.0	4095.0	4095.0	4095.0	4095.0	4095.0	4091.0	4091.0	4095.0	4095.0	4095.0	4095.0	4095.0	4095.0	4095.0	4095.0	4095.0	4095.0	4095.0	4095.0	4095.0	4095.0	4095.0	4092.0	4092.0	4092.0	4095.0	4095.0	4095.0	4095.0	4095.0	4095.0	4095.0	4095.0	4095.0	4095.0	4095.0	4095.0	4095.0	4095.0	4095.0	4095.0	4095.0	4095.0	4095.0	4095.0	4095.0	4095.0	4095.0	4095.0	4095.0	4095.0	4095.0	4095.0	4095.0	4095.0	4095.0	4095.0	4095.0	4095.0	4095.0	4095.0	4095.0	4094.0	4094.0	4092.0	4092.0	4092.0	4094.0	4094.0	4095.0	4095.0	4095.0	4095.0	4095.0	4095.0	4095.0	4095.0	4095.0	4095.0	4095.0	4095.0	4095.0	4095.0	4095.0	4095.0	4095.0	4095.0	4091.0	4091.0	4095.0	4095.0	4095.0	4095.0	4095.0	4095.0	4095.0	4095.0	4093.0	4093.0	4093.0	4093.0	4093.0	4095.0	4095.0	4095.0	4095.0	4095.0	4095.0	4095.0	4095.0	4095.0	4095.0	4095.0	4095.0	4095.0	4095.0	4095.0	4095.0	4095.0	4095.0	4095.0	4095.0	4095.0	4095.0	4095.0	4095.0	4095.0	4095.0	4095.0	4094.0	4094.0	4094.0	4094.0	4094.0	4095.0	4095.0	4095.0	4095.0	4095.0	4095.0	4095.0	4095.0	4095.0	4095.0	4093.0	4093.0	4093.0	4095.0	4095.0	4093.0	4093.0	4093.0	4094.0	4094.0	4095.0	4095.0	4095.0	4095.0	4095.0	4091.0	4091.0	4091.0	4090.0	4090.0	4092.0	4092.0	4092.0	4095.0	4095.0	4095.0	4095.0	4095.0	4095.0	4095.0	4094.0	4094.0	4094.0	4095.0	4095.0	4095.0	4095.0	4095.0	4095.0	4095.0	4095.0	4095.0	4095.0	4094.0	4094.0	4095.0	4095.0	4095.0	4095.0	4095.0	4095.0	4095.0	4095.0	4095.0	4095.0	4095.0	4095.0	4095.0	4095.0	4095.0	4095.0	4095.0	4095.0	4090.0	4090.0	4094.0	4094.0	4094.0	4095.0	4095.0	4095.0	4095.0	4095.0	4095.0	4095.0	4095.0	4095.0	4095.0	4095.0	4095.0	4095.0	4095.0	4095.0	4095.0	4095.0	4095.0	4095.0	4095.0	4095.0	4095.0	4095.0	4095.0	4094.0	4094.0	4094.0	4095.0	4095.0	4095.0	4095.0	4095.0	4094.0	4094.0	4095.0	4095.0	4095.0	4095.0	4095.0	4095.0	4095.0	4095.0	4095.0	4095.0	4095.0	4095.0	4095.0	4095.0	4095.0	4095.0	4095.0	4095.0	4093.0	4093.0	4087.0	4087.0	4087.0	4078.0	4078.0	4070.0	4070.0	4070.0	4059.0	4059.0	4055.0	4055.0	4055.0	4027.0	4027.0	4027.0	4027.0	4027.0	4007.0	4007.0	3962.0	3962.0	3962.0	3945.0	3945.0	3970.0	3970.0	3970.0	3912.0	3912.0	3896.0	3896.0	3896.0	3903.0	3903.0	3888.0	3888.0	3888.0	3879.0	3879.0	3847.0	3847.0	3847.0	3827.0	3827.0	3805.0	3805.0	3805.0	3788.0	3788.0	3787.0	3787.0	3787.0	3751.0	3751.0	3731.0	3731.0	3731.0	3741.0	3741.0	3721.0	3721.0	3721.0	3684.0	3684.0	3674.0	3674.0	3674.0	3647.0	3647.0	3643.0	3643.0	3643.0	3614.0	3614.0	3599.0	3599.0	3599.0	3620.0	3620.0	3562.0	3562.0	3562.0	3549.0	3549.0	3578.0	3578.0	3578.0	3538.0	3538.0	3509.0	3509.0	3509.0	3503.0	3503.0	3502.0	3502.0	3502.0	3487.0	3487.0	3449.0	3449.0	3449.0	3453.0	3453.0	3453.0	3453.0	3453.0	3390.0	3390.0	3392.0	3392.0	3392.0	3374.0	3374.0	3397.0	3397.0	3397.0	3363.0	3363.0	3367.0	3367.0	3367.0	3375.0	3375.0	3331.0	3331.0	3331.0	3335.0	3335.0	3280.0	3280.0	3280.0	3314.0	3314.0	3273.0	3273.0	3273.0	3274.0	3274.0	3233.0	3233.0	3233.0	3220.0	3220.0	3206.0	3206.0	3206.0	3201.0	3201.0	3220.0	3220.0	3220.0	3208.0	3208.0	3166.0	3166.0	3166.0	3187.0	3187.0	3169.0	3169.0	3169.0	3159.0	3159.0	3127.0	3127.0	3127.0	3099.0	3099.0	3091.0	3091.0	3091.0	3096.0	3096.0	3082.0	3082.0	3095.0	3095.0	3095.0	3043.0	3043.0	3035.0	3035.0	3035.0	3070.0	3070.0	3053.0	3053.0	3053.0	3020.0	3020.0	2998.0	2998.0	2998.0	3006.0	3006.0	2973.0	2973.0	2973.0	3012.0	3012.0	2967.0	2967.0	2967.0	2948.0	2948.0	2947.0	2947.0	2947.0	2937.0	2937.0	2936.0	2936.0	2936.0	2899.0	2899.0	2899.0	2899.0	2899.0	2896.0	2896.0	2869.0	2869.0	2869.0	2857.0	2857.0	2864.0	2864.0	2864.0	2852.0	2852.0	2831.0	2831.0	2831.0	2861.0	2861.0	2839.0	2839.0	2839.0	2851.0	2851.0	2812.0	2812.0	2812.0	2808.0	2808.0	2787.0	2787.0	2787.0	2805.0	2805.0	2763.0	2763.0	2763.0	2771.0	2771.0	2738.0	2738.0	2738.0	2786.0	2786.0	2771.0	2771.0	2771.0	2727.0	2727.0	2721.0	2721.0	2721.0	2748.0	2748.0	2722.0	2722.0	2722.0	2727.0	2727.0	2679.0	2679.0	2679.0	2693.0	2693.0	2690.0	2690.0	2690.0	2682.0	2682.0	2673.0	2673.0	2673.0	2659.0	2659.0	2638.0	2638.0	2638.0	2655.0	2655.0	2645.0	2645.0	2645.0	2626.0	2626.0	2644.0	2644.0	2644.0	2648.0	2648.0	2627.0	2627.0	2627.0	2625.0	2625.0	2589.0	2589.0	2589.0	2608.0	2608.0	2567.0	2567.0	2567.0	2568.0	2568.0	2576.0	2576.0	2576.0	2594.0	2594.0	2567.0	2567.0	2567.0	2561.0	2561.0	2537.0	2537.0	2537.0	2518.0	2518.0	2534.0	2534.0	2534.0	2531.0	2531.0	2528.0	2528.0	2528.0	2516.0	2516.0	2514.0	2514.0	2514.0	2504.0	2504.0	2496.0	2496.0	2496.0	2464.0	2464.0	2476.0	2476.0	2476.0	2490.0	2490.0	2510.0	2510.0	2510.0	2452.0	2452.0	2442.0	2442.0	2442.0	2440.0	2440.0	2424.0	2424.0	2424.0	2462.0	2462.0	2449.0	2449.0	2416.0	2416.0	2416.0	2431.0	2431.0	2427.0	2427.0	2427.0	2410.0	2410.0	2413.0	