1863.0	1818.0	1818.0	1818.0	1737.0	1737.0	1695.0	1695.0	1695.0	1644.0	1644.0	1623.0	1623.0	1623.0	1548.0	1548.0	1587.0	1587.0	1587.0	1517.0	1517.0	1525.0	1525.0	1525.0	1562.0	1562.0	1540.0	1540.0	1540.0	1506.0	1506.0	1540.0	1540.0	1540.0	1499.0	1499.0	1511.0	1511.0	1511.0	1530.0	1530.0	1547.0	1547.0	1547.0	1559.0	1559.0	1503.0	1503.0	1503.0	1532.0	1532.0	1563.0	1563.0	1563.0	1578.0	1578.0	1561.0	1561.0	1561.0	1565.0	1565.0	1536.0	1536.0	1536.0	1545.0	1545.0	1536.0	1536.0	1536.0	1553.0	1553.0	1533.0	1533.0	1533.0	1560.0	1560.0	1537.0	1537.0	1537.0	1568.0	1568.0	1587.0	1587.0	1596.0	1596.0	1596.0	1581.0	1581.0	1577.0	1577.0	1577.0	1572.0	1572.0	1567.0	1567.0	1567.0	1625.0	1625.0	1611.0	1611.0	1611.0	1610.0	1610.0	1624.0	1624.0	1624.0	1634.0	1634.0	1567.0	1567.0	1567.0	1579.0	1579.0	1642.0	1642.0	1642.0	1620.0	1620.0	1582.0	1582.0	1582.0	1578.0	1578.0	1582.0	1582.0	1582.0	1606.0	1606.0	1606.0	1606.0	1606.0	1619.0	1619.0	1655.0	1655.0	1655.0	1634.0	1634.0	1631.0	1631.0	1631.0	1629.0	1629.0	1637.0	1637.0	1637.0	1624.0	1624.0	1652.0	1652.0	1652.0	1617.0	1617.0	1666.0	1666.0	1666.0	1611.0	1611.0	1652.0	1652.0	1652.0	1668.0	1668.0	1627.0	1627.0	1627.0	1622.0	1622.0	1635.0	1635.0	1635.0	1626.0	1626.0	1632.0	1632.0	1632.0	1662.0	1662.0	1648.0	1648.0	1648.0	1651.0	1651.0	1678.0	1678.0	1678.0	1632.0	1632.0	1692.0	1692.0	1692.0	1650.0	1650.0	1639.0	1639.0	1639.0	1649.0	1649.0	1648.0	1648.0	1648.0	1669.0	1669.0	1650.0	1650.0	1650.0	1637.0	1637.0	1650.0	1650.0	1650.0	1636.0	1636.0	1674.0	1674.0	1674.0	1664.0	1664.0	1696.0	1696.0	1696.0	1701.0	1701.0	1647.0	1647.0	1647.0	1699.0	1699.0	1687.0	1687.0	1687.0	1711.0	1711.0	1667.0	1667.0	1667.0	1678.0	1678.0	1684.0	1684.0	1684.0	1675.0	1675.0	1711.0	1711.0	1711.0	1674.0	1674.0	1679.0	1679.0	1679.0	1713.0	1713.0	1710.0	1710.0	1710.0	1726.0	1726.0	1657.0	1657.0	1657.0	1678.0	1678.0	1706.0	1706.0	1706.0	1731.0	1731.0	1702.0	1702.0	1702.0	1699.0	1699.0	1694.0	1694.0	1694.0	1682.0	1682.0	1659.0	1659.0	1659.0	1665.0	1665.0	1693.0	1693.0	1693.0	1676.0	1676.0	1726.0	1726.0	1729.0	1729.0	1729.0	1674.0	1674.0	1682.0	1682.0	1682.0	1672.0	1672.0	1738.0	1738.0	1738.0	1695.0	1695.0	1738.0	1738.0	1738.0	1679.0	1679.0	1722.0	1722.0	1722.0	1711.0	1711.0	1739.0	1739.0	1739.0	1673.0	1673.0	1699.0	1699.0	1699.0	1702.0	1702.0	1739.0	1739.0	1739.0	1714.0	1714.0	1714.0	1714.0	1714.0	1728.0	1728.0	1676.0	1676.0	1676.0	1673.0	1673.0	1687.0	1687.0	1687.0	1683.0	1683.0	1732.0	1732.0	1732.0	1687.0	1687.0	1678.0	1678.0	1678.0	1715.0	1715.0	1676.0	1676.0	1676.0	1689.0	1689.0	1702.0	1702.0	1702.0	1683.0	1683.0	1701.0	1701.0	1701.0	1711.0	1711.0	1712.0	1712.0	1712.0	1691.0	1691.0	1728.0	1728.0	1728.0	1710.0	1710.0	1747.0	1747.0	1747.0	1701.0	1701.0	1749.0	1749.0	1749.0	1701.0	1701.0	1707.0	1707.0	1707.0	1729.0	1729.0	1706.0	1706.0	1706.0	1730.0	1730.0	1730.0	1730.0	1730.0	1777.0	1777.0	1799.0	1799.0	1799.0	1753.0	1753.0	1759.0	1759.0	1759.0	1797.0	1797.0	1765.0	1765.0	1765.0	1777.0	1777.0	1809.0	1809.0	1809.0	1836.0	1836.0	1779.0	1779.0	1779.0	1831.0	1831.0	1814.0	1814.0	1814.0	1842.0	1842.0	1827.0	1827.0	1827.0	1823.0	1823.0	1859.0	1859.0	1859.0	1848.0	1848.0	1864.0	1864.0	1864.0	1897.0	1897.0	1919.0	1919.0	1919.0	1928.0	1928.0	1953.0	1953.0	1953.0	1899.0	1899.0	1953.0	1953.0	1953.0	1958.0	1958.0	1924.0	1924.0	1924.0	1967.0	1967.0	1974.0	1974.0	1974.0	2002.0	2002.0	1944.0	1944.0	1944.0	1950.0	1950.0	1956.0	1956.0	1956.0	1960.0	1960.0	1993.0	1993.0	1993.0	2004.0	2004.0	2033.0	2033.0	2009.0	2009.0	2009.0	2018.0	2018.0	2019.0	2019.0	2019.0	1998.0	1998.0	2061.0	2061.0	2061.0	2019.0	2019.0	2029.0	2029.0	2029.0	2054.0	2054.0	2045.0	2045.0	2045.0	2066.0	2066.0	2016.0	2016.0	2016.0	2042.0	2042.0	2061.0	2061.0	2061.0	2036.0	2036.0	2090.0	2090.0	2090.0	2074.0	2074.0	2042.0	2042.0	2042.0	2090.0	2090.0	2062.0	2062.0	2062.0	2083.0	2083.0	2047.0	2047.0	2047.0	2084.0	2084.0	2106.0	2106.0	2106.0	2062.0	2062.0	2052.0	2052.0	2052.0	2091.0	2091.0	2057.0	2057.0	2057.0	2065.0	2065.0	2079.0	2079.0	2079.0	2085.0	2085.0	2123.0	2123.0	2123.0	2091.0	2091.0	2071.0	2071.0	2071.0	2097.0	2097.0	2132.0	2132.0	2132.0	2115.0	2115.0	2117.0	2117.0	2117.0	2074.0	2074.0	2095.0	2095.0	2095.0	2084.0	2084.0	2071.0	2071.0	2071.0	2078.0	2078.0	2084.0	2084.0	2084.0	2082.0	2082.0	2098.0	2098.0	2098.0	2124.0	2124.0	2089.0	2089.0	2089.0	2107.0	2107.0	2115.0	2115.0	2115.0	2091.0	2091.0	2104.0	2104.0	2104.0	2079.0	2079.0	2119.0	2119.0	2119.0	2131.0	2131.0	2116.0	2116.0	2116.0	2096.0	2096.0	2074.0	2074.0	2074.0	2069.0	2069.0	2116.0	2116.0	2116.0	2127.0	2127.0	2119.0	2119.0	2119.0	2075.0	2075.0	2112.0	2112.0	2112.0	2103.0	2103.0	2107.0	2107.0	2107.0	2058.0	2058.0	2061.0	2061.0	2061.0	2051.0	2051.0	2069.0	2069.0	2069.0	2101.0	2101.0	2056.0	2056.0	2056.0	2051.0	2051.0	2063.0	2063.0	2063.0	2095.0	2095.0	2091.0	2091.0	2091.0	2040.0	2040.0	2059.0	2059.0	2059.0	2092.0	2092.0	2041.0	2041.0	2041.0	2051.0	2051.0	2025.0	2025.0	2025.0	2085.0	2085.0	2012.0	2012.0	2065.0	2065.0	2065.0	2075.0	2075.0	2011.0	2011.0	2011.0	2009.0	2009.0	2027.0	2027.0	2027.0	2052.0	2052.0	2003.0	2003.0	2003.0	1995.0	1995.0	1993.0	1993.0	1993.0	2036.0	2036.0	2054.0	2054.0	2054.0	2020.0	2020.0	2032.0	2032.0	2032.0	2025.0	2025.0	2024.0	2024.0	2024.0	2045.0	2045.0	2026.0	2026.0	2026.0	2049.0	2049.0	2045.0	2045.0	2045.0	2001.0	2001.0	2022.0	2022.0	2022.0	1991.0	1991.0	2019.0	2019.0	2019.0	2032.0	2032.0	1997.0	1997.0	1997.0	2009.0	2009.0	1992.0	1992.0	1992.0	2011.0	2011.0	2001.0	2001.0	2001.0	2017.0	2017.0	2017.0	2017.0	2017.0	2040.0	2040.0	2037.0	2037.0	2037.0	2023.0	2023.0	1990.0	1990.0	1990.0	2001.0	2001.0	1971.0	1971.0	1971.0	1997.0	1997.0	2024.0	2024.0	2024.0	1982.0	1982.0	1959.0	1959.0	1959.0	1979.0	1979.0	2016.0	2016.0	2016.0	1963.0	1963.0	1981.0	1981.0	1981.0	1997.0	1997.0	1983.0	1983.0	1983.0	1949.0	1949.0	1943.0	1943.0	1943.0	1975.0	1975.0	1940.0	1940.0	1940.0	1939.0	1939.0	1991.0	1991.0	1991.0	1990.0	1990.0	1963.0	1963.0	1963.0	1934.0	1934.0	1997.0	1997.0	1997.0	1974.0	1974.0	1975.0	1975.0	1975.0	1975.0	1975.0	1941.0	1941.0	1941.0	1971.0	1971.0	1960.0	1960.0	1960.0	1979.0	1979.0	1943.0	1943.0	1943.0	1952.0	1952.0	1948.0	1948.0	1948.0	1906.0	1906.0	1971.0	1971.0	1971.0	1921.0	1921.0	1935.0	1935.0	1935.0	1910.0	1910.0	1920.0	1920.0	1920.0	1908.0	1908.0	1932.0	1932.0	1932.0	1908.0	1908.0	1940.0	1940.0	1940.0	1936.0	1936.0	1942.0	1942.0	1942.0	1904.0	1904.0	1896.0	1896.0	1891.0	1891.0	1891.0	1935.0	1935.0	1932.0	1932.0	1932.0	1908.0	1908.0	1949.0	1949.0	1949.0	1908.0	1908.0	1900.0	1900.0	1900.0	1886.0	1886.0	1893.0	1893.0	1893.0	1881.0	1881.0	1896.0	1896.0	1896.0	1880.0	1880.0	1870.0	1870.0	1870.0	1880.0	1880.0	1890.0	1890.0	1890.0	1898.0	1898.0	1923.0	1923.0	1923.0	1877.0	1877.0	1888.0	1888.0	1888.0	1906.0	1906.0	1910.0	1910.0	1910.0	1912.0	1912.0	1899.0	1899.0	1899.0	1850.0	1850.0	1875.0	1875.0	1875.0	1872.0	1872.0	1902.0	1902.0	1902.0	1897.0	1897.0	1909.0	1909.0	1909.0	1895.0	1895.0	1873.0	1873.0	1873.0	1857.0	1857.0	1850.0	1850.0	1850.0	1885.0	1885.0	1852.0	1852.0	1852.0	1870.0	1870.0	1894.0	1894.0	1894.0	1899.0	1899.0	1850.0	1850.0	1850.0	1877.0	1877.0	1845.0	1845.0	1845.0	1832.0	1832.0	1833.0	1833.0	1833.0	1846.0	1846.0	1887.0	1887.0	1887.0	1860.0	1860.0	1878.0	1878.0	1878.0	1861.0	1861.0	1874.0	1874.0	1874.0	1823.0	1823.0	1829.0	1829.0	1829.0	1859.0	1859.0	1868.0	1868.0	1868.0	1841.0	1841.0	1879.0	1879.0	1879.0	1853.0	1853.0	1871.0	1871.0	1871.0	1851.0	1851.0	1844.0	1844.0	1844.0	1828.0	1828.0	1870.0	1870.0	1870.0	1826.0	1826.0	1840.0	1840.0	1840.0	1874.0	1874.0	1816.0	1816.0	1816.0	1818.0	1818.0	1809.0	1809.0	1809.0	1804.0	1804.0	1825.0	1825.0	1825.0	1799.0	1799.0	1808.0	1808.0	1808.0	1795.0	1795.0	1854.0	1854.0	1854.0	1787.0	1787.0	1855.0	1855.0	1855.0	1850.0	1850.0	1791.0	1791.0	1791.0	1834.0	1834.0	1806.0	1806.0	1806.0	1851.0	1851.0	1806.0	1806.0	1788.0	1788.0	1788.0	1826.0	1826.0	1843.0	1843.0	1843.0	1838.0	1838.0	1823.0	1823.0	1823.0	1838.0	1838.0	1845.0	1845.0	1845.0	1830.0	1830.0	1787.0	1787.0	1787.0	1850.0	1850.0	1807.0	1807.0	1807.0	1807.0	1807.0	1844.0	1844.0	1844.0	1807.0	1807.0	1832.0	1832.0	1832.0	1870.0	1870.0	1866.0	1866.0	1866.0	1889.0	1889.0	1889.0	1889.0	1889.0	1876.0	1876.0	1880.0	1880.0	1880.0	1857.0	1857.0	1857.0	1857.0	1857.0	1929.0	1929.0	1890.0	1890.0	1890.0	1919.0	1919.0	1924.0	1924.0	1924.0	1962.0	1962.0	1959.0	1959.0	1959.0	1958.0	1958.0	1922.0	1922.0	1922.0	1987.0	1987.0	1972.0	1972.0	1972.0	1948.0	1948.0	1972.0	1972.0	1972.0	1996.0	1996.0	2010.0	2010.0	2010.0	2032.0	2032.0	1984.0	1984.0	1984.0	2050.0	2050.0	2000.0	2000.0	2000.0	2053.0	2053.0	2029.0	2029.0	2029.0	2068.0	2068.0	2035.0	2035.0	2035.0	2054.0	2054.0	2047.0	2047.0	2047.0	2069.0	2069.0	2045.0	2045.0	2045.0	2070.0	2070.0	2057.0	2057.0	2057.0	2072.0	2072.0	2091.0	2091.0	2091.0	2076.0	2076.0	2067.0	2067.0	2067.0	2123.0	2123.0	2078.0	2078.0	2078.0	2096.0	2096.0	2124.0	2124.0	2124.0	2114.0	2114.0	2101.0	2101.0	2101.0	2103.0	2103.0	2094.0	2094.0	2094.0	2104.0	2104.0	2120.0	2120.0	2120.0	2103.0	2103.0	2153.0	2153.0	2153.0	2105.0	2105.0	2102.0	2102.0	2102.0	2164.0	2164.0	2120.0	2120.0	2120.0	2171.0	2171.0	2150.0	2150.0	2150.0	2164.0	2164.0	2161.0	2161.0	2161.0	2147.0	2147.0	2124.0	2124.0	2124.0	2172.0	2172.0	2148.0	2148.0	2148.0	2129.0	2129.0	2179.0	2179.0	2179.0	2136.0	2136.0	2181.0	2181.0	2171.0	2171.0	2171.0	2156.0	2156.0	2179.0	2179.0	2179.0	2151.0	2151.0	2150.0	2150.0	2150.0	2140.0	2140.0	2144.0	2144.0	2144.0	2167.0	2167.0	2202.0	2202.0	2202.0	2189.0	2189.0	2142.0	2142.0	2142.0	2172.0	2172.0	2137.0	2137.0	2137.0	2138.0	2138.0	2193.0	2193.0	2193.0	2152.0	2152.0	2130.0	2130.0	2130.0	2181.0	2181.0	2183.0	2183.0	2183.0	2186.0	2186.0	2128.0	2128.0	2128.0	2127.0	2127.0	2183.0	2183.0	2183.0	2136.0	2136.0	2137.0	2137.0	2137.0	2144.0	2144.0	2188.0	2188.0	2188.0	2124.0	2124.0	2183.0	2183.0	2183.0	2130.0	2130.0	2178.0	2178.0	2178.0	2134.0	2134.0	2141.0	2141.0	2141.0	2149.0	2149.0	2098.0	2098.0	2098.0	2170.0	2170.0	2171.0	2171.0	2171.0	2128.0	2128.0	2110.0	2110.0	2110.0	2139.0	2139.0	2113.0	2113.0	2113.0	2121.0	2121.0	2104.0	2104.0	2104.0	2078.0	2078.0	2118.0	2118.0	2118.0	2092.0	2092.0	2140.0	2140.0	2140.0	2120.0	2120.0	2132.0	2132.0	2132.0	2123.0	2123.0	2067.0	2067.0	2067.0	2078.0	2078.0	2116.0	2116.0	2116.0	2117.0	2117.0	2078.0	2078.0	2078.0	2097.0	2097.0	2063.0	2063.0	2063.0	2091.0	2091.0	2109.0	2109.0	2109.0	2096.0	2096.0	2072.0	2072.0	2072.0	2072.0	2072.0	2067.0	2067.0	2067.0	2075.0	2075.0	2075.0	2075.0	2075.0	2097.0	2097.0	2032.0	2032.0	2032.0	2078.0	2078.0	2048.0	2048.0	2048.0	2088.0	2088.0	2089.0	2089.0	2089.0	2019.0	2019.0	2075.0	2075.0	2075.0	2043.0	2043.0	2038.0	2038.0	2038.0	2056.0	2056.0	2074.0	2074.0	2074.0	2066.0	2066.0	2076.0	2076.0	2076.0	2010.0	2010.0	2065.0	2065.0	2017.0	2017.0	2017.0	2065.0	2065.0	2037.0	2037.0	2037.0	2011.0	2011.0	2016.0	2016.0	2016.0	2046.0	2046.0	2006.0	2006.0	2006.0	2035.0	2035.0	2020.0	2020.0	2020.0	2023.0	2023.0	1994.0	1994.0	1994.0	2049.0	2049.0	2047.0	2047.0	2047.0	2007.0	2007.0	2032.0	2032.0	2032.0	1985.0	1985.0	1987.0	1987.0	1987.0	2003.0	2003.0	2018.0	2018.0	2018.0	1978.0	1978.0	2032.0	2032.0	2032.0	1992.0	1992.0	1978.0	1978.0	1978.0	2031.0	2031.0	2025.0	2025.0	2025.0	1982.0	1982.0	1996.0	1996.0	1996.0	1992.0	1992.0	1974.0	1974.0	1974.0	1958.0	1958.0	1963.0	1963.0	1963.0	1975.0	1975.0	1978.0	1978.0	1978.0	1959.0	1959.0	1984.0	1984.0	1984.0	2016.0	2016.0	1984.0	1984.0	1984.0	1960.0	1960.0	1961.0	1961.0	1961.0	1959.0	1959.0	2011.0	2011.0	2011.0	1978.0	1978.0	1954.0	1954.0	1954.0	1999.0	1999.0	1949.0	1949.0	1949.0	1997.0	1997.0	1948.0	1948.0	1948.0	1946.0	1946.0	1934.0	1934.0	1934.0	1969.0	1969.0	1980.0	1980.0	1980.0	1956.0	1956.0	1922.0	1922.0	1922.0	1926.0	1926.0	1937.0	1937.0	1937.0	1925.0	1925.0	1912.0	1912.0	1912.0	1939.0	1939.0	1939.0	1939.0	1939.0	1939.0	1939.0	1930.0	1930.0	1930.0	1926.0	1926.0	1950.0	1950.0	1950.0	1959.0	1959.0	1947.0	1947.0	1947.0	1904.0	1904.0	1894.0	1894.0	1894.0	1956.0	1956.0	1901.0	1901.0	1901.0	1919.0	1919.0	1946.0	1946.0	1946.0	1897.0	1897.0	1891.0	1891.0	1891.0	1896.0	1896.0	1881.0	1881.0	1881.0	1948.0	1948.0	1950.0	1950.0	1950.0	1917.0	1917.0	1884.0	1884.0	1884.0	1932.0	1932.0	1908.0	1908.0	1879.0	1879.0	1879.0	1888.0	1888.0	1900.0	1900.0	1900.0	1885.0	1885.0	1884.0	1884.0	1884.0	1897.0	1897.0	1896.0	1896.0	1896.0	1866.0	1866.0	1882.0	1882.0	1882.0	1900.0	1900.0	1914.0	1914.0	1914.0	1910.0	1910.0	1917.0	1917.0	1917.0	1871.0	1871.0	1908.0	1908.0	1908.0	1921.0	1921.0	1919.0	1919.0	1919.0	1869.0	1869.0	1869.0	1869.0	1869.0	1859.0	1859.0	1889.0	1889.0	1889.0	1927.0	1927.0	1903.0	1903.0	1903.0	1898.0	1898.0	1868.0	1868.0	1868.0	1855.0	1855.0	1862.0	1862.0	1862.0	1886.0	1886.0	1862.0	1862.0	1862.0	1860.0	1860.0	1870.0	1870.0	1870.0	1879.0	1879.0	1848.0	1848.0	1848.0	1852.0	1852.0	1843.0	1843.0	1843.0	1838.0	1838.0	1847.0	1847.0	1847.0	1832.0	1832.0	1883.0	1883.0	1883.0	1824.0	1824.0	1831.0	1831.0	1831.0	1862.0	1862.0	1821.0	1821.0	1821.0	1853.0	1853.0	1853.0	1853.0	1853.0	1816.0	1816.0	1882.0	1882.0	1882.0	1863.0	1863.0	1838.0	1838.0	1838.0	1828.0	1828.0	1839.0	1839.0	1839.0	1851.0	1851.0	1858.0	1858.0	1858.0	1838.0	1838.0	1866.0	1866.0	1866.0	1811.0	1811.0	1827.0	1827.0	1827.0	1858.0	1858.0	1873.0	1873.0	1873.0	1822.0	1822.0	1871.0	1871.0	1871.0	1876.0	1876.0	1845.0	1845.0	1845.0	1829.0	1829.0	1882.0	1882.0	1882.0	1854.0	1854.0	1853.0	1853.0	1853.0	1876.0	1876.0	1861.0	1861.0	1861.0	1909.0	1909.0	1870.0	1870.0	1870.0	1917.0	1917.0	1859.0	1859.0	1859.0	1936.0	1936.0	1879.0	1879.0	1879.0	1905.0	1905.0	1950.0	1950.0	1950.0	1947.0	1947.0	1944.0	1944.0	1944.0	1923.0	1923.0	1975.0	1975.0	1975.0	1983.0	1983.0	1972.0	1972.0	1954.0	1954.0	1954.0	1981.0	1981.0	2013.0	2013.0	2013.0	1972.0	1972.0	2005.0	2005.0	2005.0	2033.0	2033.0	2016.0	2016.0	2016.0	2052.0	2052.0	1997.0	1997.0	1997.0	2016.0	2016.0	2010.0	2010.0	2010.0	2062.0	2062.0	2033.0	2033.0	2033.0	2073.0	2073.0	2092.0	2092.0	2092.0	2057.0	2057.0	2085.0	2085.0	2085.0	2070.0	2070.0	2078.0	2078.0	2078.0	2059.0	2059.0	2060.0	2060.0	2060.0	2078.0	2078.0	2131.0	2131.0	2131.0	2088.0	2088.0	2065.0	2065.0	2065.0	2124.0	2124.0	2089.0	2089.0	2089.0	2146.0	2146.0	2095.0	2095.0	2095.0	2109.0	2109.0	2100.0	2100.0	2100.0	2151.0	2151.0	2142.0	2142.0	2142.0	2108.0	2108.0	2165.0	2165.0	2165.0	2133.0	2133.0	2163.0	2163.0	2163.0	2128.0	2128.0	2163.0	2163.0	2163.0	2148.0	2148.0	2188.0	2188.0	2188.0	2132.0	2132.0	2144.0	2144.0	2144.0	2154.0	2154.0	2197.0	2197.0	2197.0	2148.0	2148.0	2134.0	2134.0	2134.0	2168.0	2168.0	2206.0	2206.0	2206.0	2164.0	2164.0	2154.0	2154.0	2154.0	2200.0	2200.0	2158.0	2158.0	2158.0	2201.0	2201.0	2182.0	2182.0	2182.0	2148.0	2148.0	2158.0	2158.0	2158.0	2171.0	2171.0	2192.0	2192.0	2192.0	2178.0	2178.0	2192.0	2192.0	2192.0	2168.0	2168.0	2156.0	2156.0	2156.0	2175.0	2175.0	2174.0	2174.0	2174.0	2210.0	2210.0	2207.0	2207.0	2207.0	2154.0	2154.0	2163.0	2163.0	2163.0	2197.0	2197.0	2145.0	2145.0	2145.0	2205.0	