1776.0	1770.0	1770.0	1770.0	1773.0	1773.0	1777.0	1777.0	1777.0	1770.0	1770.0	1795.0	1795.0	1795.0	1765.0	1765.0	1800.0	1800.0	1800.0	1779.0	1779.0	1792.0	1792.0	1792.0	1798.0	1798.0	1794.0	1794.0	1762.0	1762.0	1762.0	1739.0	1739.0	1787.0	1787.0	1787.0	1779.0	1779.0	1746.0	1746.0	1746.0	1747.0	1747.0	1774.0	1774.0	1774.0	1770.0	1770.0	1735.0	1735.0	1735.0	1732.0	1732.0	1760.0	1760.0	1760.0	1742.0	1742.0	1736.0	1736.0	1736.0	1763.0	1763.0	1760.0	1760.0	1760.0	1717.0	1717.0	1721.0	1721.0	1721.0	1712.0	1712.0	1712.0	1712.0	1712.0	1724.0	1724.0	1718.0	1718.0	1718.0	1718.0	1718.0	1739.0	1739.0	1739.0	1712.0	1712.0	1724.0	1724.0	1724.0	1722.0	1722.0	1701.0	1701.0	1701.0	1729.0	1729.0	1722.0	1722.0	1722.0	1697.0	1697.0	1683.0	1683.0	1683.0	1719.0	1719.0	1695.0	1695.0	1695.0	1711.0	1711.0	1695.0	1695.0	1695.0	1703.0	1703.0	1710.0	1710.0	1710.0	1686.0	1686.0	1712.0	1712.0	1712.0	1686.0	1686.0	1667.0	1667.0	1667.0	1702.0	1702.0	1688.0	1688.0	1688.0	1714.0	1714.0	1695.0	1695.0	1695.0	1680.0	1680.0	1701.0	1701.0	1701.0	1658.0	1658.0	1680.0	1680.0	1680.0	1699.0	1699.0	1660.0	1660.0	1660.0	1680.0	1680.0	1680.0	1680.0	1680.0	1688.0	1688.0	1701.0	1701.0	1701.0	1716.0	1716.0	1699.0	1699.0	1699.0	1685.0	1685.0	1726.0	1726.0	1726.0	1712.0	1712.0	1715.0	1715.0	1715.0	1720.0	1720.0	1745.0	1745.0	1745.0	1744.0	1744.0	1768.0	1768.0	1768.0	1790.0	1790.0	1807.0	1807.0	1807.0	1833.0	1833.0	1852.0	1852.0	1852.0	1876.0	1876.0	1906.0	1906.0	1906.0	1907.0	1907.0	1930.0	1930.0	1930.0	1955.0	1955.0	2020.0	2020.0	2020.0	2028.0	2028.0	2073.0	2073.0	2073.0	2099.0	2099.0	2138.0	2138.0	2138.0	2134.0	2134.0	2160.0	2160.0	2160.0	2197.0	2197.0	2218.0	2218.0	2234.0	2234.0	2234.0	2277.0	2277.0	2319.0	2319.0	2319.0	2340.0	2340.0	2369.0	2369.0	2369.0	2376.0	2376.0	2414.0	2414.0	2414.0	2420.0	2420.0	2443.0	2443.0	2443.0	2454.0	2454.0	2458.0	2458.0	2458.0	2499.0	2499.0	2504.0	2504.0	2504.0	2498.0	2498.0	2540.0	2540.0	2540.0	2549.0	2549.0	2561.0	2561.0	2561.0	2547.0	2547.0	2574.0	2574.0	2574.0	2603.0	2603.0	2604.0	2604.0	2604.0	2594.0	2594.0	2616.0	2616.0	2616.0	2592.0	2592.0	2613.0	2613.0	2613.0	2619.0	2619.0	2639.0	2639.0	2639.0	2663.0	2663.0	2635.0	2635.0	2635.0	2653.0	2653.0	2647.0	2647.0	2647.0	2642.0	2642.0	2642.0	2642.0	2642.0	2615.0	2615.0	2649.0	2649.0	2649.0	2645.0	2645.0	2640.0	2640.0	2640.0	2671.0	2671.0	2613.0	2613.0	2613.0	2636.0	2636.0	2648.0	2648.0	2648.0	2609.0	2609.0	2637.0	2637.0	2637.0	2619.0	2619.0	2605.0	2605.0	2605.0	2626.0	2626.0	2614.0	2614.0	2614.0	2604.0	2604.0	2568.0	2568.0	2568.0	2619.0	2619.0	2578.0	2578.0	2578.0	2570.0	2570.0	2580.0	2580.0	2580.0	2590.0	2590.0	2559.0	2559.0	2559.0	2560.0	2560.0	2586.0	2586.0	2586.0	2556.0	2556.0	2542.0	2542.0	2542.0	2544.0	2544.0	2541.0	2541.0	2541.0	2554.0	2554.0	2518.0	2518.0	2518.0	2516.0	2516.0	2502.0	2502.0	2502.0	2497.0	2497.0	2508.0	2508.0	2508.0	2475.0	2475.0	2486.0	2486.0	2486.0	2494.0	2494.0	2455.0	2455.0	2455.0	2461.0	2461.0	2465.0	2465.0	2465.0	2422.0	2422.0	2442.0	2442.0	2442.0	2404.0	2404.0	2400.0	2400.0	2400.0	2403.0	2403.0	2391.0	2391.0	2391.0	2356.0	2356.0	2382.0	2382.0	2372.0	2372.0	2372.0	2377.0	2377.0	2361.0	2361.0	2361.0	2315.0	2315.0	2331.0	2331.0	2331.0	2298.0	2298.0	2318.0	2318.0	2318.0	2276.0	2276.0	2274.0	2274.0	2274.0	2282.0	2282.0	2244.0	2244.0	2244.0	2233.0	2233.0	2231.0	2231.0	2231.0	2189.0	2189.0	2185.0	2185.0	2185.0	2184.0	2184.0	2168.0	2168.0	2168.0	2176.0	2176.0	2139.0	2139.0	2139.0	2134.0	2134.0	2158.0	2158.0	2158.0	2126.0	2126.0	2124.0	2124.0	2124.0	2124.0	2124.0	2109.0	2109.0	2109.0	2099.0	2099.0	2122.0	2122.0	2122.0	2076.0	2076.0	2111.0	2111.0	2111.0	2070.0	2070.0	2058.0	2058.0	2058.0	2072.0	2072.0	2066.0	2066.0	2066.0	2061.0	2061.0	2037.0	2037.0	2037.0	2049.0	2049.0	2027.0	2027.0	2027.0	2025.0	2025.0	2036.0	2036.0	2036.0	2021.0	2021.0	2016.0	2016.0	2016.0	2028.0	2028.0	2034.0	2034.0	2034.0	2028.0	2028.0	2010.0	2010.0	2010.0	1987.0	1987.0	2016.0	2016.0	2016.0	2013.0	2013.0	1990.0	1990.0	1990.0	2020.0	2020.0	2006.0	2006.0	2006.0	1982.0	1982.0	1989.0	1989.0	1989.0	2003.0	2003.0	1968.0	1968.0	1968.0	2019.0	2019.0	2007.0	2007.0	2007.0	1963.0	1963.0	1987.0	1987.0	1987.0	1953.0	1953.0	1948.0	1948.0	1948.0	1991.0	1991.0	1969.0	1969.0	1969.0	1947.0	1947.0	1979.0	1979.0	1979.0	1962.0	1962.0	1965.0	1965.0	1965.0	1952.0	1952.0	1953.0	1953.0	1953.0	1929.0	1929.0	1938.0	1938.0	1938.0	1920.0	1920.0	1954.0	1954.0	1954.0	1926.0	1926.0	1906.0	1906.0	1906.0	1943.0	1943.0	1917.0	1917.0	1917.0	1951.0	1951.0	1913.0	1913.0	1913.0	1928.0	1928.0	1912.0	1912.0	1893.0	1893.0	1893.0	1893.0	1893.0	1914.0	1914.0	1914.0	1901.0	1901.0	1879.0	1879.0	1879.0	1884.0	1884.0	1890.0	1890.0	1890.0	1869.0	1869.0	1871.0	1871.0	1871.0	1870.0	1870.0	1849.0	1849.0	1849.0	1891.0	1891.0	1862.0	1862.0	1862.0	1858.0	1858.0	1871.0	1871.0	1871.0	1856.0	1856.0	1879.0	1879.0	1879.0	1857.0	1857.0	1857.0	1857.0	1857.0	1847.0	1847.0	1858.0	1858.0	1858.0	1832.0	1832.0	1811.0	1811.0	1811.0	1827.0	1827.0	1859.0	1859.0	1859.0	1801.0	1801.0	1827.0	1827.0	1827.0	1848.0	1848.0	1815.0	1815.0	1815.0	1817.0	1817.0	1836.0	1836.0	1836.0	1804.0	1804.0	1797.0	1797.0	1797.0	1795.0	1795.0	1797.0	1797.0	1797.0	1800.0	1800.0	1831.0	1831.0	1831.0	1800.0	1800.0	1788.0	1788.0	1788.0	1828.0	1828.0	1778.0	1778.0	1778.0	1791.0	1791.0	1799.0	1799.0	1799.0	1783.0	1783.0	1801.0	1801.0	1801.0	1771.0	1771.0	1799.0	1799.0	1799.0	1775.0	1775.0	1803.0	1803.0	1803.0	1767.0	1767.0	1801.0	1801.0	1801.0	1796.0	1796.0	1772.0	1772.0	1772.0	1765.0	1765.0	1792.0	1792.0	1792.0	1773.0	1773.0	1749.0	1749.0	1749.0	1787.0	1787.0	1769.0	1769.0	1769.0	1744.0	1744.0	1767.0	1767.0	1767.0	1735.0	1735.0	1747.0	1747.0	1747.0	1739.0	1739.0	1728.0	1728.0	1728.0	1764.0	1764.0	1763.0	1763.0	1763.0	1732.0	1732.0	1727.0	1727.0	1727.0	1720.0	1720.0	1747.0	1747.0	1747.0	1740.0	1740.0	1710.0	1710.0	1710.0	1732.0	1732.0	1727.0	1727.0	1727.0	1712.0	1712.0	1711.0	1711.0	1711.0	1730.0	1730.0	1720.0	1720.0	1720.0	1740.0	1740.0	1698.0	1698.0	1698.0	1711.0	1711.0	1695.0	1695.0	1683.0	1683.0	1683.0	1714.0	1714.0	1702.0	1702.0	1702.0	1694.0	1694.0	1699.0	1699.0	1699.0	1696.0	1696.0	1721.0	1721.0	1721.0	1690.0	1690.0	1699.0	1699.0	1699.0	1675.0	1675.0	1705.0	1705.0	1705.0	1713.0	1713.0	1671.0	1671.0	1671.0	1707.0	1707.0	1676.0	1676.0	1676.0	1680.0	1680.0	1685.0	1685.0	1685.0	1683.0	1683.0	1722.0	1722.0	1722.0	1674.0	1674.0	1716.0	1716.0	1716.0	1675.0	1675.0	1689.0	1689.0	1689.0	1694.0	1694.0	1681.0	1681.0	1681.0	1690.0	1690.0	1703.0	1703.0	1703.0	1732.0	1732.0	1698.0	1698.0	1698.0	1727.0	1727.0	1744.0	1744.0	1744.0	1768.0	1768.0	1767.0	1767.0	1767.0	1783.0	1783.0	1782.0	1782.0	1782.0	1826.0	1826.0	1820.0	1820.0	1820.0	1868.0	1868.0	1854.0	1854.0	1854.0	1915.0	1915.0	1912.0	1912.0	1912.0	1968.0	1968.0	1972.0	1972.0	1972.0	2014.0	2014.0	2024.0	2024.0	2024.0	2047.0	2047.0	2104.0	2104.0	2104.0	2140.0	2140.0	2168.0	2168.0	2168.0	2166.0	2166.0	2213.0	2213.0	2213.0	2204.0	2204.0	2283.0	2283.0	2283.0	2268.0	2268.0	2296.0	2296.0	2296.0	2323.0	2323.0	2348.0	2348.0	2348.0	2359.0	2359.0	2367.0	2367.0	2367.0	2437.0	2437.0	2429.0	2429.0	2429.0	2451.0	2451.0	2482.0	2482.0	2482.0	2465.0	2465.0	2501.0	2501.0	2501.0	2518.0	2518.0	2516.0	2516.0	2516.0	2538.0	2538.0	2563.0	2563.0	2563.0	2581.0	2581.0	2589.0	2589.0	2589.0	2599.0	2599.0	2584.0	2584.0	2584.0	2590.0	2590.0	2601.0	2601.0	2601.0	2638.0	2638.0	2614.0	2614.0	2614.0	2638.0	2638.0	2620.0	2620.0	2620.0	2623.0	2623.0	2648.0	2648.0	2633.0	2633.0	2633.0	2640.0	2640.0	2618.0	2618.0	2618.0	2619.0	2619.0	2619.0	2619.0	2619.0	2625.0	2625.0	2641.0	2641.0	2641.0	2616.0	2616.0	2654.0	2654.0	2654.0	2631.0	2631.0	2659.0	2659.0	2659.0	2656.0	2656.0	2658.0	2658.0	2658.0	2644.0	2644.0	2617.0	2617.0	2617.0	2619.0	2619.0	2613.0	2613.0	2613.0	2619.0	2619.0	2608.0	2608.0	2608.0	2576.0	2576.0	2591.0	2591.0	2591.0	2613.0	2613.0	2619.0	2619.0	2619.0	2608.0	2608.0	2569.0	2569.0	2569.0	2580.0	2580.0	2539.0	2539.0	2539.0	2559.0	2559.0	2551.0	2551.0	2551.0	2540.0	2540.0	2548.0	2548.0	2548.0	2534.0	2534.0	2524.0	2524.0	2524.0	2514.0	2514.0	2524.0	2524.0	2524.0	2491.0	2491.0	2496.0	2496.0	2496.0	2518.0	2518.0	2493.0	2493.0	2493.0	2469.0	2469.0	2478.0	2478.0	2478.0	2465.0	2465.0	2442.0	2442.0	2442.0	2424.0	2424.0	2425.0	2425.0	2425.0	2443.0	2443.0	2402.0	2402.0	2402.0	2390.0	2390.0	2380.0	2380.0	2380.0	2399.0	2399.0	2371.0	2371.0	2371.0	2363.0	2363.0	2387.0	2387.0	2387.0	2358.0	2358.0	2345.0	2345.0	2345.0	2351.0	2351.0	2285.0	2285.0	2285.0	2285.0	2285.0	2296.0	2296.0	2296.0	2290.0	2290.0	2292.0	2292.0	2292.0	2238.0	2238.0	2251.0	2251.0	2251.0	2251.0	2251.0	2240.0	2240.0	2240.0	2200.0	2200.0	2228.0	2228.0	2228.0	2194.0	2194.0	2186.0	2186.0	2186.0	2159.0	2159.0	2165.0	2165.0	2165.0	2174.0	2174.0	2124.0	2124.0	2124.0	2135.0	2135.0	2141.0	2141.0	2141.0	2131.0	2131.0	2128.0	2128.0	2128.0	2120.0	2120.0	2105.0	2105.0	2105.0	2073.0	2073.0	2086.0	2086.0	2086.0	2079.0	2079.0	2047.0	2047.0	2056.0	2056.0	2056.0	2042.0	2042.0	2081.0	2081.0	2081.0	2051.0	2051.0	2024.0	2024.0	2024.0	2050.0	2050.0	2034.0	2034.0	2034.0	2019.0	2019.0	2056.0	2056.0	2056.0	2037.0	2037.0	2021.0	2021.0	2021.0	2005.0	2005.0	2022.0	2022.0	2022.0	1996.0	1996.0	2016.0	2016.0	2016.0	2002.0	2002.0	2023.0	2023.0	2023.0	2011.0	2011.0	1996.0	1996.0	1996.0	2021.0	2021.0	2001.0	2001.0	2001.0	2000.0	2000.0	1972.0	1972.0	1972.0	1967.0	1967.0	1969.0	1969.0	1969.0	1950.0	1950.0	2002.0	2002.0	2002.0	1952.0	1952.0	1939.0	1939.0	1939.0	1956.0	1956.0	1935.0	1935.0	1935.0	1956.0	1956.0	1951.0	1951.0	1951.0	1975.0	1975.0	1941.0	1941.0	1941.0	1940.0	1940.0	1961.0	1961.0	1961.0	1960.0	1960.0	1932.0	1932.0	1932.0	1942.0	1942.0	1931.0	1931.0	1931.0	1941.0	1941.0	1909.0	1909.0	1909.0	1913.0	1913.0	1936.0	1936.0	1936.0	1919.0	1919.0	1935.0	1935.0	1935.0	1925.0	1925.0	1915.0	1915.0	1915.0	1906.0	1906.0	1888.0	1888.0	1888.0	1891.0	1891.0	1882.0	1882.0	1882.0	1910.0	1910.0	1896.0	1896.0	1896.0	1864.0	1864.0	1863.0	1863.0	1863.0	1858.0	1858.0	1877.0	1877.0	1877.0	1858.0	1858.0	1860.0	1860.0	1860.0	1862.0	1862.0	1871.0	1871.0	1871.0	1866.0	1866.0	1853.0	1853.0	1853.0	1861.0	1861.0	1823.0	1823.0	1823.0	1861.0	1861.0	1820.0	1820.0	1820.0	1836.0	1836.0	1816.0	1816.0	1816.0	1805.0	1805.0	1835.0	1835.0	1835.0	1827.0	1827.0	1825.0	1825.0	1825.0	1806.0	1806.0	1794.0	1794.0	1794.0	1826.0	1826.0	1790.0	1790.0	1790.0	1794.0	1794.0	1808.0	1808.0	1800.0	1800.0	1800.0	1790.0	1790.0	1795.0	1795.0	1795.0	1799.0	1799.0	1778.0	1778.0	1778.0	1778.0	1778.0	1773.0	1773.0	1773.0	1786.0	1786.0	1782.0	1782.0	1782.0	1768.0	1768.0	1786.0	1786.0	1786.0	1783.0	1783.0	1768.0	1768.0	1768.0	1800.0	1800.0	1789.0	1789.0	1789.0	1742.0	1742.0	1792.0	1792.0	1792.0	1770.0	1770.0	1788.0	1788.0	1788.0	1767.0	1767.0	1740.0	1740.0	1740.0	1746.0	1746.0	1781.0	1781.0	1781.0	1780.0	1780.0	1740.0	1740.0	1740.0	1753.0	1753.0	1731.0	1731.0	1731.0	1731.0	1731.0	1723.0	1723.0	1723.0	1733.0	1733.0	1763.0	1763.0	1763.0	1767.0	1767.0	1749.0	1749.0	1749.0	1731.0	1731.0	1740.0	1740.0	1740.0	1746.0	1746.0	1732.0	1732.0	1732.0	1711.0	1711.0	1723.0	1723.0	1723.0	1697.0	1697.0	1703.0	1703.0	1703.0	1700.0	1700.0	1712.0	1712.0	1712.0	1737.0	1737.0	1727.0	1727.0	1727.0	1712.0	1712.0	1704.0	1704.0	1704.0	1689.0	1689.0	1710.0	1710.0	1710.0	1724.0	1724.0	1692.0	1692.0	1692.0	1703.0	1703.0	1676.0	1676.0	1676.0	1682.0	1682.0	1710.0	1710.0	1710.0	1671.0	1671.0	1668.0	1668.0	1668.0	1703.0	1703.0	1664.0	1664.0	1664.0	1716.0	1716.0	1667.0	1667.0	1667.0	1710.0	1710.0	1662.0	1662.0	1662.0	1656.0	1656.0	1649.0	1649.0	1649.0	1699.0	1699.0	1673.0	1673.0	1673.0	1689.0	1689.0	1666.0	1666.0	1666.0	1693.0	1693.0	1659.0	1659.0	1659.0	1693.0	1693.0	1683.0	1683.0	1683.0	1682.0	1682.0	1664.0	1664.0	1664.0	1703.0	1703.0	1697.0	1697.0	1697.0	1691.0	1691.0	1706.0	1706.0	1706.0	1679.0	1679.0	1683.0	1683.0	1718.0	1718.0	1718.0	1691.0	1691.0	1739.0	1739.0	1739.0	1742.0	1742.0	1764.0	1764.0	1764.0	1797.0	1797.0	1797.0	1797.0	1797.0	1813.0	1813.0	1820.0	1820.0	1820.0	1843.0	1843.0	1881.0	1881.0	1881.0	1871.0	1871.0	1937.0	1937.0	1937.0	1960.0	1960.0	1957.0	1957.0	1957.0	2019.0	2019.0	2032.0	2032.0	2032.0	2060.0	2060.0	2060.0	2060.0	2060.0	2115.0	2115.0	2128.0	2128.0	2128.0	2184.0	2184.0	2194.0	2194.0	2194.0	2215.0	2215.0	2278.0	2278.0	2278.0	2259.0	2259.0	2291.0	2291.0	2291.0	2335.0	2335.0	2357.0	2357.0	2357.0	2362.0	2362.0	2416.0	2416.0	2416.0	2406.0	2406.0	2441.0	2441.0	2441.0	2471.0	2471.0	2486.0	2486.0	2486.0	2476.0	2476.0	2509.0	2509.0	2509.0	2526.0	2526.0	2511.0	2511.0	2511.0	2538.0	2538.0	2536.0	2536.0	2536.0	2569.0	2569.0	2578.0	2578.0	2578.0	2567.0	2567.0	2602.0	2602.0	2602.0	2594.0	2594.0	2626.0	2626.0	2626.0	2635.0	2635.0	2599.0	2599.0	2599.0	2639.0	2639.0	2614.0	2614.0	2614.0	2640.0	2640.0	2653.0	2653.0	2653.0	2634.0	2634.0	2628.0	2628.0	2628.0	2656.0	2656.0	2623.0	2623.0	2623.0	2652.0	2652.0	2650.0	2650.0	2650.0	2636.0	2636.0	2624.0	2624.0	2624.0	2631.0	2631.0	2626.0	2626.0	2626.0	2641.0	2641.0	2625.0	2625.0	2625.0	2628.0	2628.0	2606.0	2606.0	2606.0	2615.0	2615.0	2608.0	2608.0	2608.0	2599.0	2599.0	2611.0	2611.0	2611.0	2595.0	2595.0	2583.0	2583.0	2583.0	2602.0	2602.0	2580.0	2580.0	2580.0	2557.0	2557.0	2575.0	2575.0	2575.0	2579.0	2579.0	2551.0	2551.0	2551.0	2568.0	2568.0	2541.0	2541.0	2541.0	2521.0	2521.0	2547.0	2547.0	2513.0	2513.0	2513.0	2522.0	2522.0	2487.0	2487.0	2487.0	2494.0	2494.0	2502.0	2502.0	2502.0	2480.0	2480.0	2479.0	2479.0	2479.0	2463.0	2463.0	2465.0	2465.0	2465.0	2475.0	2475.0	2455.0	2455.0	2455.0	2438.0	2438.0	2462.0	2462.0	2462.0	2448.0	2448.0	2405.0	2405.0	2405.0	2420.0	2420.0	2415.0	2415.0	2415.0	2389.0	2389.0	2404.0	2404.0	2404.0	2377.0	2377.0	2368.0	2368.0	2368.0	2367.0	2367.0	2334.0	2334.0	2334.0	2307.0	2307.0	2307.0	2307.0	2307.0	2310.0	2310.0	2315.0	2315.0	2315.0	2257.0	2257.0	2252.0	2252.0	2252.0	2277.0	2277.0	2247.0	2247.0	2247.0	2244.0	2244.0	2241.0	2241.0	2241.0	2196.0	2196.0	2208.0	2208.0	2208.0	2185.0	2185.0	2192.0	2192.0	2192.0	2176.0	2176.0	2151.0	2151.0	2151.0	2151.0	2151.0	2151.0	2151.0	2151.0	2121.0	2121.0	2139.0	2139.0	2139.0	2133.0	2133.0	2129.0	2129.0	2129.0	2077.0	2077.0	2105.0	2105.0	2105.0	2063.0	2063.0	2093.0	2093.0	2093.0	2056.0	2056.0	2074.0	2074.0	2074.0	2050.0	2050.0	2036.0	2036.0	2036.0	2072.0	2072.0	2049.0	2049.0	2049.0	2021.0	2021.0	2028.0	2028.0	2028.0	2014.0	2014.0	2048.0	2048.0	2048.0	2032.0	2032.0	2037.0	2037.0	2037.0	2026.0	2026.0	2011.0	2011.0	2011.0	1985.0	1985.0	2042.0	2042.0	2042.0	2023.0	2023.0	1984.0	1984.0	1984.0	1992.0	1992.0	1986.0	1986.0	1986.0	1984.0	1984.0	1983.0	1983.0	1983.0	1976.0	1976.0	1985.0	1985.0	1985.0	2004.0	2004.0	1983.0	1983.0	1983.0	1987.0	1987.0	1978.0	1978.0	1978.0	1963.0	1963.0	1970.0	1970.0	1970.0	1978.0	1978.0	1969.0	1969.0	1948.0	1948.0	1948.0	1950.0	1950.0	1951.0	1951.0	1951.0	1947.0	1947.0	1930.0	1930.0	1930.0	1936.0	1936.0	1946.0	1946.0	1946.0	1938.0	1938.0	1955.0	1955.0	1955.0	1950.0	1950.0	1935.0	1935.0	1935.0	1932.0	1932.0	1935.0	1935.0	