1697.0	1697.0	1673.0	1673.0	1673.0	1645.0	1645.0	1694.0	1694.0	1694.0	1682.0	1682.0	1681.0	1681.0	1681.0	1642.0	1642.0	1647.0	1647.0	1647.0	1679.0	1679.0	1680.0	1680.0	1680.0	1651.0	1651.0	1657.0	1657.0	1657.0	1663.0	1663.0	1670.0	1670.0	1670.0	1629.0	1629.0	1647.0	1647.0	1647.0	1665.0	1665.0	1671.0	1671.0	1671.0	1649.0	1649.0	1664.0	1664.0	1664.0	1648.0	1648.0	1640.0	1640.0	1640.0	1653.0	1653.0	1678.0	1678.0	1678.0	1659.0	1659.0	1664.0	1664.0	1664.0	1668.0	1668.0	1689.0	1689.0	1689.0	1705.0	1705.0	1683.0	1683.0	1683.0	1697.0	1697.0	1729.0	1729.0	1729.0	1737.0	1737.0	1726.0	1726.0	1726.0	1744.0	1744.0	1799.0	1799.0	1799.0	1802.0	1802.0	1813.0	1813.0	1813.0	1831.0	1831.0	1895.0	1895.0	1895.0	1886.0	1886.0	1942.0	1942.0	1942.0	1974.0	1974.0	2011.0	2011.0	2011.0	2026.0	2026.0	2067.0	2067.0	2067.0	2102.0	2102.0	2082.0	2082.0	2082.0	2115.0	2115.0	2148.0	2148.0	2148.0	2210.0	2210.0	2210.0	2210.0	2210.0	2243.0	2243.0	2265.0	2265.0	2265.0	2284.0	2284.0	2308.0	2308.0	2308.0	2308.0	2308.0	2359.0	2359.0	2359.0	2368.0	2368.0	2404.0	2404.0	2404.0	2433.0	2433.0	2440.0	2440.0	2440.0	2475.0	2475.0	2489.0	2489.0	2489.0	2474.0	2474.0	2518.0	2518.0	2518.0	2522.0	2522.0	2514.0	2514.0	2514.0	2545.0	2545.0	2550.0	2550.0	2550.0	2569.0	2569.0	2572.0	2572.0	2572.0	2563.0	2563.0	2580.0	2580.0	2580.0	2571.0	2571.0	2577.0	2577.0	2577.0	2597.0	2597.0	2576.0	2576.0	2576.0	2587.0	2587.0	2604.0	2604.0	2604.0	2621.0	2621.0	2629.0	2629.0	2629.0	2617.0	2617.0	2635.0	2635.0	2608.0	2608.0	2608.0	2619.0	2619.0	2623.0	2623.0	2623.0	2609.0	2609.0	2626.0	2626.0	2626.0	2608.0	2608.0	2590.0	2590.0	2590.0	2599.0	2599.0	2625.0	2625.0	2625.0	2612.0	2612.0	2571.0	2571.0	2571.0	2607.0	2607.0	2599.0	2599.0	2599.0	2586.0	2586.0	2579.0	2579.0	2579.0	2594.0	2594.0	2594.0	2594.0	2594.0	2578.0	2578.0	2545.0	2545.0	2545.0	2549.0	2549.0	2547.0	2547.0	2547.0	2573.0	2573.0	2559.0	2559.0	2559.0	2565.0	2565.0	2536.0	2536.0	2536.0	2566.0	2566.0	2552.0	2552.0	2552.0	2545.0	2545.0	2524.0	2524.0	2524.0	2517.0	2517.0	2537.0	2537.0	2537.0	2473.0	2473.0	2493.0	2493.0	2493.0	2487.0	2487.0	2476.0	2476.0	2476.0	2464.0	2464.0	2460.0	2460.0	2460.0	2467.0	2467.0	2429.0	2429.0	2429.0	2463.0	2463.0	2422.0	2422.0	2422.0	2416.0	2416.0	2398.0	2398.0	2398.0	2394.0	2394.0	2400.0	2400.0	2400.0	2362.0	2362.0	2362.0	2362.0	2362.0	2369.0	2369.0	2338.0	2338.0	2338.0	2321.0	2321.0	2327.0	2327.0	2327.0	2300.0	2300.0	2330.0	2330.0	2330.0	2308.0	2308.0	2309.0	2309.0	2309.0	2287.0	2287.0	2260.0	2260.0	2260.0	2235.0	2235.0	2254.0	2254.0	2254.0	2229.0	2229.0	2217.0	2217.0	2217.0	2211.0	2211.0	2189.0	2189.0	2189.0	2178.0	2178.0	2156.0	2156.0	2156.0	2175.0	2175.0	2136.0	2136.0	2136.0	2158.0	2158.0	2128.0	2128.0	2128.0	2120.0	2120.0	2146.0	2146.0	2146.0	2143.0	2143.0	2097.0	2097.0	2097.0	2134.0	2134.0	2119.0	2119.0	2119.0	2099.0	2099.0	2102.0	2102.0	2102.0	2060.0	2060.0	2099.0	2099.0	2099.0	2036.0	2036.0	2084.0	2084.0	2048.0	2048.0	2048.0	2048.0	2048.0	2069.0	2069.0	2069.0	2036.0	2036.0	2044.0	2044.0	2044.0	2064.0	2064.0	2051.0	2051.0	2051.0	2022.0	2022.0	2038.0	2038.0	2038.0	2062.0	2062.0	2019.0	2019.0	2019.0	2024.0	2024.0	2028.0	2028.0	2028.0	2025.0	2025.0	2008.0	2008.0	2008.0	2028.0	2028.0	2033.0	2033.0	2033.0	1994.0	1994.0	2040.0	2040.0	2040.0	2014.0	2014.0	2026.0	2026.0	2026.0	2025.0	2025.0	2028.0	2028.0	2028.0	2015.0	2015.0	1975.0	1975.0	1975.0	2007.0	2007.0	1979.0	1979.0	1979.0	1970.0	1970.0	1980.0	1980.0	1980.0	1992.0	1992.0	1973.0	1973.0	1973.0	1947.0	1947.0	1977.0	1977.0	1977.0	1951.0	1951.0	1984.0	1984.0	1984.0	1957.0	1957.0	1977.0	1977.0	1977.0	1949.0	1949.0	1968.0	1968.0	1968.0	1958.0	1958.0	1931.0	1931.0	1931.0	1964.0	1964.0	1963.0	1963.0	1963.0	1955.0	1955.0	1936.0	1936.0	1936.0	1930.0	1930.0	1947.0	1947.0	1947.0	1936.0	1936.0	1923.0	1923.0	1923.0	1906.0	1906.0	1924.0	1924.0	1924.0	1896.0	1896.0	1891.0	1891.0	1891.0	1892.0	1892.0	1921.0	1921.0	1921.0	1911.0	1911.0	1882.0	1882.0	1882.0	1906.0	1906.0	1918.0	1918.0	1918.0	1904.0	1904.0	1911.0	1911.0	1911.0	1902.0	1902.0	1860.0	1860.0	1860.0	1903.0	1903.0	1882.0	1882.0	1882.0	1870.0	1870.0	1866.0	1866.0	1866.0	1862.0	1862.0	1855.0	1855.0	1855.0	1860.0	1860.0	1848.0	1848.0	1848.0	1865.0	1865.0	1865.0	1865.0	1865.0	1846.0	1846.0	1837.0	1837.0	1837.0	1829.0	1829.0	1880.0	1880.0	1880.0	1838.0	1838.0	1834.0	1834.0	1834.0	1863.0	1863.0	1863.0	1863.0	1810.0	1810.0	1810.0	1821.0	1821.0	1838.0	1838.0	1838.0	1850.0	1850.0	1829.0	1829.0	1829.0	1847.0	1847.0	1835.0	1835.0	1835.0	1828.0	1828.0	1847.0	1847.0	1847.0	1819.0	1819.0	1807.0	1807.0	1807.0	1822.0	1822.0	1811.0	1811.0	1811.0	1786.0	1786.0	1810.0	1810.0	1810.0	1803.0	1803.0	1781.0	1781.0	1781.0	1794.0	1794.0	1783.0	1783.0	1783.0	1814.0	1814.0	1805.0	1805.0	1805.0	1796.0	1796.0	1799.0	1799.0	1799.0	1796.0	1796.0	1767.0	1767.0	1767.0	1788.0	1788.0	1780.0	1780.0	1780.0	1758.0	1758.0	1799.0	1799.0	1799.0	1778.0	1778.0	1745.0	1745.0	1745.0	1738.0	1738.0	1742.0	1742.0	1742.0	1782.0	1782.0	1755.0	1755.0	1755.0	1740.0	1740.0	1771.0	1771.0	1771.0	1736.0	1736.0	1723.0	1723.0	1723.0	1758.0	1758.0	1762.0	1762.0	1762.0	1733.0	1733.0	1746.0	1746.0	1746.0	1755.0	1755.0	1722.0	1722.0	1722.0	1743.0	1743.0	1758.0	1758.0	1758.0	1710.0	1710.0	1706.0	1706.0	1706.0	1756.0	1756.0	1758.0	1758.0	1758.0	1750.0	1750.0	1744.0	1744.0	1744.0	1731.0	1731.0	1727.0	1727.0	1727.0	1712.0	1712.0	1717.0	1717.0	1717.0	1703.0	1703.0	1702.0	1702.0	1702.0	1735.0	1735.0	1710.0	1710.0	1710.0	1707.0	1707.0	1704.0	1704.0	1704.0	1697.0	1697.0	1738.0	1738.0	1738.0	1705.0	1705.0	1747.0	1747.0	1747.0	1740.0	1740.0	1760.0	1760.0	1760.0	1743.0	1743.0	1774.0	1774.0	1774.0	1747.0	1747.0	1809.0	1809.0	1809.0	1785.0	1785.0	1848.0	1848.0	1848.0	1843.0	1843.0	1848.0	1848.0	1848.0	1853.0	1853.0	1883.0	1883.0	1883.0	1898.0	1898.0	1949.0	1949.0	1949.0	1953.0	1953.0	1997.0	1997.0	2002.0	2002.0	2002.0	2059.0	2059.0	2078.0	2078.0	2078.0	2087.0	2087.0	2126.0	2126.0	2126.0	2135.0	2135.0	2213.0	2213.0	2213.0	2224.0	2224.0	2240.0	2240.0	2240.0	2256.0	2256.0	2302.0	2302.0	2302.0	2343.0	2343.0	2329.0	2329.0	2329.0	2374.0	2374.0	2409.0	2409.0	2409.0	2436.0	2436.0	2438.0	2438.0	2438.0	2440.0	2440.0	2485.0	2485.0	2485.0	2474.0	2474.0	2484.0	2484.0	2484.0	2500.0	2500.0	2552.0	2552.0	2552.0	2567.0	2567.0	2539.0	2539.0	2539.0	2600.0	2600.0	2579.0	2579.0	2579.0	2570.0	2570.0	2584.0	2584.0	2584.0	2611.0	2611.0	2634.0	2634.0	2634.0	2600.0	2600.0	2618.0	2618.0	2618.0	2622.0	2622.0	2658.0	2658.0	2658.0	2644.0	2644.0	2628.0	2628.0	2628.0	2619.0	2619.0	2651.0	2651.0	2651.0	2631.0	2631.0	2647.0	2647.0	2647.0	2641.0	2641.0	2673.0	2673.0	2673.0	2632.0	2632.0	2646.0	2646.0	2646.0	2645.0	2645.0	2656.0	2656.0	2656.0	2629.0	2629.0	2622.0	2622.0	2622.0	2628.0	2628.0	2618.0	2618.0	2618.0	2605.0	2605.0	2641.0	2641.0	2641.0	2625.0	2625.0	2612.0	2612.0	2612.0	2616.0	2616.0	2628.0	2628.0	2628.0	2587.0	2587.0	2612.0	2612.0	2612.0	2578.0	2578.0	2567.0	2567.0	2567.0	2568.0	2568.0	2573.0	2573.0	2573.0	2599.0	2599.0	2563.0	2563.0	2563.0	2578.0	2578.0	2584.0	2584.0	2584.0	2569.0	2569.0	2556.0	2556.0	2556.0	2534.0	2534.0	2531.0	2531.0	2531.0	2524.0	2524.0	2539.0	2539.0	2539.0	2531.0	2531.0	2518.0	2518.0	2518.0	2527.0	2527.0	2503.0	2503.0	2503.0	2475.0	2475.0	2460.0	2460.0	2460.0	2452.0	2452.0	2477.0	2477.0	2443.0	2443.0	2443.0	2447.0	2447.0	2440.0	2440.0	2440.0	2442.0	2442.0	2437.0	2437.0	2437.0	2399.0	2399.0	2399.0	2399.0	2399.0	2400.0	2400.0	2350.0	2350.0	2350.0	2379.0	2379.0	2364.0	2364.0	2364.0	2343.0	2343.0	2357.0	2357.0	2357.0	2298.0	2298.0	2323.0	2323.0	2323.0	2312.0	2312.0	2279.0	2279.0	2279.0	2250.0	2250.0	2278.0	2278.0	2278.0	2255.0	2255.0	2210.0	2210.0	2210.0	2203.0	2203.0	2227.0	2227.0	2227.0	2187.0	2187.0	2193.0	2193.0	2193.0	2208.0	2208.0	2198.0	2198.0	2198.0	2143.0	2143.0	2154.0	2154.0	2154.0	2145.0	2145.0	2124.0	2124.0	2124.0	2129.0	2129.0	2119.0	2119.0	2119.0	2090.0	2090.0	2088.0	2088.0	2088.0	2087.0	2087.0	2106.0	2106.0	2106.0	2110.0	2110.0	2070.0	2070.0	2070.0	2088.0	2088.0	2087.0	2087.0	2087.0	2101.0	2101.0	2041.0	2041.0	2041.0	2065.0	2065.0	2045.0	2045.0	2045.0	2063.0	2063.0	2036.0	2036.0	2036.0	2028.0	2028.0	2059.0	2059.0	2059.0	2069.0	2069.0	2055.0	2055.0	2055.0	2037.0	2037.0	2015.0	2015.0	2015.0	2045.0	2045.0	2050.0	2050.0	2050.0	2036.0	2036.0	2035.0	2035.0	2035.0	1995.0	1995.0	2005.0	2005.0	2005.0	2035.0	2035.0	2019.0	2019.0	2019.0	2016.0	2016.0	2015.0	2015.0	2015.0	2021.0	2021.0	1981.0	1981.0	1981.0	1968.0	1968.0	2018.0	2018.0	2018.0	1972.0	1972.0	1988.0	1988.0	1988.0	1987.0	1987.0	1958.0	1958.0	1958.0	1978.0	1978.0	1985.0	1985.0	1985.0	1982.0	1982.0	2002.0	2002.0	2002.0	1956.0	1956.0	1983.0	1983.0	1983.0	1980.0	1980.0	1950.0	1950.0	1950.0	1944.0	1944.0	1963.0	1963.0	1944.0	1944.0	1944.0	1948.0	1948.0	1957.0	1957.0	1957.0	1967.0	1967.0	1951.0	1951.0	1951.0	1948.0	1948.0	1918.0	1918.0	1918.0	1916.0	1916.0	1930.0	1930.0	1930.0	1927.0	1927.0	1930.0	1930.0	1930.0	1936.0	1936.0	1909.0	1909.0	1909.0	1896.0	1896.0	1902.0	1902.0	1902.0	1871.0	1871.0	1873.0	1873.0	1873.0	1883.0	1883.0	1883.0	1883.0	1883.0	1903.0	1903.0	1873.0	1873.0	1873.0	1907.0	1907.0	1876.0	1876.0	1876.0	1859.0	1859.0	1883.0	1883.0	1883.0	1888.0	1888.0	1884.0	1884.0	1884.0	1842.0	1842.0	1827.0	1827.0	1827.0	1826.0	1826.0	1878.0	1878.0	1878.0	1841.0	1841.0	1836.0	1836.0	1836.0	1858.0	1858.0	1845.0	1845.0	1845.0	1812.0	1812.0	1830.0	1830.0	1830.0	1808.0	1808.0	1830.0	1830.0	1830.0	1839.0	1839.0	1804.0	1804.0	1804.0	1795.0	1795.0	1812.0	1812.0	1812.0	1804.0	1804.0	1803.0	1803.0	1803.0	1808.0	1808.0	1784.0	1784.0	1784.0	1817.0	1817.0	1815.0	1815.0	1815.0	1805.0	1805.0	1812.0	1812.0	1812.0	1810.0	1810.0	1795.0	1795.0	1795.0	1771.0	1771.0	1804.0	1804.0	1804.0	1782.0	1782.0	1765.0	1765.0	1765.0	1796.0	1796.0	1777.0	1777.0	1777.0	1774.0	1774.0	1780.0	1780.0	1780.0	1752.0	1752.0	1772.0	1772.0	1772.0	1779.0	1779.0	1767.0	1767.0	1767.0	1749.0	1749.0	1736.0	1736.0	1736.0	1762.0	1762.0	1769.0	1769.0	1769.0	1758.0	1758.0	1760.0	1760.0	1760.0	1754.0	1754.0	1728.0	1728.0	1728.0	1733.0	1733.0	1731.0	1731.0	1731.0	1768.0	1768.0	1726.0	1726.0	1726.0	1732.0	1732.0	1723.0	1723.0	1723.0	1724.0	1724.0	1743.0	1743.0	1743.0	1701.0	1701.0	1708.0	1708.0	1703.0	1703.0	1703.0	1709.0	1709.0	1730.0	1730.0	1730.0	1736.0	1736.0	1712.0	1712.0	1712.0	1720.0	1720.0	1713.0	1713.0	1713.0	1695.0	1695.0	1727.0	1727.0	1727.0	1702.0	1702.0	1694.0	1694.0	1694.0	1715.0	1715.0	1724.0	1724.0	1724.0	1707.0	1707.0	1683.0	1683.0	1683.0	1712.0	1712.0	1705.0	1705.0	1705.0	1727.0	1727.0	1679.0	1679.0	1679.0	1706.0	1706.0	1711.0	1711.0	1711.0	1679.0	1679.0	1686.0	1686.0	1686.0	1692.0	1692.0	1688.0	1688.0	1688.0	1715.0	1715.0	1675.0	1675.0	1675.0	1667.0	1667.0	1707.0	1707.0	1707.0	1709.0	1709.0	1703.0	1703.0	1703.0	1718.0	1718.0	1712.0	1712.0	1712.0	1737.0	1737.0	1691.0	1691.0	1691.0	1735.0	1735.0	1720.0	1720.0	1720.0	1763.0	1763.0	1729.0	1729.0	1729.0	1754.0	1754.0	1753.0	1753.0	1753.0	1802.0	1802.0	1797.0	1797.0	1797.0	1858.0	1858.0	1868.0	1868.0	1868.0	1891.0	1891.0	1912.0	1912.0	1912.0	1958.0	1958.0	1956.0	1956.0	1956.0	1984.0	1984.0	2040.0	2040.0	2040.0	2043.0	2043.0	2058.0	2058.0	2058.0	2100.0	2100.0	2139.0	2139.0	2139.0	2160.0	2160.0	2188.0	2188.0	2188.0	2206.0	2206.0	2245.0	2245.0	2245.0	2267.0	2267.0	2271.0	2271.0	2271.0	2310.0	2310.0	2365.0	2365.0	2365.0	2361.0	2361.0	2408.0	2408.0	2408.0	2414.0	2414.0	2435.0	2435.0	2435.0	2474.0	2474.0	2462.0	2462.0	2462.0	2479.0	2479.0	2499.0	2499.0	2499.0	2536.0	2536.0	2543.0	2543.0	2543.0	2552.0	2552.0	2556.0	2556.0	2556.0	2551.0	2551.0	2572.0	2572.0	2572.0	2553.0	2553.0	2568.0	2568.0	2568.0	2608.0	2608.0	2601.0	2601.0	2619.0	2619.0	2619.0	2631.0	2631.0	2623.0	2623.0	2623.0	2634.0	2634.0	2615.0	2615.0	2615.0	2617.0	2617.0	2618.0	2618.0	2618.0	2616.0	2616.0	2633.0	2633.0	2633.0	2643.0	2643.0	2656.0	2656.0	2656.0	2644.0	2644.0	2619.0	2619.0	2619.0	2649.0	2649.0	2619.0	2619.0	2619.0	2648.0	2648.0	2634.0	2634.0	2634.0	2618.0	2618.0	2640.0	2640.0	2640.0	2607.0	2607.0	2613.0	2613.0	2613.0	2611.0	2611.0	2618.0	2618.0	2618.0	2632.0	2632.0	2605.0	2605.0	2605.0	2580.0	2580.0	2603.0	2603.0	2603.0	2593.0	2593.0	2566.0	2566.0	2566.0	2594.0	2594.0	2566.0	2566.0	2566.0	2578.0	2578.0	2579.0	2579.0	2579.0	2588.0	2588.0	2541.0	2541.0	2541.0	2560.0	2560.0	2576.0	2576.0	2576.0	2504.0	2504.0	2521.0	2521.0	2521.0	2536.0	2536.0	2507.0	2507.0	2507.0	2511.0	2511.0	2527.0	2527.0	2527.0	2511.0	2511.0	2487.0	2487.0	2487.0	2476.0	2476.0	2510.0	2510.0	2510.0	2479.0	2479.0	2447.0	2447.0	2447.0	2455.0	2455.0	2416.0	2416.0	2416.0	2436.0	2436.0	2442.0	2442.0	2442.0	2400.0	2400.0	2395.0	2395.0	2395.0	2384.0	2384.0	2384.0	2384.0	2384.0	2350.0	2350.0	2362.0	2362.0	2362.0	2350.0	2350.0	2336.0	2336.0	2336.0	2345.0	2345.0	2310.0	2310.0	2310.0	2284.0	2284.0	2277.0	2277.0	2277.0	2284.0	2284.0	2254.0	2254.0	2254.0	2259.0	2259.0	2243.0	2243.0	2243.0	2242.0	2242.0	2239.0	2239.0	2239.0	2206.0	2206.0	2212.0	2212.0	2212.0	2179.0	2179.0	2193.0	2193.0	2193.0	2185.0	2185.0	2155.0	2155.0	2155.0	2142.0	2142.0	2135.0	2135.0	2135.0	2160.0	2160.0	2141.0	2141.0	2141.0	2111.0	2111.0	2136.0	2136.0	2138.0	2138.0	2138.0	2095.0	2095.0	2074.0	2074.0	2074.0	2108.0	2108.0	2093.0	2093.0	2093.0	2105.0	2105.0	2056.0	2056.0	2056.0	2088.0	2088.0	2075.0	2075.0	2075.0	2053.0	2053.0	2047.0	2047.0	2047.0	2040.0	2040.0	2068.0	2068.0	2068.0	2028.0	2028.0	2061.0	2061.0	2061.0	2039.0	2039.0	2021.0	2021.0	2021.0	2041.0	2041.0	2007.0	2007.0	2007.0	1997.0	1997.0	2004.0	2004.0	2004.0	2013.0	2013.0	1977.0	1977.0	1977.0	2025.0	2025.0	1995.0	1995.0	1995.0	1981.0	1981.0	1961.0	1961.0	1961.0	1997.0	1997.0	2002.0	2002.0	2002.0	1984.0	1984.0	1968.0	1968.0	1968.0	1989.0	1989.0	1986.0	1986.0	1986.0	1938.0	1938.0	1980.0	1980.0	1980.0	1939.0	1939.0	1942.0	1942.0	1942.0	1968.0	1968.0	1924.0	1924.0	1924.0	1946.0	1946.0	1937.0	1937.0	1937.0	1951.0	1951.0	1919.0	1919.0	1919.0	1947.0	1947.0	1946.0	1946.0	1946.0	1930.0	1930.0	1930.0	1930.0	1930.0	1911.0	1911.0	1918.0	1918.0	1918.0	1890.0	1890.0	1876.0	1876.0	1876.0	1882.0	1882.0	1897.0	1897.0	1897.0	1892.0	1892.0	1862.0	1862.0	1862.0	1888.0	1888.0	1859.0	1859.0	1859.0	1867.0	1867.0	1883.0	1883.0	1883.0	1851.0	1851.0	1874.0	1874.0	1874.0	1862.0	1862.0	1849.0	1849.0	1849.0	1842.0	1842.0	1828.0	1828.0	1828.0	1829.0	1829.0	1868.0	1868.0	1868.0	1812.0	1812.0	1839.0	1839.0	1839.0	1824.0	1824.0	1855.0	1855.0	1855.0	1835.0	1835.0	1834.0	1834.0	1834.0	1843.0	1843.0	1835.0	1835.0	1835.0	1821.0	1821.0	1803.0	1803.0	1803.0	1796.0	1796.0	1795.0	1795.0	1795.0	1798.0	1798.0	1786.0	1786.0	1785.0	1785.0	1785.0	1811.0	1811.0	1787.0	1787.0	1787.0	1801.0	1801.0	1818.0	1818.0	1818.0	1816.0	1816.0	1816.0	1816.0	1816.0	1779.0	1779.0	1821.0	1821.0	1821.0	1792.0	1792.0	1777.0	1777.0	1777.0	1792.0	1792.0	1790.0	1790.0	1790.0	1790.0	1790.0	1757.0	1757.0	1757.0	1789.0	1789.0	1771.0	1771.0	1771.0	1751.0	1751.0	1753.0	1753.0	1753.0	1761.0	1761.0	1752.0	1752.0	1752.0	1786.0	1786.0	1747.0	1747.0	1747.0	