1953.0	1887.0	1887.0	1892.0	1892.0	1892.0	1902.0	1902.0	1894.0	1894.0	1894.0	1912.0	1912.0	1869.0	1869.0	1869.0	1908.0	1908.0	1908.0	1908.0	1908.0	1911.0	1911.0	1829.0	1829.0	1829.0	1871.0	1871.0	1883.0	1883.0	1883.0	1896.0	1896.0	1839.0	1839.0	1839.0	1799.0	1799.0	1782.0	1782.0	1782.0	1787.0	1787.0	1796.0	1796.0	1796.0	1843.0	1843.0	1760.0	1760.0	1760.0	1772.0	1772.0	1824.0	1824.0	1824.0	1771.0	1771.0	1748.0	1748.0	1748.0	1743.0	1743.0	1809.0	1809.0	1809.0	1731.0	1731.0	1747.0	1747.0	1747.0	1732.0	1732.0	1807.0	1807.0	1807.0	1740.0	1740.0	1802.0	1802.0	1802.0	1706.0	1706.0	1797.0	1797.0	1797.0	1764.0	1764.0	1775.0	1775.0	1775.0	1689.0	1689.0	1709.0	1709.0	1709.0	1759.0	1759.0	1689.0	1689.0	1689.0	1751.0	1751.0	1757.0	1757.0	1757.0	1745.0	1745.0	1693.0	1693.0	1693.0	1719.0	1719.0	1659.0	1659.0	1659.0	1738.0	1738.0	1661.0	1661.0	1661.0	1691.0	1691.0	1734.0	1734.0	1734.0	1709.0	1709.0	1626.0	1626.0	1626.0	1713.0	1713.0	1673.0	1673.0	1673.0	1628.0	1628.0	1705.0	1705.0	1705.0	1612.0	1612.0	1618.0	1618.0	1618.0	1684.0	1684.0	1692.0	1692.0	1692.0	1632.0	1632.0	1659.0	1659.0	1659.0	1603.0	1603.0	1622.0	1622.0	1622.0	1659.0	1659.0	1601.0	1601.0	1601.0	1615.0	1615.0	1635.0	1635.0	1635.0	1662.0	1662.0	1601.0	1601.0	1601.0	1664.0	1664.0	1615.0	1615.0	1615.0	1623.0	1623.0	1592.0	1592.0	1592.0	1658.0	1658.0	1576.0	1576.0	1576.0	1580.0	1580.0	1614.0	1614.0	1614.0	1598.0	1598.0	1655.0	1655.0	1655.0	1590.0	1590.0	1614.0	1614.0	1614.0	1567.0	1567.0	1656.0	1656.0	1603.0	1603.0	1603.0	1637.0	1637.0	1613.0	1613.0	1613.0	1573.0	1573.0	1604.0	1604.0	1604.0	1580.0	1580.0	1556.0	1556.0	1556.0	1566.0	1566.0	1608.0	1608.0	1608.0	1641.0	1641.0	1542.0	1542.0	1542.0	1545.0	1545.0	1628.0	1628.0	1628.0	1603.0	1603.0	1548.0	1548.0	1548.0	1555.0	1555.0	1602.0	1602.0	1602.0	1616.0	1616.0	1632.0	1632.0	1632.0	1552.0	1552.0	1631.0	1631.0	1631.0	1619.0	1619.0	1604.0	1604.0	1604.0	1597.0	1597.0	1534.0	1534.0	1534.0	1577.0	1577.0	1618.0	1618.0	1618.0	1603.0	1603.0	1577.0	1577.0	1577.0	1534.0	1534.0	1612.0	1612.0	1612.0	1604.0	1604.0	1584.0	1584.0	1584.0	1542.0	1542.0	1522.0	1522.0	1522.0	1537.0	1537.0	1579.0	1579.0	1579.0	1595.0	1595.0	1557.0	1557.0	1557.0	1557.0	1557.0	1587.0	1587.0	1587.0	1568.0	1568.0	1599.0	1599.0	1599.0	1511.0	1511.0	1580.0	1580.0	1580.0	1522.0	1522.0	1507.0	1507.0	1507.0	1543.0	1543.0	1512.0	1512.0	1512.0	1552.0	1552.0	1513.0	1513.0	1513.0	1517.0	1517.0	1549.0	1549.0	1549.0	1558.0	1558.0	1539.0	1539.0	1539.0	1630.0	1630.0	1555.0	1555.0	1555.0	1576.0	1576.0	1628.0	1628.0	1628.0	1679.0	1679.0	1720.0	1720.0	1720.0	1651.0	1651.0	1762.0	1762.0	1762.0	1774.0	1774.0	1734.0	1734.0	1734.0	1791.0	1791.0	1804.0	1804.0	1804.0	1884.0	1884.0	1841.0	1841.0	1841.0	1948.0	1948.0	1925.0	1925.0	1925.0	2029.0	2029.0	2062.0	2062.0	2062.0	2029.0	2029.0	2048.0	2048.0	2048.0	2078.0	2078.0	2124.0	2124.0	2124.0	2211.0	2211.0	2180.0	2180.0	2180.0	2279.0	2279.0	2291.0	2291.0	2307.0	2307.0	2307.0	2295.0	2295.0	2317.0	2317.0	2317.0	2400.0	2400.0	2413.0	2413.0	2413.0	2453.0	2453.0	2391.0	2391.0	2391.0	2480.0	2480.0	2519.0	2519.0	2519.0	2538.0	2538.0	2518.0	2518.0	2518.0	2559.0	2559.0	2542.0	2542.0	2542.0	2597.0	2597.0	2601.0	2601.0	2601.0	2567.0	2567.0	2545.0	2545.0	2545.0	2543.0	2543.0	2643.0	2643.0	2643.0	2576.0	2576.0	2573.0	2573.0	2573.0	2634.0	2634.0	2600.0	2600.0	2600.0	2622.0	2622.0	2662.0	2662.0	2662.0	2574.0	2574.0	2669.0	2669.0	2669.0	2639.0	2639.0	2603.0	2603.0	2603.0	2670.0	2670.0	2581.0	2581.0	2581.0	2648.0	2648.0	2654.0	2654.0	2654.0	2608.0	2608.0	2586.0	2586.0	2586.0	2657.0	2657.0	2659.0	2659.0	2659.0	2637.0	2637.0	2652.0	2652.0	2652.0	2560.0	2560.0	2554.0	2554.0	2554.0	2575.0	2575.0	2639.0	2639.0	2639.0	2573.0	2573.0	2545.0	2545.0	2545.0	2587.0	2587.0	2569.0	2569.0	2569.0	2547.0	2547.0	2538.0	2538.0	2538.0	2604.0	2604.0	2599.0	2599.0	2599.0	2543.0	2543.0	2558.0	2558.0	2558.0	2499.0	2499.0	2519.0	2519.0	2519.0	2512.0	2512.0	2560.0	2560.0	2560.0	2553.0	2553.0	2494.0	2494.0	2494.0	2481.0	2481.0	2436.0	2436.0	2436.0	2426.0	2426.0	2430.0	2430.0	2430.0	2479.0	2479.0	2465.0	2465.0	2465.0	2459.0	2459.0	2457.0	2457.0	2457.0	2455.0	2455.0	2430.0	2430.0	2430.0	2343.0	2343.0	2386.0	2386.0	2386.0	2391.0	2391.0	2304.0	2304.0	2304.0	2320.0	2320.0	2338.0	2338.0	2338.0	2279.0	2279.0	2260.0	2260.0	2260.0	2258.0	2258.0	2287.0	2287.0	2287.0	2227.0	2227.0	2248.0	2248.0	2193.0	2193.0	2193.0	2171.0	2171.0	2196.0	2196.0	2196.0	2149.0	2149.0	2114.0	2114.0	2114.0	2110.0	2110.0	2172.0	2172.0	2172.0	2129.0	2129.0	2165.0	2165.0	2165.0	2153.0	2153.0	2048.0	2048.0	2048.0	2047.0	2047.0	2109.0	2109.0	2109.0	2083.0	2083.0	2065.0	2065.0	2065.0	2018.0	2018.0	2029.0	2029.0	2029.0	2043.0	2043.0	2043.0	2043.0	2043.0	2032.0	2032.0	2017.0	2017.0	2017.0	1990.0	1990.0	2071.0	2071.0	2071.0	2074.0	2074.0	2011.0	2011.0	2011.0	1974.0	1974.0	2054.0	2054.0	2054.0	1963.0	1963.0	2049.0	2049.0	2049.0	2037.0	2037.0	2018.0	2018.0	2018.0	2042.0	2042.0	1945.0	1945.0	1945.0	1984.0	1984.0	1966.0	1966.0	1966.0	1928.0	1928.0	1926.0	1926.0	1926.0	2009.0	2009.0	1956.0	1956.0	1956.0	1928.0	1928.0	1971.0	1971.0	1971.0	1925.0	1925.0	1934.0	1934.0	1934.0	1927.0	1927.0	1924.0	1924.0	1924.0	1968.0	1968.0	1923.0	1923.0	1923.0	1986.0	1986.0	1992.0	1992.0	1992.0	1905.0	1905.0	1951.0	1951.0	1951.0	1895.0	1895.0	1976.0	1976.0	1976.0	1907.0	1907.0	1937.0	1937.0	1937.0	1875.0	1875.0	1947.0	1947.0	1947.0	1859.0	1859.0	1944.0	1944.0	1944.0	1854.0	1854.0	1926.0	1926.0	1926.0	1889.0	1889.0	1876.0	1876.0	1876.0	1837.0	1837.0	1823.0	1823.0	1823.0	1822.0	1822.0	1906.0	1906.0	1906.0	1831.0	1831.0	1867.0	1867.0	1867.0	1854.0	1854.0	1873.0	1873.0	1873.0	1885.0	1885.0	1810.0	1810.0	1810.0	1803.0	1803.0	1867.0	1867.0	1867.0	1809.0	1809.0	1843.0	1843.0	1843.0	1771.0	1771.0	1818.0	1818.0	1818.0	1793.0	1793.0	1761.0	1761.0	1761.0	1750.0	1750.0	1747.0	1747.0	1816.0	1816.0	1816.0	1736.0	1736.0	1767.0	1767.0	1767.0	1796.0	1796.0	1735.0	1735.0	1735.0	1715.0	1715.0	1801.0	1801.0	1801.0	1751.0	1751.0	1708.0	1708.0	1708.0	1751.0	1751.0	1742.0	1742.0	1742.0	1702.0	1702.0	1769.0	1769.0	1769.0	1695.0	1695.0	1749.0	1749.0	1749.0	1763.0	1763.0	1686.0	1686.0	1686.0	1671.0	1671.0	1737.0	1737.0	1737.0	1711.0	1711.0	1675.0	1675.0	1675.0	1751.0	1751.0	1664.0	1664.0	1664.0	1747.0	1747.0	1744.0	1744.0	1744.0	1661.0	1661.0	1674.0	1674.0	1674.0	1648.0	1648.0	1641.0	1641.0	1641.0	1652.0	1652.0	1667.0	1667.0	1667.0	1679.0	1679.0	1666.0	1666.0	1666.0	1665.0	1665.0	1706.0	1706.0	1706.0	1657.0	1657.0	1663.0	1663.0	1663.0	1720.0	1720.0	1703.0	1703.0	1703.0	1717.0	1717.0	1676.0	1676.0	1676.0	1632.0	1632.0	1628.0	1628.0	1628.0	1711.0	1711.0	1668.0	1668.0	1668.0	1705.0	1705.0	1674.0	1674.0	1674.0	1684.0	1684.0	1675.0	1675.0	1675.0	1694.0	1694.0	1683.0	1683.0	1683.0	1615.0	1615.0	1671.0	1671.0	1671.0	1613.0	1613.0	1698.0	1698.0	1698.0	1657.0	1657.0	1690.0	1690.0	1690.0	1619.0	1619.0	1650.0	1650.0	1650.0	1626.0	1626.0	1603.0	1603.0	1603.0	1669.0	1669.0	1608.0	1608.0	1608.0	1633.0	1633.0	1589.0	1589.0	1589.0	1632.0	1632.0	1587.0	1587.0	1587.0	1675.0	1675.0	1610.0	1610.0	1610.0	1605.0	1605.0	1671.0	1671.0	1671.0	1574.0	1574.0	1624.0	1624.0	1624.0	1670.0	1670.0	1597.0	1597.0	1597.0	1593.0	1593.0	1662.0	1662.0	1662.0	1654.0	1654.0	1662.0	1662.0	1662.0	1658.0	1658.0	1659.0	1659.0	1653.0	1653.0	1653.0	1654.0	1654.0	1613.0	1613.0	1613.0	1599.0	1599.0	1627.0	1627.0	1627.0	1652.0	1652.0	1573.0	1573.0	1573.0	1557.0	1557.0	1552.0	1552.0	1552.0	1559.0	1559.0	1568.0	1568.0	1568.0	1643.0	1643.0	1631.0	1631.0	1631.0	1546.0	1546.0	1571.0	1571.0	1571.0	1579.0	1579.0	1549.0	1549.0	1549.0	1548.0	1548.0	1643.0	1643.0	1643.0	1593.0	1593.0	1635.0	1635.0	1635.0	1566.0	1566.0	1572.0	1572.0	1572.0	1642.0	1642.0	1682.0	1682.0	1682.0	1642.0	1642.0	1618.0	1618.0	1618.0	1652.0	1652.0	1674.0	1674.0	1674.0	1714.0	1714.0	1786.0	1786.0	1786.0	1739.0	1739.0	1804.0	1804.0	1804.0	1806.0	1806.0	1886.0	1886.0	1886.0	1889.0	1889.0	1960.0	1960.0	1960.0	1974.0	1974.0	2012.0	2012.0	2012.0	2026.0	2026.0	2042.0	2042.0	2042.0	2036.0	2036.0	2079.0	2079.0	2079.0	2147.0	2147.0	2119.0	2119.0	2119.0	2239.0	2239.0	2195.0	2195.0	2195.0	2217.0	2217.0	2297.0	2297.0	2297.0	2335.0	2335.0	2366.0	2366.0	2366.0	2309.0	2309.0	2422.0	2422.0	2422.0	2420.0	2420.0	2390.0	2390.0	2390.0	2470.0	2470.0	2421.0	2421.0	2421.0	2537.0	2537.0	2490.0	2490.0	2490.0	2542.0	2542.0	2550.0	2550.0	2550.0	2530.0	2530.0	2616.0	2616.0	2616.0	2546.0	2546.0	2560.0	2560.0	2560.0	2589.0	2589.0	2635.0	2635.0	2635.0	2585.0	2585.0	2602.0	2602.0	2602.0	2598.0	2598.0	2619.0	2619.0	2619.0	2684.0	2684.0	2690.0	2690.0	2690.0	2642.0	2642.0	2624.0	2624.0	2624.0	2702.0	2702.0	2649.0	2649.0	2649.0	2692.0	2692.0	2640.0	2640.0	2640.0	2706.0	2706.0	2676.0	2676.0	2635.0	2635.0	2635.0	2643.0	2643.0	2619.0	2619.0	2619.0	2691.0	2691.0	2608.0	2608.0	2608.0	2613.0	2613.0	2645.0	2645.0	2645.0	2628.0	2628.0	2665.0	2665.0	2665.0	2666.0	2666.0	2583.0	2583.0	2583.0	2569.0	2569.0	2589.0	2589.0	2589.0	2605.0	2605.0	2556.0	2556.0	2556.0	2646.0	2646.0	2593.0	2593.0	2593.0	2579.0	2579.0	2579.0	2579.0	2579.0	2576.0	2576.0	2621.0	2621.0	2621.0	2568.0	2568.0	2579.0	2579.0	2579.0	2567.0	2567.0	2561.0	2561.0	2561.0	2587.0	2587.0	2590.0	2590.0	2590.0	2486.0	2486.0	2570.0	2570.0	2570.0	2554.0	2554.0	2485.0	2485.0	2485.0	2450.0	2450.0	2528.0	2528.0	2528.0	2455.0	2455.0	2419.0	2419.0	2419.0	2393.0	2393.0	2425.0	2425.0	2425.0	2446.0	2446.0	2373.0	2373.0	2373.0	2389.0	2389.0	2348.0	2348.0	2348.0	2390.0	2390.0	2307.0	2307.0	2307.0	2383.0	2383.0	2300.0	2300.0	2300.0	2310.0	2310.0	2263.0	2263.0	2263.0	2241.0	2241.0	2253.0	2253.0	2253.0	2209.0	2209.0	2203.0	2203.0	2203.0	2186.0	2186.0	2205.0	2205.0	2205.0	2199.0	2199.0	2212.0	2212.0	2212.0	2197.0	2197.0	2125.0	2125.0	2125.0	2112.0	2112.0	2182.0	2182.0	2182.0	2163.0	2163.0	2070.0	2070.0	2070.0	2110.0	2110.0	2140.0	2140.0	2140.0	2075.0	2075.0	2062.0	2062.0	2062.0	2037.0	2037.0	2020.0	2020.0	2020.0	2037.0	2037.0	2070.0	2070.0	2070.0	2012.0	2012.0	2013.0	2013.0	2013.0	2028.0	2028.0	2085.0	2085.0	2085.0	1996.0	1996.0	2027.0	2027.0	2027.0	2075.0	2075.0	1998.0	1998.0	1998.0	1985.0	1985.0	2067.0	2067.0	2067.0	2009.0	2009.0	1963.0	1963.0	1963.0	2052.0	2052.0	2004.0	2004.0	2027.0	2027.0	2027.0	1980.0	1980.0	2024.0	2024.0	2024.0	2015.0	2015.0	1946.0	1946.0	1946.0	1966.0	1966.0	1976.0	1976.0	1976.0	2020.0	2020.0	2010.0	2010.0	2010.0	1922.0	1922.0	2010.0	2010.0	2010.0	1985.0	1985.0	1960.0	1960.0	1960.0	1910.0	1910.0	1978.0	1978.0	1978.0	1927.0	1927.0	1919.0	1919.0	1919.0	1980.0	1980.0	1983.0	1983.0	1983.0	1952.0	1952.0	1874.0	1874.0	1874.0	1962.0	1962.0	1896.0	1896.0	1896.0	1899.0	1899.0	1879.0	1879.0	1879.0	1884.0	1884.0	1847.0	1847.0	1847.0	1846.0	1846.0	1904.0	1904.0	1904.0	1918.0	1918.0	1926.0	1926.0	1926.0	1894.0	1894.0	1828.0	1828.0	1828.0	1911.0	1911.0	1868.0	1868.0	1868.0	1883.0	1883.0	1832.0	1832.0	1832.0	1897.0	1897.0	1889.0	1889.0	1889.0	1791.0	1791.0	1789.0	1789.0	1789.0	1848.0	1848.0	1786.0	1786.0	1786.0	1784.0	1784.0	1773.0	1773.0	1773.0	1778.0	1778.0	1821.0	1821.0	1821.0	1799.0	1799.0	1772.0	1772.0	1772.0	1747.0	1747.0	1737.0	1737.0	1737.0	1740.0	1740.0	1732.0	1732.0	1732.0	1774.0	1774.0	1747.0	1747.0	1747.0	1731.0	1731.0	1711.0	1711.0	1711.0	1711.0	1711.0	1756.0	1756.0	1756.0	1712.0	1712.0	1782.0	1782.0	1782.0	1720.0	1720.0	1774.0	1774.0	1774.0	1759.0	1759.0	1728.0	1728.0	1728.0	1716.0	1716.0	1676.0	1676.0	1676.0	1729.0	1729.0	1677.0	1677.0	1677.0	1712.0	1712.0	1667.0	1667.0	1667.0	1751.0	1751.0	1757.0	1757.0	1757.0	1677.0	1677.0	1686.0	1686.0	1686.0	1734.0	1734.0	1728.0	1728.0	1728.0	1645.0	1645.0	1655.0	1655.0	1655.0	1641.0	1641.0	1689.0	1689.0	1727.0	1727.0	1727.0	1724.0	1724.0	1659.0	1659.0	1659.0	1676.0	1676.0	1632.0	1632.0	1632.0	1619.0	1619.0	1695.0	1695.0	1695.0	1714.0	1714.0	1655.0	1655.0	1655.0	1696.0	1696.0	1705.0	1705.0	1705.0	1619.0	1619.0	1647.0	1647.0	1647.0	1615.0	1615.0	1620.0	1620.0	1620.0	1709.0	1709.0	1706.0	1706.0	1706.0	1627.0	1627.0	1690.0	1690.0	1690.0	1672.0	1672.0	1652.0	1652.0	1652.0	1699.0	1699.0	1672.0	1672.0	1672.0	1687.0	1687.0	1670.0	1670.0	1670.0	1624.0	1624.0	1698.0	1698.0	1698.0	1607.0	1607.0	1617.0	1617.0	1617.0	1615.0	1615.0	1640.0	1640.0	1640.0	1651.0	1651.0	1628.0	1628.0	1628.0	1645.0	1645.0	1616.0	1616.0	1616.0	1609.0	1609.0	1669.0	1669.0	1669.0	1588.0	1588.0	1586.0	1586.0	1586.0	1582.0	1582.0	1586.0	1586.0	1586.0	1590.0	1590.0	1661.0	1661.0	1661.0	1650.0	1650.0	1584.0	1584.0	1584.0	1620.0	1620.0	1634.0	1634.0	1634.0	1600.0	1600.0	1572.0	1572.0	1572.0	1643.0	1643.0	1571.0	1571.0	1571.0	1594.0	1594.0	1576.0	1576.0	1576.0	1561.0	1561.0	1627.0	1627.0	1627.0	1561.0	1561.0	1616.0	1616.0	1616.0	1562.0	1562.0	1612.0	1612.0	1612.0	1556.0	1556.0	1586.0	1586.0	1586.0	1556.0	1556.0	1592.0	1592.0	1592.0	1609.0	1609.0	1565.0	1565.0	1565.0	1635.0	1635.0	1628.0	1628.0	1628.0	1547.0	1547.0	1562.0	1562.0	1562.0	1645.0	1645.0	1638.0	1638.0	1638.0	1605.0	1605.0	1587.0	1587.0	1587.0	1607.0	1607.0	1613.0	1613.0	1613.0	1592.0	1592.0	1597.0	1597.0	1597.0	1634.0	1634.0	1650.0	1650.0	1650.0	1726.0	1726.0	1694.0	1694.0	1694.0	1768.0	1768.0	1788.0	1788.0	1788.0	1788.0	1788.0	1833.0	1833.0	1782.0	1782.0	1782.0	1810.0	1810.0	1911.0	1911.0	1911.0	1956.0	1956.0	1899.0	1899.0	1899.0	1930.0	1930.0	1977.0	1977.0	1977.0	2021.0	2021.0	2024.0	2024.0	2024.0	2136.0	2136.0	2105.0	2105.0	2105.0	2198.0	2198.0	2158.0	2158.0	2158.0	2244.0	2244.0	2305.0	2305.0	2305.0	2235.0	2235.0	2273.0	2273.0	2273.0	2375.0	2375.0	2307.0	2307.0	2307.0	2413.0	2413.0	2371.0	2371.0	2371.0	2425.0	2425.0	2477.0	2477.0	2477.0	2462.0	2462.0	2436.0	2436.0	2436.0	2451.0	2451.0	2519.0	2519.0	2519.0	2552.0	2552.0	2505.0	2505.0	2505.0	2582.0	2582.0	2575.0	2575.0	2575.0	2568.0	2568.0	2525.0	2525.0	2525.0	2607.0	2607.0	2565.0	2565.0	2565.0	2603.0	2603.0	2629.0	2629.0	2629.0	2554.0	2554.0	2564.0	2564.0	2564.0	2636.0	2636.0	2554.0	2554.0	2554.0	2623.0	2623.0	2568.0	2568.0	2568.0	2637.0	2637.0	2581.0	2581.0	2581.0	2560.0	2560.0	2588.0	2588.0	2588.0	2555.0	2555.0	2557.0	2557.0	2557.0	2555.0	2555.0	2632.0	2632.0	2632.0	2551.0	2551.0	2544.0	2544.0	2544.0	2576.0	2576.0	2550.0	2550.0	2550.0	2616.0	2616.0	2582.0	2582.0	2582.0	2531.0	2531.0	2612.0	2612.0	2612.0	2544.0	2544.0	2568.0	2568.0	2568.0	2508.0	2508.0	2588.0	2588.0	2588.0	2583.0	2583.0	2521.0	2521.0	2521.0	2507.0	2507.0	2571.0	2571.0	2571.0	2504.0	2504.0	2570.0	2570.0	2570.0	2476.0	2476.0	2474.0	2474.0	2474.0	2457.0	2457.0	2456.0	2456.0	2456.0	2487.0	2487.0	2518.0	2518.0	2518.0	2444.0	2444.0	2451.0	2451.0	2451.0	2485.0	2485.0	2436.0	2436.0	2396.0	2396.0	2396.0	2373.0	2373.0	2448.0	2448.0	2448.0	2425.0	2425.0	2384.0	2384.0	2384.0	2380.0	2380.0	2316.0	2316.0	2316.0	2382.0	2382.0	2292.0	2292.0	2292.0	2351.0	2351.0	2343.0	2343.0	2343.0	2330.0	2330.0	2303.0	2303.0	2303.0	2228.0	2228.0	2236.0	2236.0	2236.0	2275.0	2275.0	2187.0	2187.0	2187.0	2240.0	2240.0	2215.0	2215.0	2215.0	2146.0	2146.0	2178.0	2178.0	2178.0	2118.0	2118.0	2175.0	2175.0	