2207.0	2207.0	2179.0	2179.0	2179.0	2164.0	2164.0	2152.0	2152.0	2152.0	2200.0	2200.0	2197.0	2197.0	2197.0	2211.0	2211.0	2174.0	2174.0	2174.0	2099.0	2099.0	2178.0	2178.0	2178.0	2167.0	2167.0	2174.0	2174.0	2174.0	2166.0	2166.0	2156.0	2156.0	2068.0	2068.0	2068.0	2143.0	2143.0	2062.0	2062.0	2062.0	2075.0	2075.0	2045.0	2045.0	2045.0	2039.0	2039.0	2047.0	2047.0	2047.0	2112.0	2112.0	2082.0	2082.0	2082.0	2089.0	2089.0	2017.0	2017.0	2017.0	2053.0	2053.0	2074.0	2074.0	2074.0	2025.0	2025.0	2069.0	2069.0	2069.0	2037.0	2037.0	1998.0	1998.0	1998.0	2085.0	2085.0	2082.0	2082.0	2082.0	2022.0	2022.0	2020.0	2020.0	2020.0	1996.0	1996.0	2051.0	2051.0	2051.0	1987.0	1987.0	1998.0	1998.0	1998.0	2058.0	2058.0	1975.0	1975.0	1975.0	1980.0	1980.0	2041.0	2041.0	2041.0	2044.0	2044.0	1980.0	1980.0	1980.0	1966.0	1966.0	2017.0	2017.0	2017.0	1940.0	1940.0	1930.0	1930.0	1930.0	1952.0	1952.0	2013.0	2013.0	2013.0	1994.0	1994.0	1961.0	1961.0	1961.0	1921.0	1921.0	1931.0	1931.0	1931.0	1967.0	1967.0	1957.0	1957.0	1957.0	1911.0	1911.0	1923.0	1923.0	1923.0	1914.0	1914.0	1922.0	1922.0	1922.0	1895.0	1895.0	1882.0	1882.0	1882.0	1957.0	1957.0	1950.0	1950.0	1950.0	1947.0	1947.0	1893.0	1893.0	1893.0	1863.0	1863.0	1933.0	1933.0	1933.0	1843.0	1843.0	1865.0	1865.0	1865.0	1856.0	1856.0	1836.0	1836.0	1836.0	1925.0	1925.0	1875.0	1875.0	1875.0	1885.0	1885.0	1895.0	1895.0	1895.0	1839.0	1839.0	1871.0	1871.0	1871.0	1815.0	1815.0	1811.0	1811.0	1811.0	1879.0	1879.0	1878.0	1878.0	1878.0	1832.0	1832.0	1838.0	1838.0	1838.0	1868.0	1868.0	1776.0	1776.0	1776.0	1836.0	1836.0	1772.0	1772.0	1772.0	1840.0	1840.0	1836.0	1836.0	1836.0	1748.0	1748.0	1841.0	1841.0	1841.0	1788.0	1788.0	1834.0	1834.0	1739.0	1739.0	1739.0	1752.0	1752.0	1826.0	1826.0	1826.0	1737.0	1737.0	1735.0	1735.0	1735.0	1750.0	1750.0	1805.0	1805.0	1805.0	1730.0	1730.0	1788.0	1788.0	1788.0	1783.0	1783.0	1764.0	1764.0	1764.0	1727.0	1727.0	1783.0	1783.0	1783.0	1696.0	1696.0	1770.0	1770.0	1770.0	1763.0	1763.0	1743.0	1743.0	1743.0	1688.0	1688.0	1766.0	1766.0	1766.0	1694.0	1694.0	1740.0	1740.0	1740.0	1752.0	1752.0	1756.0	1756.0	1756.0	1754.0	1754.0	1722.0	1722.0	1722.0	1751.0	1751.0	1735.0	1735.0	1735.0	1670.0	1670.0	1669.0	1669.0	1669.0	1757.0	1757.0	1749.0	1749.0	1749.0	1668.0	1668.0	1737.0	1737.0	1737.0	1730.0	1730.0	1739.0	1739.0	1739.0	1684.0	1684.0	1714.0	1714.0	1714.0	1699.0	1699.0	1750.0	1750.0	1750.0	1686.0	1686.0	1728.0	1728.0	1728.0	1742.0	1742.0	1676.0	1676.0	1676.0	1659.0	1659.0	1707.0	1707.0	1707.0	1685.0	1685.0	1651.0	1651.0	1651.0	1709.0	1709.0	1737.0	1737.0	1737.0	1647.0	1647.0	1651.0	1651.0	1651.0	1677.0	1677.0	1714.0	1714.0	1714.0	1643.0	1643.0	1654.0	1654.0	1654.0	1649.0	1649.0	1698.0	1698.0	1698.0	1699.0	1699.0	1636.0	1636.0	1636.0	1665.0	1665.0	1648.0	1648.0	1648.0	1663.0	1663.0	1642.0	1642.0	1642.0	1628.0	1628.0	1712.0	1712.0	1712.0	1640.0	1640.0	1680.0	1680.0	1680.0	1630.0	1630.0	1642.0	1642.0	1642.0	1701.0	1701.0	1614.0	1614.0	1614.0	1690.0	1690.0	1632.0	1632.0	1632.0	1607.0	1607.0	1691.0	1691.0	1691.0	1620.0	1620.0	1634.0	1634.0	1634.0	1618.0	1618.0	1695.0	1695.0	1695.0	1677.0	1677.0	1634.0	1634.0	1669.0	1669.0	1669.0	1697.0	1697.0	1660.0	1660.0	1660.0	1623.0	1623.0	1653.0	1653.0	1653.0	1697.0	1697.0	1706.0	1706.0	1706.0	1700.0	1700.0	1681.0	1681.0	1681.0	1654.0	1654.0	1657.0	1657.0	1657.0	1662.0	1662.0	1763.0	1763.0	1763.0	1778.0	1778.0	1791.0	1791.0	1791.0	1799.0	1799.0	1751.0	1751.0	1751.0	1768.0	1768.0	1768.0	1768.0	1768.0	1827.0	1827.0	1932.0	1932.0	1932.0	1919.0	1919.0	1962.0	1962.0	1962.0	2019.0	2019.0	2003.0	2003.0	2003.0	2031.0	2031.0	2024.0	2024.0	2024.0	2039.0	2039.0	2091.0	2091.0	2091.0	2107.0	2107.0	2206.0	2206.0	2206.0	2149.0	2149.0	2179.0	2179.0	2179.0	2286.0	2286.0	2237.0	2237.0	2237.0	2258.0	2258.0	2295.0	2295.0	2295.0	2338.0	2338.0	2327.0	2327.0	2327.0	2379.0	2379.0	2402.0	2402.0	2402.0	2389.0	2389.0	2357.0	2357.0	2357.0	2395.0	2395.0	2443.0	2443.0	2443.0	2418.0	2418.0	2416.0	2416.0	2416.0	2405.0	2405.0	2437.0	2437.0	2437.0	2513.0	2513.0	2510.0	2510.0	2510.0	2428.0	2428.0	2483.0	2483.0	2483.0	2453.0	2453.0	2497.0	2497.0	2497.0	2447.0	2447.0	2533.0	2533.0	2533.0	2455.0	2455.0	2464.0	2464.0	2464.0	2533.0	2533.0	2526.0	2526.0	2526.0	2524.0	2524.0	2456.0	2456.0	2456.0	2491.0	2491.0	2469.0	2469.0	2469.0	2538.0	2538.0	2533.0	2533.0	2533.0	2456.0	2456.0	2535.0	2535.0	2535.0	2450.0	2450.0	2470.0	2470.0	2470.0	2544.0	2544.0	2521.0	2521.0	2521.0	2456.0	2456.0	2449.0	2449.0	2449.0	2452.0	2452.0	2482.0	2482.0	2482.0	2521.0	2521.0	2471.0	2471.0	2471.0	2517.0	2517.0	2456.0	2456.0	2456.0	2434.0	2434.0	2438.0	2438.0	2451.0	2451.0	2451.0	2517.0	2517.0	2468.0	2468.0	2468.0	2516.0	2516.0	2437.0	2437.0	2437.0	2509.0	2509.0	2423.0	2423.0	2423.0	2437.0	2437.0	2425.0	2425.0	2425.0	2436.0	2436.0	2492.0	2492.0	2492.0	2387.0	2387.0	2403.0	2403.0	2403.0	2443.0	2443.0	2401.0	2401.0	2401.0	2455.0	2455.0	2449.0	2449.0	2449.0	2369.0	2369.0	2402.0	2402.0	2402.0	2353.0	2353.0	2381.0	2381.0	2381.0	2394.0	2394.0	2315.0	2315.0	2315.0	2383.0	2383.0	2379.0	2379.0	2379.0	2371.0	2371.0	2286.0	2286.0	2286.0	2343.0	2343.0	2278.0	2278.0	2278.0	2331.0	2331.0	2286.0	2286.0	2286.0	2215.0	2215.0	2205.0	2205.0	2205.0	2185.0	2185.0	2271.0	2271.0	2271.0	2177.0	2177.0	2174.0	2174.0	2174.0	2171.0	2171.0	2203.0	2203.0	2203.0	2203.0	2203.0	2215.0	2215.0	2215.0	2148.0	2148.0	2200.0	2200.0	2200.0	2149.0	2149.0	2119.0	2119.0	2119.0	2179.0	2179.0	2102.0	2102.0	2102.0	2151.0	2151.0	2160.0	2160.0	2160.0	2058.0	2058.0	2138.0	2138.0	2138.0	2121.0	2121.0	2053.0	2053.0	2053.0	2134.0	2134.0	2130.0	2130.0	2130.0	2043.0	2043.0	2046.0	2046.0	2046.0	2049.0	2049.0	2040.0	2040.0	2040.0	2019.0	2019.0	2117.0	2117.0	2117.0	2021.0	2021.0	2044.0	2044.0	2044.0	2096.0	2096.0	2050.0	2050.0	2050.0	2059.0	2059.0	2006.0	2006.0	2006.0	2009.0	2009.0	2030.0	2030.0	2030.0	2057.0	2057.0	2065.0	2065.0	2065.0	2011.0	2011.0	2064.0	2064.0	2064.0	1998.0	1998.0	2008.0	2008.0	2008.0	2031.0	2031.0	2011.0	2011.0	2011.0	1977.0	1977.0	2020.0	2020.0	2020.0	2035.0	2035.0	1949.0	1949.0	2016.0	2016.0	2016.0	2019.0	2019.0	2024.0	2024.0	2024.0	1988.0	1988.0	1936.0	1936.0	1936.0	1924.0	1924.0	1946.0	1946.0	1946.0	1920.0	1920.0	1952.0	1952.0	1952.0	1965.0	1965.0	1971.0	1971.0	1971.0	1984.0	1984.0	1915.0	1915.0	1915.0	1922.0	1922.0	1939.0	1939.0	1939.0	1880.0	1880.0	1879.0	1879.0	1879.0	1911.0	1911.0	1958.0	1958.0	1958.0	1905.0	1905.0	1865.0	1865.0	1865.0	1863.0	1863.0	1889.0	1889.0	1889.0	1850.0	1850.0	1891.0	1891.0	1891.0	1828.0	1828.0	1886.0	1886.0	1886.0	1903.0	1903.0	1837.0	1837.0	1837.0	1895.0	1895.0	1874.0	1874.0	1874.0	1805.0	1805.0	1871.0	1871.0	1871.0	1811.0	1811.0	1804.0	1804.0	1804.0	1811.0	1811.0	1863.0	1863.0	1863.0	1792.0	1792.0	1840.0	1840.0	1840.0	1831.0	1831.0	1851.0	1851.0	1851.0	1820.0	1820.0	1777.0	1777.0	1777.0	1764.0	1764.0	1778.0	1778.0	1778.0	1759.0	1759.0	1755.0	1755.0	1755.0	1783.0	1783.0	1819.0	1819.0	1819.0	1822.0	1822.0	1789.0	1789.0	1789.0	1793.0	1793.0	1732.0	1732.0	1732.0	1726.0	1726.0	1714.0	1714.0	1714.0	1718.0	1718.0	1745.0	1745.0	1745.0	1791.0	1791.0	1778.0	1778.0	1778.0	1710.0	1710.0	1759.0	1759.0	1759.0	1755.0	1755.0	1782.0	1782.0	1782.0	1735.0	1735.0	1782.0	1782.0	1782.0	1773.0	1773.0	1728.0	1728.0	1728.0	1753.0	1753.0	1759.0	1759.0	1759.0	1780.0	1780.0	1734.0	1734.0	1734.0	1773.0	1773.0	1739.0	1739.0	1739.0	1775.0	1775.0	1767.0	1767.0	1767.0	1702.0	1702.0	1717.0	1717.0	1717.0	1678.0	1678.0	1697.0	1697.0	1697.0	1714.0	1714.0	1675.0	1675.0	1675.0	1670.0	1670.0	1758.0	1758.0	1687.0	1687.0	1687.0	1688.0	1688.0	1753.0	1753.0	1753.0	1734.0	1734.0	1764.0	1764.0	1764.0	1675.0	1675.0	1673.0	1673.0	1673.0	1689.0	1689.0	1686.0	1686.0	1686.0	1667.0	1667.0	1747.0	1747.0	1747.0	1759.0	1759.0	1666.0	1666.0	1666.0	1750.0	1750.0	1737.0	1737.0	1737.0	1659.0	1659.0	1689.0	1689.0	1689.0	1662.0	1662.0	1669.0	1669.0	1669.0	1749.0	1749.0	1672.0	1672.0	1672.0	1647.0	1647.0	1744.0	1744.0	1744.0	1740.0	1740.0	1656.0	1656.0	1656.0	1673.0	1673.0	1694.0	1694.0	1694.0	1702.0	1702.0	1736.0	1736.0	1736.0	1654.0	1654.0	1735.0	1735.0	1735.0	1715.0	1715.0	1738.0	1738.0	1738.0	1669.0	1669.0	1655.0	1655.0	1655.0	1728.0	1728.0	1655.0	1655.0	1655.0	1640.0	1640.0	1641.0	1641.0	1641.0	1634.0	1634.0	1683.0	1683.0	1683.0	1631.0	1631.0	1661.0	1661.0	1661.0	1695.0	1695.0	1652.0	1652.0	1652.0	1721.0	1721.0	1697.0	1697.0	1697.0	1644.0	1644.0	1711.0	1711.0	1711.0	1639.0	1639.0	1711.0	1711.0	1711.0	1630.0	1630.0	1646.0	1646.0	1646.0	1663.0	1663.0	1720.0	1720.0	1720.0	1691.0	1691.0	1644.0	1644.0	1644.0	1659.0	1659.0	1679.0	1679.0	1679.0	1685.0	1685.0	1699.0	1699.0	1699.0	1732.0	1732.0	1716.0	1716.0	1716.0	1798.0	1798.0	1838.0	1838.0	1838.0	1762.0	1762.0	1860.0	1860.0	1860.0	1868.0	1868.0	1876.0	1876.0	1876.0	1864.0	1864.0	1920.0	1920.0	1920.0	1986.0	1986.0	1998.0	1998.0	1998.0	2039.0	2039.0	2058.0	2058.0	2058.0	2059.0	2059.0	2047.0	2047.0	2047.0	2065.0	2065.0	2181.0	2181.0	2181.0	2181.0	2181.0	2155.0	2155.0	2233.0	2233.0	2233.0	2202.0	2202.0	2232.0	2232.0	2232.0	2288.0	2288.0	2278.0	2278.0	2278.0	2375.0	2375.0	2302.0	2302.0	2302.0	2377.0	2377.0	2418.0	2418.0	2418.0	2361.0	2361.0	2417.0	2417.0	2417.0	2392.0	2392.0	2468.0	2468.0	2468.0	2429.0	2429.0	2413.0	2413.0	2413.0	2436.0	2436.0	2439.0	2439.0	2439.0	2431.0	2431.0	2544.0	2544.0	2544.0	2463.0	2463.0	2526.0	2526.0	2526.0	2480.0	2480.0	2513.0	2513.0	2513.0	2495.0	2495.0	2559.0	2559.0	2559.0	2481.0	2481.0	2484.0	2484.0	2484.0	2580.0	2580.0	2527.0	2527.0	2527.0	2583.0	2583.0	2583.0	2583.0	2583.0	2502.0	2502.0	2509.0	2509.0	2509.0	2496.0	2496.0	2594.0	2594.0	2594.0	2575.0	2575.0	2580.0	2580.0	2580.0	2583.0	2583.0	2546.0	2546.0	2546.0	2586.0	2586.0	2533.0	2533.0	2533.0	2527.0	2527.0	2534.0	2534.0	2534.0	2562.0	2562.0	2521.0	2521.0	2521.0	2526.0	2526.0	2485.0	2485.0	2485.0	2578.0	2578.0	2512.0	2512.0	2512.0	2515.0	2515.0	2507.0	2507.0	2507.0	2487.0	2487.0	2547.0	2547.0	2547.0	2465.0	2465.0	2512.0	2512.0	2512.0	2543.0	2543.0	2455.0	2455.0	2455.0	2523.0	2523.0	2435.0	2435.0	2435.0	2435.0	2435.0	2484.0	2484.0	2484.0	2474.0	2474.0	2508.0	2508.0	2508.0	2438.0	2438.0	2424.0	2424.0	2424.0	2486.0	2486.0	2466.0	2466.0	2466.0	2441.0	2441.0	2455.0	2455.0	2455.0	2434.0	2434.0	2436.0	2436.0	2436.0	2373.0	2373.0	2327.0	2327.0	2327.0	2328.0	2328.0	2351.0	2351.0	2351.0	2328.0	2328.0	2326.0	2326.0	2326.0	2349.0	2349.0	2342.0	2342.0	2342.0	2250.0	2250.0	2324.0	2324.0	2230.0	2230.0	2230.0	2229.0	2229.0	2213.0	2213.0	2213.0	2287.0	2287.0	2273.0	2273.0	2273.0	2195.0	2195.0	2167.0	2167.0	2167.0	2236.0	2236.0	2240.0	2240.0	2240.0	2166.0	2166.0	2222.0	2222.0	2222.0	2214.0	2214.0	2208.0	2208.0	2208.0	2114.0	2114.0	2182.0	2182.0	2182.0	2154.0	2154.0	2087.0	2087.0	2087.0	2152.0	2152.0	2152.0	2152.0	2152.0	2098.0	2098.0	2070.0	2070.0	2070.0	2136.0	2136.0	2156.0	2156.0	2156.0	2071.0	2071.0	2095.0	2095.0	2095.0	2083.0	2083.0	2121.0	2121.0	2121.0	2108.0	2108.0	2043.0	2043.0	2043.0	2029.0	2029.0	2062.0	2062.0	2062.0	2116.0	2116.0	2092.0	2092.0	2092.0	2075.0	2075.0	2106.0	2106.0	2106.0	2076.0	2076.0	2016.0	2016.0	2016.0	2047.0	2047.0	2103.0	2103.0	2103.0	2014.0	2014.0	2031.0	2031.0	2031.0	2065.0	2065.0	1997.0	1997.0	1997.0	2066.0	2066.0	2019.0	2019.0	2019.0	1988.0	1988.0	2067.0	2067.0	2067.0	2073.0	2073.0	2043.0	2043.0	2043.0	1974.0	1974.0	2011.0	2011.0	2011.0	2061.0	2061.0	1977.0	1977.0	1977.0	1986.0	1986.0	1970.0	1970.0	1970.0	2019.0	2019.0	1962.0	1962.0	1962.0	2035.0	2035.0	1964.0	1964.0	1964.0	1949.0	1949.0	2018.0	2018.0	2018.0	1957.0	1957.0	1954.0	1954.0	1954.0	1940.0	1940.0	1968.0	1968.0	1968.0	1985.0	1985.0	1972.0	1972.0	1972.0	1910.0	1910.0	1923.0	1923.0	1923.0	1890.0	1890.0	1912.0	1912.0	1912.0	1959.0	1959.0	1938.0	1938.0	1938.0	1879.0	1879.0	1952.0	1952.0	1952.0	1938.0	1938.0	1923.0	1923.0	1923.0	1876.0	1876.0	1843.0	1843.0	1843.0	1912.0	1912.0	1910.0	1910.0	1910.0	1889.0	1889.0	1912.0	1912.0	1906.0	1906.0	1906.0	1906.0	1906.0	1838.0	1838.0	1838.0	1897.0	1897.0	1853.0	1853.0	1853.0	1830.0	1830.0	1799.0	1799.0	1799.0	1875.0	1875.0	1782.0	1782.0	1782.0	1785.0	1785.0	1824.0	1824.0	1824.0	1790.0	1790.0	1782.0	1782.0	1782.0	1817.0	1817.0	1806.0	1806.0	1806.0	1846.0	1846.0	1832.0	1832.0	1832.0	1840.0	1840.0	1798.0	1798.0	1798.0	1749.0	1749.0	1746.0	1746.0	1746.0	1742.0	1742.0	1760.0	1760.0	1760.0	1771.0	1771.0	1748.0	1748.0	1748.0	1730.0	1730.0	1737.0	1737.0	1737.0	1819.0	1819.0	1790.0	1790.0	1790.0	1723.0	1723.0	1750.0	1750.0	1750.0	1719.0	1719.0	1783.0	1783.0	1783.0	1805.0	1805.0	1771.0	1771.0	1771.0	1727.0	1727.0	1793.0	1793.0	1793.0	1704.0	1704.0	1780.0	1780.0	1780.0	1695.0	1695.0	1759.0	1759.0	1759.0	1783.0	1783.0	1792.0	1792.0	1792.0	1694.0	1694.0	1696.0	1696.0	1696.0	1716.0	1716.0	1698.0	1698.0	1698.0	1776.0	1776.0	1778.0	1778.0	1778.0	1686.0	1686.0	1735.0	1735.0	1735.0	1692.0	1692.0	1769.0	1769.0	1769.0	1694.0	1694.0	1691.0	1691.0	1691.0	1703.0	1703.0	1758.0	1758.0	1758.0	1715.0	1715.0	1723.0	1723.0	1723.0	1676.0	1676.0	1691.0	1691.0	1691.0	1678.0	1678.0	1731.0	1731.0	1731.0	1662.0	1662.0	1757.0	1757.0	1757.0	1689.0	1689.0	1755.0	1755.0	1755.0	1684.0	1684.0	1660.0	1660.0	1660.0	1755.0	1755.0	1751.0	1751.0	1751.0	1759.0	1759.0	1707.0	1707.0	1707.0	1653.0	1653.0	1659.0	1659.0	1659.0	1668.0	1668.0	1703.0	1703.0	1703.0	1693.0	1693.0	1668.0	1668.0	1668.0	1666.0	1666.0	1640.0	1640.0	1699.0	1699.0	1699.0	1714.0	1714.0	1664.0	1664.0	1664.0	1723.0	1723.0	1696.0	1696.0	1696.0	1705.0	1705.0	1688.0	1688.0	1688.0	1665.0	1665.0	1710.0	1710.0	1710.0	1657.0	1657.0	1618.0	1618.0	1618.0	1619.0	1619.0	1627.0	1627.0	1627.0	1699.0	1699.0	1624.0	1624.0	1624.0	1623.0	1623.0	1707.0	1707.0	1707.0	1618.0	1618.0	1616.0	1616.0	1616.0	1679.0	1679.0	1654.0	1654.0	1654.0	1628.0	1628.0	1631.0	1631.0	1631.0	1639.0	1639.0	1707.0	1707.0	1707.0	1697.0	1697.0	1719.0	1719.0	1719.0	1710.0	1710.0	1642.0	1642.0	1642.0	1653.0	1653.0	1738.0	1738.0	1738.0	1682.0	1682.0	1760.0	1760.0	1760.0	1756.0	1756.0	1769.0	1769.0	1769.0	1806.0	1806.0	1751.0	1751.0	1751.0	1851.0	1851.0	1820.0	1820.0	1820.0	1830.0	1830.0	1883.0	1883.0	1883.0	1891.0	1891.0	1931.0	1931.0	1931.0	1995.0	1995.0	1955.0	1955.0	1955.0	2054.0	2054.0	2005.0	2005.0	2005.0	2110.0	2110.0	2135.0	2135.0	2135.0	2084.0	2084.0	2141.0	2141.0	2141.0	2153.0	2153.0	2222.0	2222.0	2222.0	2192.0	2192.0	2304.0	2304.0	2304.0	2333.0	2333.0	2282.0	2282.0	2282.0	2341.0	2341.0	2376.0	2376.0	2376.0	2349.0	2349.0	2413.0	2413.0	2413.0	2411.0	2411.0	2405.0	2405.0	2405.0	2437.0	2437.0	2495.0	2495.0	2495.0	2503.0	2503.0	2519.0	2519.0	2519.0	2514.0	2514.0	2454.0	2454.0	2454.0	2547.0	2547.0	2531.0	2531.0	2531.0	2534.0	2534.0	2547.0	2547.0	2547.0	2525.0	2525.0	2533.0	2533.0	2533.0	2559.0	2559.0	2520.0	2520.0	2520.0	2560.0	2560.0	2596.0	2596.0	2596.0	2538.0	2538.0	2591.0	2591.0	2568.0	2568.0	2568.0	2579.0	2579.0	2579.0	2579.0	2579.0	2521.0	2521.0	2531.0	2531.0	2531.0	2519.0	2519.0	2562.0	2562.0	2562.0	2533.0	2533.0	2615.0	2615.0	2615.0	2522.0	2522.0	2548.0	2548.0	2548.0	2526.0	2526.0	2607.0	