1819.0	1779.0	1779.0	1779.0	1823.0	1823.0	1783.0	1783.0	1783.0	1778.0	1778.0	1773.0	1773.0	1773.0	1810.0	1810.0	1715.0	1715.0	1770.0	1770.0	1770.0	1786.0	1786.0	1701.0	1701.0	1701.0	1720.0	1720.0	1700.0	1700.0	1700.0	1681.0	1681.0	1735.0	1735.0	1735.0	1756.0	1756.0	1666.0	1666.0	1666.0	1746.0	1746.0	1702.0	1702.0	1702.0	1680.0	1680.0	1717.0	1717.0	1717.0	1660.0	1660.0	1680.0	1680.0	1680.0	1683.0	1683.0	1695.0	1695.0	1695.0	1691.0	1691.0	1610.0	1610.0	1610.0	1605.0	1605.0	1591.0	1591.0	1591.0	1605.0	1605.0	1611.0	1611.0	1611.0	1646.0	1646.0	1576.0	1576.0	1576.0	1644.0	1644.0	1641.0	1641.0	1641.0	1599.0	1599.0	1636.0	1636.0	1636.0	1580.0	1580.0	1569.0	1569.0	1569.0	1551.0	1551.0	1545.0	1545.0	1545.0	1597.0	1597.0	1624.0	1624.0	1624.0	1581.0	1581.0	1561.0	1561.0	1561.0	1536.0	1536.0	1629.0	1629.0	1629.0	1572.0	1572.0	1582.0	1582.0	1582.0	1562.0	1562.0	1559.0	1559.0	1559.0	1587.0	1587.0	1597.0	1597.0	1597.0	1562.0	1562.0	1567.0	1567.0	1567.0	1599.0	1599.0	1675.0	1675.0	1675.0	1677.0	1677.0	1643.0	1643.0	1643.0	1691.0	1691.0	1671.0	1671.0	1671.0	1722.0	1722.0	1743.0	1743.0	1743.0	1738.0	1738.0	1742.0	1742.0	1742.0	1792.0	1792.0	1800.0	1800.0	1800.0	1852.0	1852.0	1873.0	1873.0	1873.0	1827.0	1827.0	1871.0	1871.0	1871.0	1912.0	1912.0	2008.0	2008.0	2008.0	2006.0	2006.0	2068.0	2068.0	2068.0	2084.0	2084.0	2139.0	2139.0	2139.0	2157.0	2157.0	2211.0	2211.0	2211.0	2255.0	2255.0	2289.0	2289.0	2289.0	2268.0	2268.0	2305.0	2305.0	2305.0	2391.0	2391.0	2360.0	2360.0	2360.0	2372.0	2372.0	2408.0	2408.0	2408.0	2470.0	2470.0	2472.0	2472.0	2608.0	2608.0	2608.0	2580.0	2580.0	2647.0	2647.0	2647.0	2635.0	2635.0	2747.0	2747.0	2747.0	2684.0	2684.0	2795.0	2795.0	2795.0	2760.0	2760.0	2825.0	2825.0	2825.0	2853.0	2853.0	2924.0	2924.0	2924.0	2881.0	2881.0	2961.0	2961.0	2961.0	2987.0	2987.0	3040.0	3040.0	3040.0	2966.0	2966.0	3069.0	3069.0	3069.0	3043.0	3043.0	3043.0	3043.0	3043.0	3112.0	3112.0	3109.0	3109.0	3109.0	3116.0	3116.0	3148.0	3148.0	3148.0	3226.0	3226.0	3195.0	3195.0	3195.0	3227.0	3227.0	3269.0	3269.0	3269.0	3316.0	3316.0	3307.0	3307.0	3307.0	3351.0	3351.0	3325.0	3325.0	3325.0	3363.0	3363.0	3304.0	3304.0	3304.0	3402.0	3402.0	3334.0	3334.0	3334.0	3344.0	3344.0	3374.0	3374.0	3374.0	3387.0	3387.0	3457.0	3457.0	3457.0	3460.0	3460.0	3398.0	3398.0	3398.0	3386.0	3386.0	3418.0	3418.0	3418.0	3487.0	3487.0	3421.0	3421.0	3421.0	3480.0	3480.0	3455.0	3455.0	3455.0	3490.0	3490.0	3407.0	3407.0	3407.0	3482.0	3482.0	3472.0	3472.0	3472.0	3476.0	3476.0	3481.0	3481.0	3481.0	3428.0	3428.0	3473.0	3473.0	3473.0	3428.0	3428.0	3467.0	3467.0	3467.0	3447.0	3447.0	3378.0	3378.0	3378.0	3360.0	3360.0	3399.0	3399.0	3399.0	3335.0	3335.0	3333.0	3333.0	3333.0	3310.0	3310.0	3298.0	3298.0	3298.0	3268.0	3268.0	3339.0	3339.0	3339.0	3301.0	3301.0	3324.0	3324.0	3324.0	3230.0	3230.0	3218.0	3218.0	3218.0	3228.0	3228.0	3251.0	3251.0	3251.0	3154.0	3154.0	3155.0	3155.0	3155.0	3177.0	3177.0	3191.0	3191.0	3191.0	3123.0	3123.0	3149.0	3149.0	3149.0	3123.0	3123.0	3098.0	3098.0	3098.0	3035.0	3035.0	3011.0	3011.0	3039.0	3039.0	3039.0	3021.0	3021.0	2965.0	2965.0	2965.0	2957.0	2957.0	2937.0	2937.0	2937.0	2955.0	2955.0	2912.0	2912.0	2912.0	2918.0	2918.0	2971.0	2971.0	2971.0	2906.0	2906.0	2943.0	2943.0	2943.0	2909.0	2909.0	2881.0	2881.0	2881.0	2900.0	2900.0	2817.0	2817.0	2817.0	2850.0	2850.0	2848.0	2848.0	2848.0	2880.0	2880.0	2863.0	2863.0	2863.0	2796.0	2796.0	2789.0	2789.0	2789.0	2801.0	2801.0	2768.0	2768.0	2768.0	2803.0	2803.0	2799.0	2799.0	2799.0	2748.0	2748.0	2774.0	2774.0	2774.0	2747.0	2747.0	2736.0	2736.0	2736.0	2780.0	2780.0	2750.0	2750.0	2750.0	2770.0	2770.0	2738.0	2738.0	2738.0	2761.0	2761.0	2738.0	2738.0	2738.0	2699.0	2699.0	2727.0	2727.0	2727.0	2759.0	2759.0	2677.0	2677.0	2677.0	2758.0	2758.0	2668.0	2668.0	2668.0	2672.0	2672.0	2723.0	2723.0	2723.0	2661.0	2661.0	2736.0	2736.0	2736.0	2680.0	2680.0	2660.0	2660.0	2660.0	2716.0	2716.0	2637.0	2637.0	2637.0	2659.0	2659.0	2617.0	2617.0	2617.0	2625.0	2625.0	2654.0	2654.0	2654.0	2678.0	2678.0	2620.0	2620.0	2620.0	2623.0	2623.0	2591.0	2591.0	2591.0	2596.0	2596.0	2619.0	2619.0	2619.0	2653.0	2653.0	2586.0	2586.0	2586.0	2614.0	2614.0	2630.0	2630.0	2630.0	2566.0	2566.0	2539.0	2539.0	2539.0	2583.0	2583.0	2597.0	2597.0	2597.0	2505.0	2505.0	2582.0	2582.0	2582.0	2564.0	2564.0	2574.0	2574.0	2574.0	2562.0	2562.0	2518.0	2518.0	2518.0	2459.0	2459.0	2488.0	2488.0	2488.0	2441.0	2441.0	2466.0	2466.0	2466.0	2453.0	2453.0	2462.0	2462.0	2462.0	2460.0	2460.0	2402.0	2402.0	2460.0	2460.0	2460.0	2406.0	2406.0	2424.0	2424.0	2424.0	2416.0	2416.0	2426.0	2426.0	2426.0	2399.0	2399.0	2405.0	2405.0	2405.0	2336.0	2336.0	2399.0	2399.0	2399.0	2399.0	2399.0	2352.0	2352.0	2352.0	2318.0	2318.0	2322.0	2322.0	2322.0	2349.0	2349.0	2336.0	2336.0	2336.0	2283.0	2283.0	2248.0	2248.0	2248.0	2333.0	2333.0	2322.0	2322.0	2322.0	2314.0	2314.0	2305.0	2305.0	2305.0	2211.0	2211.0	2206.0	2206.0	2206.0	2239.0	2239.0	2189.0	2189.0	2189.0	2213.0	2213.0	2188.0	2188.0	2188.0	2156.0	2156.0	2170.0	2170.0	2170.0	2141.0	2141.0	2155.0	2155.0	2155.0	2137.0	2137.0	2197.0	2197.0	2197.0	2191.0	2191.0	2162.0	2162.0	2162.0	2167.0	2167.0	2107.0	2107.0	2107.0	2150.0	2150.0	2139.0	2139.0	2139.0	2080.0	2080.0	2119.0	2119.0	2119.0	2118.0	2118.0	2027.0	2027.0	2027.0	2040.0	2040.0	2091.0	2091.0	2091.0	2001.0	2001.0	2063.0	2063.0	2063.0	2079.0	2079.0	2059.0	2059.0	2059.0	1976.0	1976.0	1968.0	1968.0	1968.0	2012.0	2012.0	1950.0	1950.0	1950.0	2020.0	2020.0	1940.0	1940.0	1940.0	1999.0	1999.0	1982.0	1982.0	1982.0	1991.0	1991.0	1935.0	1935.0	1935.0	1932.0	1932.0	1876.0	1876.0	1876.0	1951.0	1951.0	1881.0	1881.0	1881.0	1878.0	1878.0	1867.0	1867.0	1867.0	1833.0	1833.0	1916.0	1916.0	1916.0	1864.0	1864.0	1854.0	1854.0	1854.0	1819.0	1819.0	1803.0	1803.0	1803.0	1817.0	1817.0	1819.0	1819.0	1819.0	1867.0	1867.0	1765.0	1765.0	1765.0	1759.0	1759.0	1812.0	1812.0	1812.0	1733.0	1733.0	1748.0	1748.0	1748.0	1759.0	1759.0	1779.0	1779.0	1706.0	1706.0	1706.0	1750.0	1750.0	1701.0	1701.0	1701.0	1702.0	1702.0	1703.0	1703.0	1703.0	1705.0	1705.0	1760.0	1760.0	1760.0	1722.0	1722.0	1721.0	1721.0	1721.0	1696.0	1696.0	1665.0	1665.0	1665.0	1659.0	1659.0	1681.0	1681.0	1681.0	1729.0	1729.0	1718.0	1718.0	1718.0	1635.0	1635.0	1663.0	1663.0	1663.0	1676.0	1676.0	1676.0	1676.0	1676.0	1711.0	1711.0	1686.0	1686.0	1686.0	1720.0	1720.0	1739.0	1739.0	1739.0	1696.0	1696.0	1742.0	1742.0	1742.0	1766.0	1766.0	1743.0	1743.0	1743.0	1712.0	1712.0	1794.0	1794.0	1794.0	1819.0	1819.0	1833.0	1833.0	1833.0	1782.0	1782.0	1879.0	1879.0	1879.0	1836.0	1836.0	1918.0	1918.0	1918.0	1855.0	1855.0	1956.0	1956.0	1956.0	1915.0	1915.0	1970.0	1970.0	1970.0	1978.0	1978.0	2084.0	2084.0	2084.0	2025.0	2025.0	2062.0	2062.0	2062.0	2086.0	2086.0	2161.0	2161.0	2161.0	2139.0	2139.0	2255.0	2255.0	2255.0	2219.0	2219.0	2279.0	2279.0	2279.0	2323.0	2323.0	2325.0	2325.0	2325.0	2310.0	2310.0	2371.0	2371.0	2371.0	2414.0	2414.0	2398.0	2398.0	2398.0	2379.0	2379.0	2429.0	2429.0	2429.0	2462.0	2462.0	2491.0	2491.0	2491.0	2453.0	2453.0	2513.0	2513.0	2513.0	2523.0	2523.0	2570.0	2570.0	2570.0	2603.0	2603.0	2540.0	2540.0	2540.0	2619.0	2619.0	2551.0	2551.0	2551.0	2631.0	2631.0	2662.0	2662.0	2662.0	2583.0	2583.0	2627.0	2627.0	2627.0	2676.0	2676.0	2661.0	2661.0	2661.0	2664.0	2664.0	2664.0	2664.0	2664.0	2685.0	2685.0	2704.0	2704.0	2704.0	2677.0	2677.0	2650.0	2650.0	2650.0	2675.0	2675.0	2660.0	2660.0	2660.0	2660.0	2660.0	2660.0	2660.0	2746.0	2746.0	2746.0	2701.0	2701.0	2751.0	2751.0	2751.0	2679.0	2679.0	2760.0	2760.0	2760.0	2740.0	2740.0	2754.0	2754.0	2754.0	2759.0	2759.0	2707.0	2707.0	2707.0	2749.0	2749.0	2704.0	2704.0	2704.0	2673.0	2673.0	2703.0	2703.0	2703.0	2724.0	2724.0	2754.0	2754.0	2754.0	2680.0	2680.0	2678.0	2678.0	2678.0	2705.0	2705.0	2674.0	2674.0	2674.0	2743.0	2743.0	2747.0	2747.0	2747.0	2657.0	2657.0	2747.0	2747.0	2747.0	2735.0	2735.0	2714.0	2714.0	2714.0	2636.0	2636.0	2730.0	2730.0	2730.0	2663.0	2663.0	2722.0	2722.0	2722.0	2704.0	2704.0	2608.0	2608.0	2608.0	2625.0	2625.0	2672.0	2672.0	2672.0	2587.0	2587.0	2602.0	2602.0	2602.0	2583.0	2583.0	2613.0	2613.0	2613.0	2574.0	2574.0	2595.0	2595.0	2595.0	2521.0	2521.0	2538.0	2538.0	2538.0	2569.0	2569.0	2492.0	2492.0	2492.0	2527.0	2527.0	2468.0	2468.0	2468.0	2510.0	2510.0	2432.0	2432.0	2432.0	2418.0	2418.0	2435.0	2435.0	2435.0	2454.0	2454.0	2465.0	2465.0	2465.0	2374.0	2374.0	2393.0	2393.0	2393.0	2333.0	2333.0	2397.0	2397.0	2397.0	2331.0	2331.0	2362.0	2362.0	2362.0	2288.0	2288.0	2326.0	2326.0	2326.0	2299.0	2299.0	2247.0	2247.0	2247.0	2243.0	2243.0	2284.0	2284.0	2284.0	2310.0	2310.0	2279.0	2279.0	2279.0	2269.0	2269.0	2227.0	2227.0	2227.0	2188.0	2188.0	2211.0	2211.0	2211.0	2185.0	2185.0	2229.0	2229.0	2229.0	2260.0	2260.0	2169.0	2169.0	2169.0	2223.0	2223.0	2237.0	2237.0	2237.0	2180.0	2180.0	2222.0	2222.0	2222.0	2171.0	2171.0	2149.0	2149.0	2149.0	2163.0	2163.0	2229.0	2229.0	2172.0	2172.0	2172.0	2163.0	2163.0	2129.0	2129.0	2129.0	2203.0	2203.0	2189.0	2189.0	2189.0	2182.0	2182.0	2167.0	2167.0	2167.0	2202.0	2202.0	2212.0	2212.0	2212.0	2182.0	2182.0	2168.0	2168.0	2168.0	2202.0	2202.0	2184.0	2184.0	2184.0	2178.0	2178.0	2120.0	2120.0	2120.0	2157.0	2157.0	2166.0	2166.0	2166.0	2147.0	2147.0	2140.0	2140.0	2140.0	2182.0	2182.0	2140.0	2140.0	2140.0	2085.0	2085.0	2145.0	2145.0	2145.0	2080.0	2080.0	2136.0	2136.0	2136.0	2125.0	2125.0	2078.0	2078.0	2078.0	2060.0	2060.0	2113.0	2113.0	2113.0	2115.0	2115.0	2046.0	2046.0	2046.0	2032.0	2032.0	2058.0	2058.0	2058.0	2040.0	2040.0	2110.0	2110.0	2110.0	2018.0	2018.0	2092.0	2092.0	2092.0	2065.0	2065.0	2081.0	2081.0	2081.0	2001.0	2001.0	2051.0	2051.0	2051.0	2030.0	2030.0	1983.0	1983.0	1983.0	2051.0	2051.0	1992.0	1992.0	1992.0	1988.0	1988.0	2032.0	2032.0	2032.0	1981.0	1981.0	1967.0	1967.0	1967.0	1986.0	1986.0	2016.0	2016.0	2016.0	2005.0	2005.0	1983.0	1983.0	1983.0	1933.0	1933.0	1920.0	1920.0	1920.0	1953.0	1953.0	1918.0	1918.0	1918.0	1930.0	1930.0	1985.0	1985.0	1985.0	1957.0	1957.0	1880.0	1880.0	1880.0	1936.0	1936.0	1875.0	1875.0	1875.0	1916.0	1916.0	1932.0	1932.0	1932.0	1858.0	1858.0	1898.0	1898.0	1898.0	1888.0	1888.0	1870.0	1870.0	1870.0	1914.0	1914.0	1852.0	1852.0	1852.0	1887.0	1887.0	1843.0	1843.0	1843.0	1900.0	1900.0	1896.0	1896.0	1896.0	1892.0	1892.0	1798.0	1798.0	1798.0	1865.0	1865.0	1864.0	1864.0	1864.0	1860.0	1860.0	1857.0	1857.0	1857.0	1794.0	1794.0	1764.0	1764.0	1761.0	1761.0	1761.0	1812.0	1812.0	1741.0	1741.0	1741.0	1757.0	1757.0	1815.0	1815.0	1815.0	1776.0	1776.0	1746.0	1746.0	1746.0	1721.0	1721.0	1709.0	1709.0	1709.0	1708.0	1708.0	1751.0	1751.0	1751.0	1750.0	1750.0	1777.0	1777.0	1777.0	1766.0	1766.0	1752.0	1752.0	1752.0	1735.0	1735.0	1705.0	1705.0	1705.0	1692.0	1692.0	1665.0	1665.0	1665.0	1636.0	1636.0	1672.0	1672.0	1672.0	1673.0	1673.0	1632.0	1632.0	1632.0	1654.0	1654.0	1686.0	1686.0	1686.0	1689.0	1689.0	1639.0	1639.0	1639.0	1616.0	1616.0	1650.0	1650.0	1650.0	1630.0	1630.0	1580.0	1580.0	1580.0	1621.0	1621.0	1604.0	1604.0	1604.0	1636.0	1636.0	1631.0	1631.0	1631.0	1645.0	1645.0	1631.0	1631.0	1631.0	1626.0	1626.0	1556.0	1556.0	1556.0	1624.0	1624.0	1623.0	1623.0	1623.0	1590.0	1590.0	1564.0	1564.0	1564.0	1600.0	1600.0	1514.0	1514.0	1514.0	1546.0	1546.0	1543.0	1543.0	1543.0	1535.0	1535.0	1544.0	1544.0	1544.0	1499.0	1499.0	1580.0	1580.0	1580.0	1518.0	1518.0	1517.0	1517.0	1517.0	1552.0	1552.0	1577.0	1577.0	1577.0	1491.0	1491.0	1499.0	1499.0	1499.0	1514.0	1514.0	1494.0	1494.0	1494.0	1548.0	1548.0	1564.0	1564.0	1564.0	1571.0	1571.0	1491.0	1491.0	1491.0	1558.0	1558.0	1514.0	1514.0	1514.0	1574.0	1574.0	1569.0	1569.0	1569.0	1583.0	1583.0	1609.0	1609.0	1609.0	1578.0	1578.0	1562.0	1562.0	1562.0	1634.0	1634.0	1656.0	1656.0	1656.0	1616.0	1616.0	1691.0	1691.0	1691.0	1699.0	1699.0	1695.0	1695.0	1695.0	1713.0	1713.0	1744.0	1744.0	1744.0	1803.0	1803.0	1767.0	1767.0	1758.0	1758.0	1758.0	1806.0	1806.0	1915.0	1915.0	1915.0	1855.0	1855.0	1904.0	1904.0	1904.0	1994.0	1994.0	1982.0	1982.0	1982.0	1976.0	1976.0	2023.0	2023.0	2023.0	2105.0	2105.0	2123.0	2123.0	2123.0	2112.0	2112.0	2190.0	2190.0	2190.0	2184.0	2184.0	2201.0	2201.0	2201.0	2269.0	2269.0	2226.0	2226.0	2226.0	2231.0	2231.0	2250.0	2250.0	2250.0	2314.0	2314.0	2288.0	2288.0	2288.0	2306.0	2306.0	2406.0	2406.0	2406.0	2415.0	2415.0	2375.0	2375.0	2375.0	2436.0	2436.0	2472.0	2472.0	2472.0	2475.0	2475.0	2489.0	2489.0	2489.0	2430.0	2430.0	2501.0	2501.0	2501.0	2516.0	2516.0	2472.0	2472.0	2472.0	2469.0	2469.0	2485.0	2485.0	2485.0	2565.0	2565.0	2564.0	2564.0	2564.0	2599.0	2599.0	2538.0	2538.0	2538.0	2525.0	2525.0	2620.0	2620.0	2620.0	2541.0	2541.0	2612.0	2612.0	2612.0	2636.0	2636.0	2569.0	2569.0	2569.0	2571.0	2571.0	2615.0	2615.0	2615.0	2568.0	2568.0	2661.0	2661.0	2661.0	2627.0	2627.0	2661.0	2661.0	2661.0	2669.0	2669.0	2591.0	2591.0	2591.0	2659.0	2659.0	2641.0	2641.0	2641.0	2619.0	2619.0	2656.0	2656.0	2656.0	2615.0	2615.0	2638.0	2638.0	2638.0	2609.0	2609.0	2654.0	2654.0	2654.0	2668.0	2668.0	2599.0	2599.0	2599.0	2689.0	2689.0	2599.0	2599.0	2599.0	2659.0	2659.0	2633.0	2633.0	2633.0	2679.0	2679.0	2627.0	2627.0	2627.0	2623.0	2623.0	2600.0	2600.0	2600.0	2623.0	2623.0	2675.0	2675.0	2675.0	2642.0	2642.0	2601.0	2601.0	2601.0	2572.0	2572.0	2581.0	2581.0	2581.0	2557.0	2557.0	2635.0	2635.0	2635.0	2584.0	2584.0	2600.0	2600.0	2610.0	2610.0	2610.0	2536.0	2536.0	2591.0	2591.0	2591.0	2591.0	2591.0	2537.0	2537.0	2537.0	2527.0	2527.0	2506.0	2506.0	2506.0	2468.0	2468.0	2459.0	2459.0	2459.0	2480.0	2480.0	2527.0	2527.0	2527.0	2454.0	2454.0	2424.0	2424.0	2424.0	2398.0	2398.0	2455.0	2455.0	2455.0	2465.0	2465.0	2370.0	2370.0	2370.0	2402.0	2402.0	2402.0	2402.0	2402.0	2360.0	2360.0	2328.0	2328.0	2328.0	2374.0	2374.0	2368.0	2368.0	2368.0	2355.0	2355.0	2294.0	2294.0	2294.0	2267.0	2267.0	2273.0	2273.0	2273.0	2277.0	2277.0	2307.0	2307.0	2307.0	2210.0	2210.0	2216.0	2216.0	2216.0	2235.0	2235.0	2203.0	2203.0	2203.0	2168.0	2168.0	2247.0	2247.0	2247.0	2212.0	2212.0	2229.0	2229.0	2229.0	2181.0	2181.0	2202.0	2202.0	2202.0	2199.0	2199.0	2210.0	2210.0	2210.0	2117.0	2117.0	2150.0	2150.0	2150.0	2175.0	2175.0	2113.0	2113.0	2113.0	2207.0	2207.0	2165.0	2165.0	2165.0	2105.0	2105.0	2133.0	2133.0	2133.0	2164.0	2164.0	2089.0	2089.0	2089.0	2179.0	2179.0	2162.0	2162.0	2162.0	2112.0	2112.0	2093.0	2093.0	2093.0	2101.0	2101.0	2162.0	2162.0	2162.0	2171.0	2171.0	2139.0	2139.0	2139.0	2084.0	2084.0	2113.0	2113.0	2113.0	2140.0	2140.0	2081.0	2081.0	2081.0	2066.0	2066.0	2067.0	2067.0	2067.0	2059.0	2059.0	2066.0	2066.0	2066.0	2054.0	2054.0	2054.0	2054.0	2054.0	2042.0	2042.0	2045.0	2045.0	2045.0	2107.0	2107.0	2039.0	2039.0	2039.0	2070.0	2070.0	2084.0	2084.0	2084.0	2088.0	2088.0	2045.0	2045.0	2045.0	2014.0	2014.0	2013.0	2013.0	2013.0	2024.0	2024.0	2002.0	2002.0	2002.0	2070.0	2070.0	2054.0	2054.0	1985.0	1985.0	1985.0	2043.0	2043.0	2067.0	2067.0	2067.0	2016.0	2016.0	1973.0	1973.0	1973.0	2024.0	2024.0	1959.0	1959.0	1959.0	1950.0	1950.0	1990.0	1990.0	1990.0	2025.0	2025.0	1939.0	1939.0	1939.0	1924.0	1924.0	1921.0	1921.0	1921.0	2010.0	2010.0	1912.0	1912.0	1912.0	1984.0	1984.0	1964.0	1964.0	