1494.0	1494.0	1514.0	1514.0	1514.0	1525.0	1525.0	1494.0	1494.0	1494.0	1508.0	1508.0	1432.0	1432.0	1432.0	1446.0	1446.0	1522.0	1522.0	1522.0	1471.0	1471.0	1537.0	1537.0	1537.0	1547.0	1547.0	1550.0	1550.0	1550.0	1555.0	1555.0	1579.0	1579.0	1579.0	1514.0	1514.0	1559.0	1559.0	1559.0	1618.0	1618.0	1620.0	1620.0	1614.0	1614.0	1614.0	1686.0	1686.0	1641.0	1641.0	1641.0	1683.0	1683.0	1724.0	1724.0	1724.0	1739.0	1739.0	1731.0	1731.0	1731.0	1771.0	1771.0	1781.0	1781.0	1781.0	1804.0	1804.0	1816.0	1816.0	1816.0	1897.0	1897.0	1897.0	1897.0	1897.0	1975.0	1975.0	1992.0	1992.0	1992.0	1941.0	1941.0	1960.0	1960.0	1960.0	1985.0	1985.0	1989.0	1989.0	1989.0	2023.0	2023.0	2101.0	2101.0	2101.0	2132.0	2132.0	2084.0	2084.0	2084.0	2114.0	2114.0	2171.0	2171.0	2171.0	2201.0	2201.0	2206.0	2206.0	2206.0	2176.0	2176.0	2218.0	2218.0	2218.0	2200.0	2200.0	2198.0	2198.0	2198.0	2223.0	2223.0	2208.0	2208.0	2208.0	2223.0	2223.0	2241.0	2241.0	2241.0	2248.0	2248.0	2294.0	2294.0	2294.0	2302.0	2302.0	2234.0	2234.0	2234.0	2279.0	2279.0	2256.0	2256.0	2256.0	2255.0	2255.0	2311.0	2311.0	2311.0	2256.0	2256.0	2343.0	2343.0	2343.0	2266.0	2266.0	2337.0	2337.0	2337.0	2340.0	2340.0	2274.0	2274.0	2274.0	2366.0	2366.0	2364.0	2364.0	2364.0	2373.0	2373.0	2342.0	2342.0	2342.0	2378.0	2378.0	2302.0	2302.0	2302.0	2339.0	2339.0	2300.0	2300.0	2300.0	2375.0	2375.0	2355.0	2355.0	2355.0	2299.0	2299.0	2372.0	2372.0	2372.0	2380.0	2380.0	2303.0	2303.0	2303.0	2303.0	2303.0	2366.0	2366.0	2366.0	2338.0	2338.0	2367.0	2367.0	2367.0	2302.0	2302.0	2308.0	2308.0	2308.0	2301.0	2301.0	2272.0	2272.0	2272.0	2339.0	2339.0	2274.0	2274.0	2274.0	2265.0	2265.0	2272.0	2272.0	2272.0	2258.0	2258.0	2289.0	2289.0	2289.0	2249.0	2249.0	2282.0	2282.0	2282.0	2280.0	2280.0	2224.0	2224.0	2224.0	2240.0	2240.0	2283.0	2283.0	2244.0	2244.0	2244.0	2281.0	2281.0	2188.0	2188.0	2188.0	2232.0	2232.0	2187.0	2187.0	2187.0	2199.0	2199.0	2233.0	2233.0	2233.0	2200.0	2200.0	2184.0	2184.0	2184.0	2191.0	2191.0	2164.0	2164.0	2164.0	2154.0	2154.0	2122.0	2122.0	2122.0	2142.0	2142.0	2141.0	2141.0	2141.0	2107.0	2107.0	2066.0	2066.0	2066.0	2117.0	2117.0	2125.0	2125.0	2125.0	2107.0	2107.0	2125.0	2125.0	2125.0	2119.0	2119.0	2043.0	2043.0	2043.0	2001.0	2001.0	2067.0	2067.0	2067.0	1986.0	1986.0	2040.0	2040.0	2040.0	1986.0	1986.0	2052.0	2052.0	2052.0	2068.0	2068.0	2048.0	2048.0	2048.0	1962.0	1962.0	1974.0	1974.0	1974.0	1955.0	1955.0	1954.0	1954.0	1954.0	2007.0	2007.0	1983.0	1983.0	1983.0	1987.0	1987.0	1969.0	1969.0	1969.0	1962.0	1962.0	2019.0	2019.0	2019.0	1940.0	1940.0	1971.0	1971.0	1971.0	1971.0	1971.0	1929.0	1929.0	1929.0	1938.0	1938.0	2022.0	2022.0	2022.0	2032.0	2032.0	1977.0	1977.0	1977.0	1994.0	1994.0	1961.0	1961.0	1961.0	1988.0	1988.0	1941.0	1941.0	1941.0	2001.0	2001.0	2032.0	2032.0	2032.0	2005.0	2005.0	2024.0	2024.0	2024.0	1991.0	1991.0	2011.0	2011.0	2011.0	1964.0	1964.0	1959.0	1959.0	1959.0	1945.0	1945.0	1938.0	1938.0	1938.0	2021.0	2021.0	1959.0	1959.0	1959.0	1975.0	1975.0	1938.0	1938.0	1938.0	1968.0	1968.0	1992.0	1992.0	1992.0	2011.0	2011.0	1994.0	1994.0	1994.0	1987.0	1987.0	1947.0	1947.0	1947.0	1945.0	1945.0	1935.0	1935.0	1935.0	1923.0	1923.0	1992.0	1992.0	1992.0	1975.0	1975.0	1978.0	1978.0	1978.0	1991.0	1991.0	1977.0	1977.0	1969.0	1969.0	1969.0	1902.0	1902.0	1961.0	1961.0	1961.0	1926.0	1926.0	1940.0	1940.0	1940.0	1875.0	1875.0	1961.0	1961.0	1961.0	1892.0	1892.0	1946.0	1946.0	1946.0	1952.0	1952.0	1948.0	1948.0	1948.0	1883.0	1883.0	1846.0	1846.0	1846.0	1913.0	1913.0	1931.0	1931.0	1931.0	1879.0	1879.0	1922.0	1922.0	1922.0	1840.0	1840.0	1895.0	1895.0	1895.0	1863.0	1863.0	1838.0	1838.0	1838.0	1809.0	1809.0	1851.0	1851.0	1851.0	1805.0	1805.0	1870.0	1870.0	1870.0	1816.0	1816.0	1831.0	1831.0	1831.0	1845.0	1845.0	1839.0	1839.0	1839.0	1764.0	1764.0	1825.0	1825.0	1825.0	1793.0	1793.0	1759.0	1759.0	1759.0	1781.0	1781.0	1821.0	1821.0	1821.0	1811.0	1811.0	1759.0	1759.0	1759.0	1728.0	1728.0	1707.0	1707.0	1707.0	1707.0	1707.0	1721.0	1721.0	1721.0	1760.0	1760.0	1697.0	1697.0	1697.0	1770.0	1770.0	1764.0	1764.0	1764.0	1745.0	1745.0	1658.0	1658.0	1658.0	1680.0	1680.0	1729.0	1729.0	1729.0	1706.0	1706.0	1669.0	1669.0	1669.0	1671.0	1671.0	1698.0	1698.0	1698.0	1648.0	1648.0	1627.0	1627.0	1627.0	1610.0	1610.0	1693.0	1693.0	1693.0	1627.0	1627.0	1673.0	1673.0	1673.0	1674.0	1674.0	1668.0	1668.0	1668.0	1607.0	1607.0	1639.0	1639.0	1639.0	1568.0	1568.0	1567.0	1567.0	1567.0	1590.0	1590.0	1597.0	1597.0	1597.0	1613.0	1613.0	1528.0	1528.0	1528.0	1537.0	1537.0	1600.0	1600.0	1600.0	1526.0	1526.0	1558.0	1558.0	1558.0	1564.0	1564.0	1499.0	1499.0	1499.0	1560.0	1560.0	1561.0	1561.0	1561.0	1505.0	1505.0	1523.0	1523.0	1523.0	1467.0	1467.0	1548.0	1548.0	1463.0	1463.0	1463.0	1550.0	1550.0	1456.0	1456.0	1456.0	1526.0	1526.0	1498.0	1498.0	1498.0	1525.0	1525.0	1518.0	1518.0	1518.0	1469.0	1469.0	1443.0	1443.0	1443.0	1432.0	1432.0	1426.0	1426.0	1426.0	1462.0	1462.0	1475.0	1475.0	1475.0	1465.0	1465.0	1487.0	1487.0	1487.0	1489.0	1489.0	1489.0	1489.0	1489.0	1427.0	1427.0	1427.0	1427.0	1427.0	1506.0	1506.0	1440.0	1440.0	1440.0	1514.0	1514.0	1551.0	1551.0	1551.0	1510.0	1510.0	1577.0	1577.0	1577.0	1575.0	1575.0	1541.0	1541.0	1541.0	1535.0	1535.0	1579.0	1579.0	1579.0	1591.0	1591.0	1606.0	1606.0	1606.0	1639.0	1639.0	1686.0	1686.0	1686.0	1700.0	1700.0	1796.0	1796.0	1796.0	1758.0	1758.0	1847.0	1847.0	1847.0	1798.0	1798.0	1899.0	1899.0	1899.0	1852.0	1852.0	1891.0	1891.0	1891.0	1914.0	1914.0	1953.0	1953.0	1953.0	1956.0	1956.0	2037.0	2037.0	2037.0	2030.0	2030.0	2069.0	2069.0	2069.0	2094.0	2094.0	2110.0	2110.0	2110.0	2084.0	2084.0	2194.0	2194.0	2194.0	2168.0	2168.0	2219.0	2219.0	2219.0	2176.0	2176.0	2262.0	2262.0	2262.0	2210.0	2210.0	2289.0	2289.0	2289.0	2216.0	2216.0	2232.0	2232.0	2232.0	2236.0	2236.0	2273.0	2273.0	2273.0	2278.0	2278.0	2354.0	2354.0	2354.0	2338.0	2338.0	2378.0	2378.0	2378.0	2380.0	2380.0	2385.0	2385.0	2385.0	2400.0	2400.0	2342.0	2342.0	2342.0	2377.0	2377.0	2340.0	2340.0	2340.0	2383.0	2383.0	2363.0	2363.0	2363.0	2362.0	2362.0	2362.0	2362.0	2362.0	2385.0	2385.0	2379.0	2379.0	2379.0	2388.0	2388.0	2424.0	2424.0	2424.0	2383.0	2383.0	2394.0	2394.0	2394.0	2463.0	2463.0	2391.0	2391.0	2485.0	2485.0	2485.0	2485.0	2485.0	2415.0	2415.0	2415.0	2441.0	2441.0	2436.0	2436.0	2436.0	2465.0	2465.0	2492.0	2492.0	2492.0	2408.0	2408.0	2429.0	2429.0	2429.0	2424.0	2424.0	2500.0	2500.0	2500.0	2470.0	2470.0	2453.0	2453.0	2453.0	2471.0	2471.0	2439.0	2439.0	2439.0	2477.0	2477.0	2408.0	2408.0	2408.0	2438.0	2438.0	2483.0	2483.0	2483.0	2414.0	2414.0	2475.0	2475.0	2475.0	2392.0	2392.0	2471.0	2471.0	2471.0	2367.0	2367.0	2442.0	2442.0	2442.0	2441.0	2441.0	2387.0	2387.0	2387.0	2354.0	2354.0	2349.0	2349.0	2349.0	2367.0	2367.0	2330.0	2330.0	2330.0	2327.0	2327.0	2311.0	2311.0	2311.0	2313.0	2313.0	2381.0	2381.0	2381.0	2341.0	2341.0	2353.0	2353.0	2353.0	2335.0	2335.0	2281.0	2281.0	2281.0	2289.0	2289.0	2264.0	2264.0	2264.0	2292.0	2292.0	2229.0	2229.0	2229.0	2284.0	2284.0	2186.0	2186.0	2186.0	2214.0	2214.0	2169.0	2169.0	2169.0	2191.0	2191.0	2166.0	2166.0	2166.0	2145.0	2145.0	2188.0	2188.0	2188.0	2157.0	2157.0	2110.0	2110.0	2110.0	2117.0	2117.0	2118.0	2118.0	2118.0	2162.0	2162.0	2073.0	2073.0	2073.0	2063.0	2063.0	2067.0	2067.0	2067.0	2059.0	2059.0	2136.0	2136.0	2136.0	2088.0	2088.0	2102.0	2102.0	2102.0	2056.0	2056.0	2107.0	2107.0	2107.0	2081.0	2081.0	2091.0	2091.0	2091.0	2018.0	2018.0	2047.0	2047.0	2047.0	2073.0	2073.0	1996.0	1996.0	1996.0	1990.0	1990.0	2019.0	2019.0	2019.0	2054.0	2054.0	1996.0	1996.0	1996.0	2067.0	2067.0	2074.0	2074.0	2074.0	1991.0	1991.0	2007.0	2007.0	2007.0	2023.0	2023.0	2023.0	2023.0	2061.0	2061.0	2061.0	1984.0	1984.0	2003.0	2003.0	2003.0	2016.0	2016.0	1992.0	1992.0	1992.0	2070.0	2070.0	2076.0	2076.0	2076.0	2032.0	2032.0	2010.0	2010.0	2010.0	2045.0	2045.0	2022.0	2022.0	2022.0	1983.0	1983.0	2042.0	2042.0	2042.0	2069.0	2069.0	2047.0	2047.0	2047.0	1976.0	1976.0	2030.0	2030.0	2030.0	1993.0	1993.0	1981.0	1981.0	1981.0	1983.0	1983.0	2055.0	2055.0	2055.0	1995.0	1995.0	1971.0	1971.0	1971.0	2011.0	2011.0	1965.0	1965.0	1965.0	2027.0	2027.0	1968.0	1968.0	1968.0	1979.0	1979.0	2046.0	2046.0	2046.0	1974.0	1974.0	2031.0	2031.0	2031.0	2012.0	2012.0	1985.0	1985.0	1985.0	1961.0	1961.0	2028.0	2028.0	2028.0	2023.0	2023.0	2016.0	2016.0	2016.0	1984.0	1984.0	1976.0	1976.0	1976.0	1965.0	1965.0	1925.0	1925.0	1925.0	2008.0	2008.0	1995.0	1995.0	1995.0	1946.0	1946.0	1977.0	1977.0	1977.0	1912.0	1912.0	1990.0	1990.0	1990.0	1957.0	1957.0	1900.0	1900.0	1900.0	1907.0	1907.0	1967.0	1967.0	1967.0	1897.0	1897.0	1910.0	1910.0	1910.0	1882.0	1882.0	1889.0	1889.0	1889.0	1882.0	1882.0	1874.0	1874.0	1874.0	1937.0	1937.0	1933.0	1933.0	1933.0	1899.0	1899.0	1907.0	1907.0	1907.0	1891.0	1891.0	1827.0	1827.0	1827.0	1909.0	1909.0	1901.0	1901.0	1901.0	1825.0	1825.0	1883.0	1883.0	1883.0	1862.0	1862.0	1793.0	1793.0	1793.0	1784.0	1784.0	1868.0	1868.0	1868.0	1847.0	1847.0	1863.0	1863.0	1863.0	1850.0	1850.0	1847.0	1847.0	1847.0	1829.0	1829.0	1763.0	1763.0	1763.0	1817.0	1817.0	1786.0	1786.0	1786.0	1751.0	1751.0	1722.0	1722.0	1784.0	1784.0	1784.0	1787.0	1787.0	1725.0	1725.0	1725.0	1704.0	1704.0	1728.0	1728.0	1728.0	1785.0	1785.0	1719.0	1719.0	1719.0	1714.0	1714.0	1679.0	1679.0	1679.0	1759.0	1759.0	1717.0	1717.0	1717.0	1659.0	1659.0	1753.0	1753.0	1753.0	1728.0	1728.0	1676.0	1676.0	1676.0	1713.0	1713.0	1726.0	1726.0	1726.0	1698.0	1698.0	1698.0	1698.0	1698.0	1736.0	1736.0	1744.0	1744.0	1744.0	1667.0	1667.0	1702.0	1702.0	1702.0	1671.0	1671.0	1732.0	1732.0	1732.0	1753.0	1753.0	1769.0	1769.0	1769.0	1738.0	1738.0	1810.0	1810.0	1810.0	1763.0	1763.0	1832.0	1832.0	1832.0	1776.0	1776.0	1817.0	1817.0	1817.0	1889.0	1889.0	1866.0	1866.0	1866.0	1883.0	1883.0	1913.0	1913.0	1913.0	1892.0	1892.0	1996.0	1996.0	1996.0	2020.0	2020.0	2010.0	2010.0	2010.0	2076.0	2076.0	2022.0	2022.0	2022.0	2043.0	2043.0	2069.0	2069.0	2069.0	2144.0	2144.0	2081.0	2081.0	2081.0	2172.0	2172.0	2204.0	2204.0	2204.0	2135.0	2135.0	2237.0	2237.0	2237.0	2189.0	2189.0	2174.0	2174.0	2174.0	2188.0	2188.0	2219.0	2219.0	2219.0	2233.0	2233.0	2303.0	2303.0	2303.0	2241.0	2241.0	2335.0	2335.0	2335.0	2270.0	2270.0	2309.0	2309.0	2309.0	2284.0	2284.0	2284.0	2284.0	2284.0	2302.0	2302.0	2381.0	2381.0	2381.0	2303.0	2303.0	2331.0	2331.0	2331.0	2315.0	2315.0	2325.0	2325.0	2325.0	2339.0	2339.0	2364.0	2364.0	2364.0	2428.0	2428.0	2341.0	2341.0	2341.0	2424.0	2424.0	2423.0	2423.0	2423.0	2345.0	2345.0	2440.0	2440.0	2440.0	2416.0	2416.0	2353.0	2353.0	2353.0	2436.0	2436.0	2350.0	2350.0	2350.0	2445.0	2445.0	2358.0	2358.0	2432.0	2432.0	2432.0	2417.0	2417.0	2358.0	2358.0	2358.0	2378.0	2378.0	2427.0	2427.0	2427.0	2358.0	2358.0	2373.0	2373.0	2373.0	2407.0	2407.0	2366.0	2366.0	2366.0	2345.0	2345.0	2408.0	2408.0	2408.0	2372.0	2372.0	2414.0	2414.0	2414.0	2335.0	2335.0	2356.0	2356.0	2356.0	2336.0	2336.0	2357.0	2357.0	2357.0	2390.0	2390.0	2405.0	2405.0	2405.0	2319.0	2319.0	2304.0	2304.0	2304.0	2378.0	2378.0	2291.0	2291.0	2291.0	2295.0	2295.0	2276.0	2276.0	2276.0	2339.0	2339.0	2252.0	2252.0	2252.0	2242.0	2242.0	2311.0	2311.0	2311.0	2303.0	2303.0	2232.0	2232.0	2232.0	2201.0	2201.0	2254.0	2254.0	2254.0	2246.0	2246.0	2173.0	2173.0	2173.0	2244.0	2244.0	2181.0	2181.0	2181.0	2151.0	2151.0	2215.0	2215.0	2215.0	2191.0	2191.0	2202.0	2202.0	2202.0	2111.0	2111.0	2178.0	2178.0	2178.0	2100.0	2100.0	2168.0	2168.0	2168.0	2163.0	2163.0	2110.0	2110.0	2110.0	2093.0	2093.0	2076.0	2076.0	2076.0	2128.0	2128.0	2078.0	2078.0	2078.0	2104.0	2104.0	2032.0	2032.0	2032.0	2113.0	2113.0	2019.0	2019.0	2019.0	2073.0	2073.0	2010.0	2010.0	2010.0	2010.0	2010.0	2088.0	2088.0	2088.0	1997.0	1997.0	2078.0	2078.0	2078.0	2027.0	2027.0	2079.0	2079.0	2079.0	2008.0	2008.0	1992.0	1992.0	1992.0	1991.0	1991.0	1983.0	1983.0	1983.0	2011.0	2011.0	2073.0	2073.0	2073.0	2030.0	2030.0	2005.0	2005.0	2005.0	1990.0	1990.0	2037.0	2037.0	2037.0	2012.0	2012.0	1987.0	1987.0	1987.0	1987.0	1987.0	2044.0	2044.0	2044.0	2024.0	2024.0	2005.0	2005.0	2005.0	2070.0	2070.0	2031.0	2031.0	2046.0	2046.0	2046.0	2063.0	2063.0	1974.0	1974.0	1974.0	1984.0	1984.0	2070.0	2070.0	2070.0	1993.0	1993.0	2019.0	2019.0	2019.0	2071.0	2071.0	2067.0	2067.0	2067.0	1977.0	1977.0	1975.0	1975.0	1975.0	1991.0	1991.0	2054.0	2054.0	2054.0	2055.0	2055.0	2002.0	2002.0	2002.0	1974.0	1974.0	2044.0	2044.0	2044.0	1972.0	1972.0	2039.0	2039.0	2039.0	2007.0	2007.0	2029.0	2029.0	2029.0	1960.0	1960.0	1996.0	1996.0	1996.0	2011.0	2011.0	2000.0	2000.0	2000.0	1937.0	1937.0	2006.0	2006.0	2006.0	2016.0	2016.0	2010.0	2010.0	2010.0	1926.0	1926.0	1941.0	1941.0	1941.0	1976.0	1976.0	1931.0	1931.0	1931.0	1944.0	1944.0	1983.0	1983.0	1983.0	1992.0	1992.0	1919.0	1919.0	1919.0	1991.0	1991.0	1928.0	1928.0	1928.0	1933.0	1933.0	1970.0	1970.0	1970.0	1892.0	1892.0	1880.0	1880.0	1880.0	1961.0	1961.0	1875.0	1875.0	1875.0	1958.0	1958.0	1906.0	1906.0	1906.0	1879.0	1879.0	1859.0	1859.0	1859.0	1860.0	1860.0	1845.0	1845.0	1845.0	1862.0	1862.0	1864.0	1864.0	1864.0	1865.0	1865.0	1834.0	1834.0	1834.0	1844.0	1844.0	1900.0	1900.0	1900.0	1815.0	1815.0	1870.0	1870.0	1870.0	1879.0	1879.0	1886.0	1886.0	1886.0	1840.0	1840.0	1860.0	1860.0	1860.0	1862.0	1862.0	1848.0	1848.0	1848.0	1846.0	1846.0	1744.0	1744.0	1744.0	1753.0	1753.0	1742.0	1742.0	1742.0	1799.0	1799.0	1746.0	1746.0	1746.0	1735.0	1735.0	1743.0	1743.0	1743.0	1809.0	1809.0	1723.0	1723.0	1723.0	1720.0	1720.0	1710.0	1710.0	1710.0	1744.0	1744.0	1707.0	1707.0	1707.0	1701.0	1701.0	1770.0	1770.0	1770.0	1697.0	1697.0	1709.0	1709.0	1747.0	1747.0	1747.0	1753.0	1753.0	1730.0	1730.0	1730.0	1705.0	1705.0	1747.0	1747.0	1747.0	1742.0	1742.0	1686.0	1686.0	1686.0	1661.0	1661.0	1709.0	1709.0	1709.0	1669.0	1669.0	1713.0	1713.0	1713.0	1716.0	1716.0	1645.0	1645.0	1645.0	1674.0	1674.0	1631.0	1631.0	1631.0	1684.0	1684.0	1678.0	1678.0	1678.0	1605.0	1605.0	1635.0	1635.0	1635.0	1605.0	1605.0	1678.0	1678.0	1678.0	1608.0	1608.0	1664.0	1664.0	1664.0	1670.0	1670.0	1646.0	1646.0	1646.0	1596.0	1596.0	1567.0	1567.0	1567.0	1620.0	1620.0	1621.0	1621.0	1621.0	1622.0	1622.0	1555.0	1555.0	1555.0	1557.0	1557.0	1552.0	1552.0	1552.0	1588.0	1588.0	1631.0	1631.0	1631.0	1564.0	1564.0	1623.0	1623.0	1623.0	1627.0	1627.0	1549.0	1549.0	1549.0	1559.0	1559.0	1578.0	1578.0	1578.0	1533.0	1533.0	1592.0	1592.0	1592.0	1596.0	1596.0	1563.0	1563.0	1563.0	1636.0	1636.0	1548.0	1548.0	1548.0	1618.0	1618.0	1567.0	1567.0	1567.0	1626.0	1626.0	1586.0	1586.0	1586.0	1600.0	1600.0	1595.0	1595.0	1595.0	1631.0	1631.0	1706.0	1706.0	1706.0	1703.0	1703.0	1671.0	1671.0	1671.0	1676.0	1676.0	1740.0	1740.0	1740.0	1804.0	1804.0	1824.0	1824.0	1824.0	1824.0	1824.0	1802.0	1802.0	1802.0	1885.0	1885.0	1902.0	1902.0	1902.0	1923.0	1923.0	1991.0	1991.0	1991.0	1948.0	1948.0	2048.0	2048.0	2048.0	2063.0	2063.0	2071.0	2071.0	2071.0	2090.0	2090.0	2163.0	2163.0	2163.0	2108.0	2108.0	2133.0	2133.0	2133.0	2235.0	2235.0	2199.0	2199.0	2199.0	2247.0	2247.0	2310.0	2310.0	2310.0	2319.0	2319.0	2340.0	2340.0	2328.0	2328.0	2328.0	2364.0	2364.0	2348.0	2348.0	2348.0	2404.0	2404.0	2354.0	2354.0	2354.0	2409.0	2409.0	2438.0	