1845.0	1814.0	1814.0	1859.0	1859.0	1859.0	1781.0	1781.0	1855.0	1855.0	1855.0	1789.0	1789.0	1784.0	1784.0	1784.0	1781.0	1781.0	1817.0	1817.0	1817.0	1796.0	1796.0	1840.0	1840.0	1840.0	1849.0	1849.0	1803.0	1803.0	1803.0	1765.0	1765.0	1837.0	1837.0	1837.0	1840.0	1840.0	1803.0	1803.0	1803.0	1833.0	1833.0	1779.0	1779.0	1779.0	1834.0	1834.0	1759.0	1759.0	1759.0	1836.0	1836.0	1809.0	1809.0	1809.0	1766.0	1766.0	1816.0	1816.0	1816.0	1836.0	1836.0	1833.0	1833.0	1833.0	1768.0	1768.0	1831.0	1831.0	1831.0	1790.0	1790.0	1803.0	1803.0	1803.0	1796.0	1796.0	1759.0	1759.0	1759.0	1757.0	1757.0	1815.0	1815.0	1815.0	1814.0	1814.0	1832.0	1832.0	1832.0	1783.0	1783.0	1822.0	1822.0	1822.0	1757.0	1757.0	1757.0	1757.0	1757.0	1746.0	1746.0	1747.0	1747.0	1747.0	1770.0	1770.0	1749.0	1749.0	1749.0	1811.0	1811.0	1821.0	1821.0	1821.0	1804.0	1804.0	1749.0	1749.0	1749.0	1812.0	1812.0	1770.0	1770.0	1770.0	1792.0	1792.0	1817.0	1817.0	1817.0	1817.0	1817.0	1767.0	1767.0	1767.0	1820.0	1820.0	1769.0	1769.0	1769.0	1817.0	1817.0	1825.0	1825.0	1825.0	1808.0	1808.0	1815.0	1815.0	1815.0	1804.0	1804.0	1813.0	1813.0	1813.0	1815.0	1815.0	1867.0	1867.0	1867.0	1902.0	1902.0	1918.0	1918.0	1918.0	1933.0	1933.0	1923.0	1923.0	1923.0	1889.0	1889.0	1954.0	1954.0	1955.0	1955.0	1955.0	1935.0	1935.0	1976.0	1976.0	1976.0	1993.0	1993.0	1964.0	1964.0	1964.0	2003.0	2003.0	2036.0	2036.0	2036.0	1995.0	1995.0	2007.0	2007.0	2007.0	2076.0	2076.0	2064.0	2064.0	2064.0	2103.0	2103.0	2087.0	2087.0	2087.0	2059.0	2059.0	2081.0	2081.0	2081.0	2114.0	2114.0	2166.0	2166.0	2166.0	2174.0	2174.0	2174.0	2174.0	2174.0	2186.0	2186.0	2141.0	2141.0	2141.0	2141.0	2141.0	2188.0	2188.0	2188.0	2195.0	2195.0	2223.0	2223.0	2223.0	2211.0	2211.0	2265.0	2265.0	2265.0	2243.0	2243.0	2260.0	2260.0	2260.0	2246.0	2246.0	2256.0	2256.0	2256.0	2258.0	2258.0	2256.0	2256.0	2256.0	2245.0	2245.0	2309.0	2309.0	2309.0	2331.0	2331.0	2294.0	2294.0	2294.0	2340.0	2340.0	2361.0	2361.0	2361.0	2319.0	2319.0	2366.0	2366.0	2366.0	2317.0	2317.0	2364.0	2364.0	2364.0	2352.0	2352.0	2374.0	2374.0	2374.0	2382.0	2382.0	2354.0	2354.0	2354.0	2346.0	2346.0	2397.0	2397.0	2397.0	2355.0	2355.0	2395.0	2395.0	2395.0	2347.0	2347.0	2407.0	2407.0	2407.0	2366.0	2366.0	2391.0	2391.0	2391.0	2428.0	2428.0	2368.0	2368.0	2368.0	2383.0	2383.0	2394.0	2394.0	2394.0	2438.0	2438.0	2410.0	2410.0	2410.0	2388.0	2388.0	2447.0	2447.0	2447.0	2439.0	2439.0	2437.0	2437.0	2437.0	2394.0	2394.0	2427.0	2427.0	2427.0	2443.0	2443.0	2453.0	2453.0	2453.0	2385.0	2385.0	2443.0	2443.0	2443.0	2383.0	2383.0	2417.0	2417.0	2417.0	2379.0	2379.0	2407.0	2407.0	2407.0	2373.0	2373.0	2426.0	2426.0	2426.0	2366.0	2366.0	2397.0	2397.0	2397.0	2370.0	2370.0	2403.0	2403.0	2403.0	2353.0	2353.0	2371.0	2371.0	2404.0	2404.0	2404.0	2373.0	2373.0	2340.0	2340.0	2340.0	2370.0	2370.0	2397.0	2397.0	2397.0	2364.0	2364.0	2321.0	2321.0	2321.0	2317.0	2317.0	2331.0	2331.0	2331.0	2361.0	2361.0	2342.0	2342.0	2342.0	2284.0	2284.0	2332.0	2332.0	2332.0	2276.0	2276.0	2315.0	2315.0	2315.0	2260.0	2260.0	2306.0	2306.0	2306.0	2253.0	2253.0	2273.0	2273.0	2273.0	2275.0	2275.0	2251.0	2251.0	2251.0	2214.0	2214.0	2218.0	2218.0	2218.0	2271.0	2271.0	2188.0	2188.0	2188.0	2221.0	2221.0	2226.0	2226.0	2226.0	2230.0	2230.0	2197.0	2197.0	2197.0	2217.0	2217.0	2201.0	2201.0	2201.0	2144.0	2144.0	2195.0	2195.0	2195.0	2176.0	2176.0	2190.0	2190.0	2190.0	2186.0	2186.0	2121.0	2121.0	2121.0	2114.0	2114.0	2148.0	2148.0	2148.0	2115.0	2115.0	2087.0	2087.0	2087.0	2095.0	2095.0	2126.0	2126.0	2126.0	2111.0	2111.0	2078.0	2078.0	2078.0	2095.0	2095.0	2136.0	2136.0	2136.0	2068.0	2068.0	2068.0	2068.0	2068.0	2118.0	2118.0	2100.0	2100.0	2100.0	2061.0	2061.0	2114.0	2114.0	2114.0	2069.0	2069.0	2113.0	2113.0	2113.0	2105.0	2105.0	2055.0	2055.0	2055.0	2033.0	2033.0	2046.0	2046.0	2046.0	2094.0	2094.0	2058.0	2058.0	2058.0	2031.0	2031.0	2029.0	2029.0	2029.0	2052.0	2052.0	2054.0	2054.0	2054.0	2044.0	2044.0	2020.0	2020.0	2020.0	2062.0	2062.0	2077.0	2077.0	2077.0	2059.0	2059.0	2066.0	2066.0	2066.0	2033.0	2033.0	2020.0	2020.0	2020.0	2034.0	2034.0	1992.0	1992.0	1992.0	2045.0	2045.0	2026.0	2026.0	2026.0	2014.0	2014.0	2023.0	2023.0	2023.0	1979.0	1979.0	1968.0	1968.0	1996.0	1996.0	1996.0	1960.0	1960.0	1963.0	1963.0	1963.0	2013.0	2013.0	1978.0	1978.0	1978.0	2021.0	2021.0	1950.0	1950.0	1950.0	1951.0	1951.0	1976.0	1976.0	1976.0	1944.0	1944.0	2003.0	2003.0	2003.0	1962.0	1962.0	1989.0	1989.0	1989.0	1930.0	1930.0	1989.0	1989.0	1989.0	1972.0	1972.0	1960.0	1960.0	1960.0	1911.0	1911.0	1975.0	1975.0	1975.0	1930.0	1930.0	1965.0	1965.0	1965.0	1906.0	1906.0	1954.0	1954.0	1954.0	1890.0	1890.0	1893.0	1893.0	1893.0	1922.0	1922.0	1947.0	1947.0	1947.0	1938.0	1938.0	1958.0	1958.0	1958.0	1888.0	1888.0	1904.0	1904.0	1904.0	1874.0	1874.0	1879.0	1879.0	1879.0	1926.0	1926.0	1906.0	1906.0	1906.0	1932.0	1932.0	1909.0	1909.0	1909.0	1864.0	1864.0	1857.0	1857.0	1857.0	1922.0	1922.0	1882.0	1882.0	1882.0	1895.0	1895.0	1874.0	1874.0	1874.0	1922.0	1922.0	1915.0	1915.0	1915.0	1853.0	1853.0	1878.0	1878.0	1878.0	1920.0	1920.0	1913.0	1913.0	1913.0	1837.0	1837.0	1833.0	1833.0	1833.0	1895.0	1895.0	1850.0	1850.0	1850.0	1829.0	1829.0	1828.0	1828.0	1828.0	1892.0	1892.0	1870.0	1870.0	1870.0	1876.0	1876.0	1816.0	1816.0	1816.0	1817.0	1817.0	1824.0	1824.0	1824.0	1896.0	1896.0	1864.0	1864.0	1864.0	1827.0	1827.0	1883.0	1883.0	1883.0	1818.0	1818.0	1817.0	1817.0	1817.0	1886.0	1886.0	1834.0	1834.0	1834.0	1810.0	1810.0	1865.0	1865.0	1865.0	1873.0	1873.0	1819.0	1819.0	1819.0	1799.0	1799.0	1804.0	1804.0	1804.0	1852.0	1852.0	1881.0	1881.0	1881.0	1807.0	1807.0	1816.0	1816.0	1816.0	1850.0	1850.0	1809.0	1809.0	1809.0	1844.0	1844.0	1804.0	1804.0	1843.0	1843.0	1843.0	1789.0	1789.0	1798.0	1798.0	1798.0	1814.0	1814.0	1791.0	1791.0	1791.0	1811.0	1811.0	1802.0	1802.0	1802.0	1769.0	1769.0	1783.0	1783.0	1783.0	1793.0	1793.0	1821.0	1821.0	1821.0	1823.0	1823.0	1788.0	1788.0	1788.0	1766.0	1766.0	1768.0	1768.0	1768.0	1843.0	1843.0	1806.0	1806.0	1806.0	1797.0	1797.0	1761.0	1761.0	1761.0	1779.0	1779.0	1762.0	1762.0	1762.0	1783.0	1783.0	1766.0	1766.0	1766.0	1758.0	1758.0	1763.0	1763.0	1763.0	1760.0	1760.0	1770.0	1770.0	1770.0	1799.0	1799.0	1768.0	1768.0	1768.0	1783.0	1783.0	1805.0	1805.0	1805.0	1753.0	1753.0	1748.0	1748.0	1748.0	1777.0	1777.0	1810.0	1810.0	1810.0	1803.0	1803.0	1772.0	1772.0	1772.0	1760.0	1760.0	1799.0	1799.0	1799.0	1782.0	1782.0	1813.0	1813.0	1813.0	1767.0	1767.0	1799.0	1799.0	1799.0	1739.0	1739.0	1778.0	1778.0	1778.0	1799.0	1799.0	1788.0	1788.0	1788.0	1760.0	1760.0	1762.0	1762.0	1762.0	1797.0	1797.0	1802.0	1802.0	1802.0	1798.0	1798.0	1727.0	1727.0	1727.0	1780.0	1780.0	1794.0	1794.0	1794.0	1740.0	1740.0	1736.0	1736.0	1736.0	1735.0	1735.0	1776.0	1776.0	1776.0	1736.0	1736.0	1725.0	1725.0	1725.0	1733.0	1733.0	1747.0	1747.0	1747.0	1720.0	1720.0	1773.0	1773.0	1773.0	1779.0	1779.0	1743.0	1743.0	1743.0	1771.0	1771.0	1765.0	1765.0	1765.0	1804.0	1804.0	1760.0	1760.0	1760.0	1807.0	1807.0	1837.0	1837.0	1837.0	1848.0	1848.0	1800.0	1800.0	1800.0	1810.0	1810.0	1822.0	1822.0	1822.0	1852.0	1852.0	1849.0	1849.0	1849.0	1870.0	1870.0	1929.0	1929.0	1870.0	1870.0	1870.0	1900.0	1900.0	1926.0	1926.0	1926.0	1968.0	1968.0	1971.0	1971.0	1971.0	1971.0	1971.0	1960.0	1960.0	1960.0	2019.0	2019.0	1971.0	1971.0	1971.0	2048.0	2048.0	2035.0	2035.0	2035.0	2069.0	2069.0	2046.0	2046.0	2046.0	2025.0	2025.0	2076.0	2076.0	2076.0	2035.0	2035.0	2049.0	2049.0	2049.0	2095.0	2095.0	2089.0	2089.0	2089.0	2155.0	2155.0	2149.0	2149.0	2149.0	2179.0	2179.0	2182.0	2182.0	2182.0	2126.0	2126.0	2136.0	2136.0	2136.0	2150.0	2150.0	2196.0	2196.0	2196.0	2194.0	2194.0	2234.0	2234.0	2234.0	2185.0	2185.0	2234.0	2234.0	2234.0	2194.0	2194.0	2242.0	2242.0	2242.0	2269.0	2269.0	2208.0	2208.0	2208.0	2275.0	2275.0	2285.0	2285.0	2285.0	2224.0	2224.0	2260.0	2260.0	2260.0	2300.0	2300.0	2270.0	2270.0	2270.0	2258.0	2258.0	2321.0	2321.0	2321.0	2324.0	2324.0	2272.0	2272.0	2272.0	2318.0	2318.0	2336.0	2336.0	2336.0	2316.0	2316.0	2271.0	2271.0	2271.0	2319.0	2319.0	2368.0	2368.0	2368.0	2367.0	2367.0	2306.0	2306.0	2306.0	2303.0	2303.0	2349.0	2349.0	2349.0	2378.0	2378.0	2373.0	2373.0	2373.0	2353.0	2353.0	2335.0	2335.0	2335.0	2334.0	2334.0	2330.0	2330.0	2330.0	2322.0	2322.0	2330.0	2330.0	2330.0	2387.0	2387.0	2341.0	2341.0	2341.0	2385.0	2385.0	2319.0	2319.0	2319.0	2375.0	2375.0	2324.0	2324.0	2324.0	2404.0	2404.0	2379.0	2379.0	2379.0	2382.0	2382.0	2339.0	2339.0	2339.0	2384.0	2384.0	2370.0	2370.0	2370.0	2336.0	2336.0	2375.0	2375.0	2375.0	2370.0	2370.0	2308.0	2308.0	2308.0	2315.0	2315.0	2348.0	2348.0	2344.0	2344.0	2344.0	2338.0	2338.0	2287.0	2287.0	2287.0	2334.0	2334.0	2275.0	2275.0	2275.0	2337.0	2337.0	2319.0	2319.0	2319.0	2315.0	2315.0	2291.0	2291.0	2291.0	2298.0	2298.0	2251.0	2251.0	2251.0	2268.0	2268.0	2278.0	2278.0	2278.0	2246.0	2246.0	2206.0	2206.0	2206.0	2192.0	2192.0	2184.0	2184.0	2184.0	2239.0	2239.0	2170.0	2170.0	2170.0	2189.0	2189.0	2161.0	2161.0	2161.0	2182.0	2182.0	2179.0	2179.0	2179.0	2181.0	2181.0	2150.0	2150.0	2150.0	2119.0	2119.0	2178.0	2178.0	2178.0	2139.0	2139.0	2159.0	2159.0	2159.0	2091.0	2091.0	2098.0	2098.0	2098.0	2087.0	2087.0	2088.0	2088.0	2088.0	2136.0	2136.0	2066.0	2066.0	2066.0	2068.0	2068.0	2120.0	2120.0	2120.0	2088.0	2088.0	2043.0	2043.0	2043.0	2052.0	2052.0	2088.0	2088.0	2088.0	2050.0	2050.0	2098.0	2098.0	2098.0	2092.0	2092.0	2032.0	2032.0	2032.0	2075.0	2075.0	2092.0	2092.0	2092.0	2019.0	2019.0	2037.0	2037.0	2037.0	2056.0	2056.0	2013.0	2013.0	2013.0	2058.0	2058.0	2028.0	2028.0	2028.0	2038.0	2038.0	2008.0	2008.0	2008.0	2020.0	2020.0	2032.0	2032.0	2032.0	2062.0	2062.0	2007.0	2007.0	2007.0	2054.0	2054.0	2030.0	2030.0	2030.0	1983.0	1983.0	1983.0	1983.0	1983.0	2029.0	2029.0	1989.0	1989.0	1989.0	2001.0	2001.0	2041.0	2041.0	2041.0	2002.0	2002.0	2036.0	2036.0	2036.0	2003.0	2003.0	1951.0	1951.0	1951.0	1964.0	1964.0	1955.0	1955.0	1955.0	2020.0	2020.0	1979.0	1979.0	1979.0	2014.0	2014.0	1993.0	1993.0	1993.0	2014.0	2014.0	1940.0	1940.0	1940.0	1999.0	1999.0	1956.0	1956.0	1956.0	1927.0	1927.0	1944.0	1944.0	1961.0	1961.0	1961.0	1936.0	1936.0	1988.0	1988.0	1988.0	1938.0	1938.0	1921.0	1921.0	1921.0	1913.0	1913.0	1945.0	1945.0	1945.0	1911.0	1911.0	1907.0	1907.0	1907.0	1924.0	1924.0	1936.0	1936.0	1936.0	1955.0	1955.0	1956.0	1956.0	1956.0	1936.0	1936.0	1919.0	1919.0	1919.0	1945.0	1945.0	1897.0	1897.0	1897.0	1898.0	1898.0	1903.0	1903.0	1903.0	1903.0	1903.0	1890.0	1890.0	1890.0	1903.0	1903.0	1950.0	1950.0	1950.0	1882.0	1882.0	1927.0	1927.0	1927.0	1906.0	1906.0	1931.0	1931.0	1931.0	1864.0	1864.0	1931.0	1931.0	1931.0	1905.0	1905.0	1881.0	1881.0	1881.0	1921.0	1921.0	1854.0	1854.0	1854.0	1900.0	1900.0	1893.0	1893.0	1893.0	1910.0	1910.0	1855.0	1855.0	1855.0	1850.0	1850.0	1884.0	1884.0	1884.0	1870.0	1870.0	1883.0	1883.0	1883.0	1912.0	1912.0	1847.0	1847.0	1847.0	1888.0	1888.0	1880.0	1880.0	1880.0	1896.0	1896.0	1890.0	1890.0	1890.0	1884.0	1884.0	1894.0	1894.0	1894.0	1853.0	1853.0	1827.0	1827.0	1827.0	1838.0	1838.0	1846.0	1846.0	1846.0	1826.0	1826.0	1815.0	1815.0	1815.0	1811.0	1811.0	1863.0	1863.0	1863.0	1891.0	1891.0	1848.0	1848.0	1848.0	1883.0	1883.0	1825.0	1825.0	1825.0	1841.0	1841.0	1878.0	1878.0	1878.0	1827.0	1827.0	1809.0	1809.0	1809.0	1814.0	1814.0	1865.0	1865.0	1865.0	1875.0	1875.0	1819.0	1819.0	1819.0	1875.0	1875.0	1811.0	1811.0	1811.0	1881.0	1881.0	1873.0	1873.0	1873.0	1849.0	1849.0	1804.0	1804.0	1804.0	1833.0	1833.0	1848.0	1848.0	1848.0	1827.0	1827.0	1828.0	1828.0	1828.0	1870.0	1870.0	1855.0	1855.0	1840.0	1840.0	1840.0	1838.0	1838.0	1801.0	1801.0	1801.0	1796.0	1796.0	1855.0	1855.0	1855.0	1801.0	1801.0	1785.0	1785.0	1785.0	1786.0	1786.0	1851.0	1851.0	1851.0	1800.0	1800.0	1786.0	1786.0	1786.0	1785.0	1785.0	1809.0	1809.0	1809.0	1836.0	1836.0	1790.0	1790.0	1790.0	1777.0	1777.0	1814.0	1814.0	1814.0	1780.0	1780.0	1812.0	1812.0	1812.0	1805.0	1805.0	1780.0	1780.0	1780.0	1822.0	1822.0	1777.0	1777.0	1777.0	1836.0	1836.0	1815.0	1815.0	1815.0	1840.0	1840.0	1767.0	1767.0	1767.0	1777.0	1777.0	1830.0	1830.0	1830.0	1848.0	1848.0	1772.0	1772.0	1772.0	1772.0	1772.0	1796.0	1796.0	1796.0	1769.0	1769.0	1827.0	1827.0	1827.0	1816.0	1816.0	1758.0	1758.0	1758.0	1826.0	1826.0	1771.0	1771.0	1771.0	1834.0	1834.0	1777.0	1777.0	1777.0	1761.0	1761.0	1822.0	1822.0	1822.0	1814.0	1814.0	1814.0	1814.0	1814.0	1748.0	1748.0	1819.0	1819.0	1819.0	1793.0	1793.0	1745.0	1745.0	1745.0	1743.0	1743.0	1825.0	1825.0	1825.0	1811.0	1811.0	1799.0	1799.0	1799.0	1779.0	1779.0	1819.0	1819.0	1819.0	1771.0	1771.0	1747.0	1747.0	1747.0	1824.0	1824.0	1777.0	1777.0	1777.0	1812.0	1812.0	1752.0	1752.0	1752.0	1763.0	1763.0	1795.0	1795.0	1795.0	1750.0	1750.0	1822.0	1822.0	1822.0	1818.0	1818.0	1749.0	1749.0	1749.0	1788.0	1788.0	1767.0	1767.0	1767.0	1824.0	1824.0	1809.0	1809.0	1809.0	1788.0	1788.0	1862.0	1862.0	1862.0	1857.0	1857.0	1803.0	1803.0	1803.0	1815.0	1815.0	1848.0	1848.0	1848.0	1896.0	1896.0	1903.0	1903.0	1903.0	1906.0	1906.0	1930.0	1930.0	1908.0	1908.0	1908.0	1892.0	1892.0	1917.0	1917.0	1917.0	1904.0	1904.0	1971.0	1971.0	1971.0	1942.0	1942.0	2005.0	2005.0	2005.0	1980.0	1980.0	2032.0	2032.0	2032.0	2059.0	2059.0	2055.0	2055.0	2055.0	2024.0	2024.0	2063.0	2063.0	2063.0	2073.0	2073.0	2044.0	2044.0	2044.0	2068.0	2068.0	2140.0	2140.0	2140.0	2152.0	2152.0	2152.0	2152.0	2152.0	2102.0	2102.0	2171.0	2171.0	2171.0	2130.0	2130.0	2189.0	2189.0	2189.0	2144.0	2144.0	2172.0	2172.0	2172.0	2175.0	2175.0	2230.0	2230.0	2230.0	2215.0	2215.0	2267.0	2267.0	2267.0	2213.0	2213.0	2212.0	2212.0	2212.0	2224.0	2224.0	2225.0	2225.0	2225.0	2236.0	2236.0	2274.0	2274.0	2274.0	2323.0	2323.0	2324.0	2324.0	2324.0	2312.0	2312.0	2286.0	2286.0	2286.0	2286.0	2286.0	2360.0	2360.0	2360.0	2341.0	2341.0	2313.0	2313.0	2313.0	2311.0	2311.0	2372.0	2372.0	2372.0	2336.0	2336.0	2333.0	2333.0	2333.0	2373.0	2373.0	2330.0	2330.0	2330.0	2338.0	2338.0	2346.0	2346.0	2346.0	2366.0	2366.0	2358.0	2358.0	2358.0	2380.0	2380.0	2366.0	2366.0	2366.0	2385.0	2385.0	2430.0	2430.0	2430.0	2402.0	2402.0	2406.0	2406.0	2406.0	2407.0	2407.0	2430.0	2430.0	2430.0	2396.0	2396.0	2388.0	2388.0	2388.0	2428.0	2428.0	2435.0	2435.0	2435.0	2439.0	2439.0	2441.0	2441.0	2441.0	2399.0	2399.0	2399.0	2399.0	2399.0	2425.0	2425.0	2402.0	2402.0	2402.0	2459.0	2459.0	2452.0	2452.0	2452.0	2452.0	2452.0	2398.0	2398.0	2398.0	2402.0	2402.0	2458.0	2458.0	2458.0	2452.0	2452.0	2445.0	2445.0	2445.0	2446.0	2446.0	2422.0	2422.0	2422.0	2376.0	2376.0	2440.0	2440.0	2382.0	2382.0	2382.0	2441.0	2441.0	2391.0	2391.0	2391.0	2375.0	2375.0	2375.0	2375.0	2375.0	2376.0	2376.0	2344.0	2344.0	2344.0	2346.0	2346.0	2397.0	2397.0	2397.0	2330.0	2330.0	2376.0	2376.0	2376.0	2371.0	2371.0	2370.0	2370.0	2370.0	2314.0	2314.0	2343.0	2343.0	2343.0	2334.0	2334.0	2318.0	2318.0	2318.0	2300.0	2300.0	2323.0	2323.0	2323.0	2257.0	2257.0	2289.0	2289.0	2289.0	2226.0	2226.0	2233.0	2233.0	2233.0	2212.0	2212.0	2221.0	2221.0	2221.0	2218.0	2218.0	2185.0	2185.0	2185.0	2209.0	2209.0	2235.0	2235.0	2235.0	2197.0	2197.0	2168.0	2168.0	2168.0	2215.0	2215.0	2172.0	2172.0	2172.0	2208.0	2208.0	2132.0	2132.0	