2335.0	2337.0	2337.0	2337.0	2325.0	2325.0	2331.0	2331.0	2331.0	2311.0	2311.0	2317.0	2317.0	2317.0	2327.0	2327.0	2295.0	2295.0	2295.0	2319.0	2319.0	2293.0	2293.0	2293.0	2270.0	2270.0	2295.0	2295.0	2295.0	2293.0	2293.0	2262.0	2262.0	2262.0	2255.0	2255.0	2262.0	2262.0	2262.0	2284.0	2284.0	2283.0	2283.0	2283.0	2230.0	2230.0	2250.0	2250.0	2250.0	2260.0	2260.0	2279.0	2279.0	2279.0	2279.0	2279.0	2240.0	2240.0	2240.0	2260.0	2260.0	2253.0	2253.0	2253.0	2234.0	2234.0	2230.0	2230.0	2236.0	2236.0	2236.0	2209.0	2209.0	2210.0	2210.0	2210.0	2192.0	2192.0	2185.0	2185.0	2185.0	2223.0	2223.0	2197.0	2197.0	2197.0	2208.0	2208.0	2178.0	2178.0	2178.0	2211.0	2211.0	2165.0	2165.0	2165.0	2169.0	2169.0	2191.0	2191.0	2191.0	2202.0	2202.0	2191.0	2191.0	2191.0	2190.0	2190.0	2159.0	2159.0	2159.0	2178.0	2178.0	2160.0	2160.0	2160.0	2150.0	2150.0	2148.0	2148.0	2148.0	2113.0	2113.0	2157.0	2157.0	2157.0	2139.0	2139.0	2115.0	2115.0	2115.0	2133.0	2133.0	2107.0	2107.0	2107.0	2133.0	2133.0	2121.0	2121.0	2121.0	2119.0	2119.0	2080.0	2080.0	2080.0	2096.0	2096.0	2098.0	2098.0	2098.0	2123.0	2123.0	2088.0	2088.0	2088.0	2083.0	2083.0	2103.0	2103.0	2103.0	2087.0	2087.0	2043.0	2043.0	2043.0	2097.0	2097.0	2096.0	2096.0	2096.0	2083.0	2083.0	2068.0	2068.0	2068.0	2048.0	2048.0	2076.0	2076.0	2076.0	2056.0	2056.0	2039.0	2039.0	2039.0	2016.0	2016.0	2005.0	2005.0	2005.0	2032.0	2032.0	2002.0	2002.0	2002.0	2003.0	2003.0	2011.0	2011.0	2011.0	2042.0	2042.0	2048.0	2048.0	2048.0	2004.0	2004.0	2028.0	2028.0	2028.0	1999.0	1999.0	1976.0	1976.0	1976.0	2000.0	2000.0	2003.0	2003.0	2003.0	1997.0	1997.0	2003.0	2003.0	2003.0	1974.0	1974.0	1992.0	1992.0	1992.0	1965.0	1965.0	1990.0	1990.0	1990.0	1982.0	1982.0	1964.0	1964.0	1964.0	1954.0	1954.0	1954.0	1954.0	1954.0	1987.0	1987.0	1958.0	1958.0	1958.0	1964.0	1964.0	1962.0	1962.0	1962.0	1977.0	1977.0	1978.0	1978.0	1978.0	1984.0	1984.0	1973.0	1973.0	1973.0	1984.0	1984.0	1938.0	1938.0	1955.0	1955.0	1955.0	1927.0	1927.0	1921.0	1921.0	1921.0	1959.0	1959.0	1923.0	1923.0	1923.0	1965.0	1965.0	1956.0	1956.0	1956.0	1908.0	1908.0	1931.0	1931.0	1931.0	1920.0	1920.0	1908.0	1908.0	1908.0	1932.0	1932.0	1935.0	1935.0	1935.0	1958.0	1958.0	1943.0	1943.0	1943.0	1911.0	1911.0	1904.0	1904.0	1904.0	1895.0	1895.0	1910.0	1910.0	1910.0	1908.0	1908.0	1938.0	1938.0	1938.0	1895.0	1895.0	1908.0	1908.0	1908.0	1949.0	1949.0	1936.0	1936.0	1936.0	1934.0	1934.0	1905.0	1905.0	1905.0	1934.0	1934.0	1944.0	1944.0	1944.0	1907.0	1907.0	1910.0	1910.0	1910.0	1916.0	1916.0	1916.0	1916.0	1916.0	1902.0	1902.0	1914.0	1914.0	1914.0	1888.0	1888.0	1910.0	1910.0	1910.0	1878.0	1878.0	1913.0	1913.0	1913.0	1901.0	1901.0	1923.0	1923.0	1923.0	1892.0	1892.0	1890.0	1890.0	1890.0	1886.0	1886.0	1894.0	1894.0	1894.0	1918.0	1918.0	1896.0	1896.0	1896.0	1902.0	1902.0	1906.0	1906.0	1906.0	1885.0	1885.0	1890.0	1890.0	1890.0	1889.0	1889.0	1915.0	1915.0	1915.0	1881.0	1881.0	1895.0	1895.0	1895.0	1885.0	1885.0	1879.0	1879.0	1879.0	1907.0	1907.0	1902.0	1902.0	1902.0	1903.0	1903.0	1910.0	1910.0	1910.0	1914.0	1914.0	1871.0	1871.0	1871.0	1869.0	1869.0	1911.0	1911.0	1911.0	1862.0	1862.0	1895.0	1895.0	1895.0	1867.0	1867.0	1897.0	1897.0	1897.0	1883.0	1883.0	1872.0	1872.0	1872.0	1882.0	1882.0	1900.0	1900.0	1900.0	1891.0	1891.0	1894.0	1894.0	1894.0	1862.0	1862.0	1855.0	1855.0	1855.0	1873.0	1873.0	1873.0	1873.0	1873.0	1855.0	1855.0	1860.0	1860.0	1860.0	1862.0	1862.0	1865.0	1865.0	1857.0	1857.0	1857.0	1871.0	1871.0	1879.0	1879.0	1879.0	1883.0	1883.0	1889.0	1889.0	1889.0	1838.0	1838.0	1848.0	1848.0	1848.0	1878.0	1878.0	1878.0	1878.0	1878.0	1851.0	1851.0	1861.0	1861.0	1861.0	1866.0	1866.0	1874.0	1874.0	1874.0	1868.0	1868.0	1866.0	1866.0	1866.0	1867.0	1867.0	1848.0	1848.0	1848.0	1836.0	1836.0	1834.0	1834.0	1834.0	1887.0	1887.0	1850.0	1850.0	1850.0	1843.0	1843.0	1833.0	1833.0	1833.0	1825.0	1825.0	1862.0	1862.0	1862.0	1871.0	1871.0	1825.0	1825.0	1825.0	1854.0	1854.0	1866.0	1866.0	1866.0	1850.0	1850.0	1877.0	1877.0	1877.0	1881.0	1881.0	1861.0	1861.0	1861.0	1863.0	1863.0	1872.0	1872.0	1872.0	1926.0	1926.0	1904.0	1904.0	1904.0	1902.0	1902.0	1954.0	1954.0	1954.0	1916.0	1916.0	1935.0	1935.0	1935.0	1987.0	1987.0	1969.0	1969.0	1969.0	1987.0	1987.0	2001.0	2001.0	2001.0	2008.0	2008.0	2032.0	2032.0	2032.0	2054.0	2054.0	2058.0	2058.0	2058.0	2057.0	2057.0	2111.0	2111.0	2111.0	2089.0	2089.0	2116.0	2116.0	2116.0	2104.0	2104.0	2140.0	2140.0	2140.0	2143.0	2143.0	2184.0	2184.0	2184.0	2190.0	2190.0	2177.0	2177.0	2177.0	2194.0	2194.0	2191.0	2191.0	2191.0	2229.0	2229.0	2212.0	2212.0	2212.0	2233.0	2233.0	2257.0	2257.0	2257.0	2259.0	2259.0	2266.0	2266.0	2266.0	2266.0	2266.0	2294.0	2294.0	2294.0	2285.0	2285.0	2316.0	2316.0	2316.0	2303.0	2303.0	2306.0	2306.0	2306.0	2302.0	2302.0	2323.0	2323.0	2323.0	2346.0	2346.0	2329.0	2329.0	2329.0	2342.0	2342.0	2342.0	2342.0	2342.0	2360.0	2360.0	2391.0	2391.0	2374.0	2374.0	2374.0	2379.0	2379.0	2402.0	2402.0	2402.0	2420.0	2420.0	2420.0	2420.0	2420.0	2401.0	2401.0	2408.0	2408.0	2408.0	2398.0	2398.0	2423.0	2423.0	2423.0	2441.0	2441.0	2416.0	2416.0	2416.0	2455.0	2455.0	2435.0	2435.0	2435.0	2442.0	2442.0	2437.0	2437.0	2437.0	2459.0	2459.0	2469.0	2469.0	2469.0	2474.0	2474.0	2476.0	2476.0	2476.0	2456.0	2456.0	2460.0	2460.0	2460.0	2499.0	2499.0	2455.0	2455.0	2455.0	2487.0	2487.0	2495.0	2495.0	2495.0	2481.0	2481.0	2465.0	2465.0	2465.0	2490.0	2490.0	2490.0	2490.0	2490.0	2478.0	2478.0	2508.0	2508.0	2508.0	2507.0	2507.0	2487.0	2487.0	2487.0	2495.0	2495.0	2483.0	2483.0	2483.0	2507.0	2507.0	2499.0	2499.0	2499.0	2522.0	2522.0	2504.0	2504.0	2504.0	2503.0	2503.0	2471.0	2471.0	2471.0	2491.0	2491.0	2482.0	2482.0	2482.0	2488.0	2488.0	2485.0	2485.0	2485.0	2489.0	2489.0	2497.0	2497.0	2497.0	2505.0	2505.0	2474.0	2474.0	2474.0	2465.0	2465.0	2446.0	2446.0	2446.0	2461.0	2461.0	2446.0	2446.0	2446.0	2468.0	2468.0	2445.0	2445.0	2445.0	2457.0	2457.0	2433.0	2433.0	2433.0	2445.0	2445.0	2412.0	2412.0	2412.0	2427.0	2427.0	2427.0	2427.0	2427.0	2411.0	2411.0	2399.0	2399.0	2399.0	2401.0	2401.0	2372.0	2372.0	2372.0	2370.0	2370.0	2381.0	2381.0	2381.0	2351.0	2351.0	2369.0	2369.0	2369.0	2364.0	2364.0	2359.0	2359.0	2359.0	2352.0	2352.0	2358.0	2358.0	2358.0	2331.0	2331.0	2342.0	2342.0	2342.0	2341.0	2341.0	2306.0	2306.0	2306.0	2342.0	2342.0	2334.0	2334.0	2334.0	2323.0	2323.0	2303.0	2303.0	2318.0	2318.0	2318.0	2303.0	2303.0	2333.0	2333.0	2333.0	2292.0	2292.0	2284.0	2284.0	2284.0	2313.0	2313.0	2297.0	2297.0	2297.0	2287.0	2287.0	2284.0	2284.0	2284.0	2318.0	2318.0	2278.0	2278.0	2278.0	2270.0	2270.0	2273.0	2273.0	2273.0	2266.0	2266.0	2264.0	2264.0	2264.0	2274.0	2274.0	2291.0	2291.0	2291.0	2279.0	2279.0	2279.0	2279.0	2279.0	2259.0	2259.0	2278.0	2278.0	2278.0	2275.0	2275.0	2274.0	2274.0	2274.0	2281.0	2281.0	2245.0	2245.0	2245.0	2267.0	2267.0	2246.0	2246.0	2246.0	2257.0	2257.0	2238.0	2238.0	2238.0	2263.0	2263.0	2243.0	2243.0	2243.0	2225.0	2225.0	2226.0	2226.0	2226.0	2200.0	2200.0	2236.0	2236.0	2236.0	2229.0	2229.0	2204.0	2204.0	2204.0	2217.0	2217.0	2210.0	2210.0	2210.0	2186.0	2186.0	2223.0	2223.0	2223.0	2181.0	2181.0	2194.0	2194.0	2194.0	2179.0	2179.0	2183.0	2183.0	2183.0	2163.0	2163.0	2207.0	2207.0	2207.0	2156.0	2156.0	2183.0	2183.0	2183.0	2192.0	2192.0	2174.0	2174.0	2174.0	2163.0	2163.0	2158.0	2158.0	2158.0	2151.0	2151.0	2148.0	2148.0	2148.0	2122.0	2122.0	2134.0	2134.0	2134.0	2163.0	2163.0	2152.0	2152.0	2152.0	2152.0	2152.0	2159.0	2159.0	2159.0	2108.0	2108.0	2141.0	2141.0	2141.0	2107.0	2107.0	2119.0	2119.0	2119.0	2130.0	2130.0	2109.0	2109.0	2109.0	2110.0	2110.0	2093.0	2093.0	2093.0	2105.0	2105.0	2110.0	2110.0	2110.0	2097.0	2097.0	2094.0	2094.0	2094.0	2098.0	2098.0	2077.0	2077.0	2077.0	2088.0	2088.0	2081.0	2081.0	2081.0	2103.0	2103.0	2068.0	2068.0	2068.0	2087.0	2087.0	2055.0	2055.0	2055.0	2074.0	2074.0	2063.0	2063.0	2069.0	2069.0	2069.0	2086.0	2086.0	2076.0	2076.0	2076.0	2031.0	2031.0	2067.0	2067.0	2067.0	2054.0	2054.0	2053.0	2053.0	2053.0	2034.0	2034.0	2014.0	2014.0	2014.0	2046.0	2046.0	2025.0	2025.0	2025.0	2023.0	2023.0	2005.0	2005.0	2005.0	2022.0	2022.0	2045.0	2045.0	2045.0	2011.0	2011.0	1997.0	1997.0	1997.0	2026.0	2026.0	1991.0	1991.0	1991.0	1994.0	1994.0	2004.0	2004.0	2004.0	1978.0	1978.0	1991.0	1991.0	1991.0	1978.0	1978.0	2022.0	2022.0	2022.0	1983.0	1983.0	2005.0	2005.0	2005.0	1990.0	1990.0	1958.0	1958.0	1958.0	1984.0	1984.0	1967.0	1967.0	1967.0	1964.0	1964.0	1960.0	1960.0	1960.0	1940.0	1940.0	1977.0	1977.0	1977.0	1952.0	1952.0	1927.0	1927.0	1927.0	1963.0	1963.0	1951.0	1951.0	1951.0	1926.0	1926.0	1907.0	1907.0	1907.0	1910.0	1910.0	1920.0	1920.0	1920.0	1924.0	1924.0	1943.0	1943.0	1943.0	1943.0	1943.0	1913.0	1913.0	1913.0	1936.0	1936.0	1899.0	1899.0	1899.0	1926.0	1926.0	1896.0	1896.0	1896.0	1925.0	1925.0	1898.0	1898.0	1898.0	1914.0	1914.0	1928.0	1928.0	1928.0	1895.0	1895.0	1883.0	1883.0	1883.0	1871.0	1871.0	1881.0	1881.0	1881.0	1892.0	1892.0	1884.0	1884.0	1884.0	1912.0	1912.0	1870.0	1870.0	1870.0	1885.0	1885.0	1902.0	1902.0	1902.0	1859.0	1859.0	1859.0	1859.0	1859.0	1859.0	1859.0	1870.0	1870.0	1870.0	1876.0	1876.0	1853.0	1853.0	1853.0	1890.0	1890.0	1882.0	1882.0	1882.0	1847.0	1847.0	1857.0	1857.0	1857.0	1854.0	1854.0	1857.0	1857.0	1857.0	1848.0	1848.0	1862.0	1862.0	1862.0	1878.0	1878.0	1843.0	1843.0	1838.0	1838.0	1838.0	1871.0	1871.0	1849.0	1849.0	1849.0	1880.0	1880.0	1831.0	1831.0	1831.0	1831.0	1831.0	1861.0	1861.0	1861.0	1885.0	1885.0	1825.0	1825.0	1825.0	1831.0	1831.0	1833.0	1833.0	1833.0	1855.0	1855.0	1879.0	1879.0	1879.0	1824.0	1824.0	1868.0	1868.0	1868.0	1878.0	1878.0	1880.0	1880.0	1880.0	1875.0	1875.0	1883.0	1883.0	1883.0	1895.0	1895.0	1911.0	1911.0	1911.0	1904.0	1904.0	1934.0	1934.0	1934.0	1946.0	1946.0	1939.0	1939.0	1939.0	1925.0	1925.0	1958.0	1958.0	1958.0	1960.0	1960.0	1990.0	1990.0	1990.0	2004.0	2004.0	2007.0	2007.0	2007.0	2034.0	2034.0	2023.0	2023.0	2023.0	2032.0	2032.0	2044.0	2044.0	2044.0	2068.0	2068.0	2118.0	2118.0	2118.0	2131.0	2131.0	2128.0	2128.0	2128.0	2152.0	2152.0	2150.0	2150.0	2150.0	2141.0	2141.0	2172.0	2172.0	2172.0	2163.0	2163.0	2203.0	2203.0	2203.0	2178.0	2178.0	2212.0	2212.0	2212.0	2248.0	2248.0	2210.0	2210.0	2210.0	2252.0	2252.0	2227.0	2227.0	2227.0	2238.0	2238.0	2272.0	2272.0	2272.0	2250.0	2250.0	2284.0	2284.0	2284.0	2268.0	2268.0	2301.0	2301.0	2301.0	2292.0	2292.0	2329.0	2329.0	2329.0	2306.0	2306.0	2331.0	2331.0	2331.0	2335.0	2335.0	2341.0	2341.0	2341.0	2354.0	2354.0	2310.0	2310.0	2310.0	2353.0	2353.0	2341.0	2341.0	2341.0	2371.0	2371.0	2370.0	2370.0	2370.0	2350.0	2350.0	2359.0	2359.0	2359.0	2402.0	2402.0	2373.0	2373.0	2373.0	2375.0	2375.0	2413.0	2413.0	2413.0	2386.0	2386.0	2367.0	2367.0	2367.0	2400.0	2400.0	2410.0	2410.0	2410.0	2398.0	2398.0	2408.0	2408.0	2400.0	2400.0	2400.0	2423.0	2423.0	2391.0	2391.0	2391.0	2401.0	2401.0	2429.0	2429.0	2429.0	2405.0	2405.0	2404.0	2404.0	2404.0	2420.0	2420.0	2439.0	2439.0	2439.0	2432.0	2432.0	2395.0	2395.0	2395.0	2413.0	2413.0	2408.0	2408.0	2408.0	2431.0	2431.0	2400.0	2400.0	2400.0	2414.0	2414.0	2440.0	2440.0	2440.0	2418.0	2418.0	2418.0	2418.0	2418.0	2437.0	2437.0	2414.0	2414.0	2414.0	2423.0	2423.0	2394.0	2394.0	2394.0	2396.0	2396.0	2387.0	2387.0	2387.0	2400.0	2400.0	2417.0	2417.0	2417.0	2398.0	2398.0	2405.0	2405.0	2405.0	2381.0	2381.0	2351.0	2351.0	2351.0	2388.0	2388.0	2355.0	2355.0	2355.0	2343.0	2343.0	2353.0	2353.0	2353.0	2355.0	2355.0	2340.0	2340.0	2340.0	2343.0	2343.0	2340.0	2340.0	2340.0	2340.0	2340.0	2327.0	2327.0	2327.0	2328.0	2328.0	2291.0	2291.0	2291.0	2297.0	2297.0	2280.0	2280.0	2280.0	2256.0	2256.0	2257.0	2257.0	2257.0	2269.0	2269.0	2265.0	2265.0	2265.0	2255.0	2255.0	2257.0	2257.0	2257.0	2231.0	2231.0	2228.0	2228.0	2228.0	2227.0	2227.0	2198.0	2198.0	2198.0	2211.0	2211.0	2180.0	2180.0	2180.0	2179.0	2179.0	2176.0	2176.0	2176.0	2147.0	2147.0	2150.0	2150.0	2150.0	2171.0	2171.0	2155.0	2155.0	2155.0	2152.0	2152.0	2136.0	2136.0	2136.0	2142.0	2142.0	2160.0	2160.0	2160.0	2155.0	2155.0	2122.0	2122.0	2122.0	2112.0	2112.0	2101.0	2101.0	2101.0	2121.0	2121.0	2114.0	2114.0	2114.0	2092.0	2092.0	2085.0	2085.0	2085.0	2083.0	2083.0	2112.0	2112.0	2112.0	2097.0	2097.0	2092.0	2092.0	2092.0	2075.0	2075.0	2062.0	2062.0	2062.0	2068.0	2068.0	2041.0	2041.0	2076.0	2076.0	2076.0	2052.0	2052.0	2039.0	2039.0	2039.0	2077.0	2077.0	2088.0	2088.0	2088.0	2040.0	2040.0	2025.0	2025.0	2025.0	2036.0	2036.0	2019.0	2019.0	2019.0	2053.0	2053.0	2026.0	2026.0	2026.0	2032.0	2032.0	2028.0	2028.0	2028.0	2003.0	2003.0	2024.0	2024.0	2024.0	1993.0	1993.0	2039.0	2039.0	2039.0	1998.0	1998.0	2015.0	2015.0	2015.0	2001.0	2001.0	2004.0	2004.0	2004.0	2016.0	2016.0	1979.0	1979.0	1979.0	1968.0	1968.0	1981.0	1981.0	1981.0	1989.0	1989.0	1967.0	1967.0	1967.0	2001.0	2001.0	2003.0	2003.0	2003.0	1975.0	1975.0	1980.0	1980.0	1980.0	1949.0	1949.0	1967.0	1967.0	1967.0	1942.0	1942.0	1987.0	1987.0	1987.0	1942.0	1942.0	1954.0	1954.0	1954.0	1929.0	1929.0	1945.0	1945.0	1945.0	1940.0	1940.0	1913.0	1913.0	1913.0	1928.0	1928.0	1952.0	1952.0	1952.0	1922.0	1922.0	1894.0	1894.0	1894.0	1937.0	1937.0	1905.0	1905.0	1905.0	1913.0	1913.0	1912.0	1912.0	1912.0	1903.0	1903.0	1887.0	1887.0	1887.0	1909.0	1909.0	1872.0	1872.0	1872.0	1862.0	1862.0	1882.0	1882.0	1882.0	1873.0	1873.0	1890.0	1890.0	1890.0	1897.0	1897.0	1895.0	1895.0	1895.0	1877.0	1877.0	1879.0	1879.0	1879.0	1843.0	1843.0	1881.0	1881.0	1881.0	1891.0	1891.0	1844.0	1844.0	1844.0	1851.0	1851.0	1876.0	1876.0	1876.0	1862.0	1862.0	1867.0	1867.0	1867.0	1873.0	1873.0	1852.0	1852.0	1852.0	1861.0	1861.0	1849.0	1849.0	1849.0	1826.0	1826.0	1871.0	1871.0	1871.0	1845.0	1845.0	1862.0	1862.0	1862.0	1834.0	1834.0	1854.0	1854.0	1854.0	1847.0	1847.0	1829.0	1829.0	1879.0	1879.0	1879.0	1865.0	1865.0	1872.0	1872.0	1872.0	1822.0	1822.0	1832.0	1832.0	1832.0	1827.0	1827.0	1859.0	1859.0	1859.0	1844.0	1844.0	1849.0	1849.0	1849.0	1840.0	1840.0	1823.0	1823.0	1823.0	1868.0	1868.0	1851.0	1851.0	1851.0	1827.0	1827.0	1860.0	1860.0	1860.0	1822.0	1822.0	1844.0	1844.0	1844.0	1834.0	1834.0	1826.0	1826.0	1826.0	1844.0	1844.0	1819.0	1819.0	1819.0	1848.0	1848.0	1835.0	1835.0	1835.0	1847.0	1847.0	1825.0	1825.0	1825.0	1823.0	1823.0	1835.0	1835.0	1835.0	1843.0	1843.0	1845.0	1845.0	1845.0	1856.0	1856.0	1842.0	1842.0	1842.0	1872.0	1872.0	1848.0	1848.0	1848.0	1849.0	1849.0	1859.0	1859.0	1859.0	1863.0	1863.0	1861.0	1861.0	1861.0	1836.0	1836.0	1829.0	1829.0	1829.0	1866.0	1866.0	1843.0	1843.0	1843.0	1821.0	1821.0	1848.0	1848.0	1848.0	1822.0	1822.0	1840.0	1840.0	1840.0	1861.0	1861.0	1844.0	1844.0	1844.0	1844.0	1844.0	1841.0	1841.0	1841.0	1825.0	1825.0	1865.0	1865.0	1865.0	1807.0	1807.0	1846.0	1846.0	1846.0	1863.0	1863.0	1828.0	1828.0	1828.0	1838.0	1838.0	1851.0	1851.0	1851.0	1857.0	1857.0	1827.0	1827.0	1827.0	1824.0	1824.0	1849.0	1849.0	1849.0	1848.0	1848.0	1868.0	1868.0	1868.0	1829.0	1829.0	1813.0	1813.0	1813.0	1855.0	1855.0	1822.0	1822.0	1822.0	1822.0	1822.0	1814.0	1814.0	1814.0	1806.0	1806.0	1847.0	1847.0	1847.0	1804.0	1804.0	1845.0	1845.0	1845.0	1834.0	1834.0	1846.0	1846.0	1846.0	1826.0	1826.0	1842.0	1842.0	1842.0	1842.0	1842.0	1821.0	1821.0	1821.0	1857.0	