1584.0	1574.0	1574.0	1515.0	1515.0	1515.0	1480.0	1480.0	1470.0	1470.0	1470.0	1470.0	1470.0	1468.0	1468.0	1468.0	1486.0	1486.0	1453.0	1453.0	1453.0	1485.0	1485.0	1495.0	1495.0	1495.0	1510.0	1510.0	1539.0	1539.0	1539.0	1517.0	1517.0	1552.0	1552.0	1552.0	1560.0	1560.0	1594.0	1594.0	1594.0	1597.0	1597.0	1615.0	1615.0	1615.0	1623.0	1623.0	1637.0	1637.0	1637.0	1664.0	1664.0	1665.0	1665.0	1665.0	1713.0	1713.0	1686.0	1686.0	1686.0	1699.0	1699.0	1751.0	1751.0	1751.0	1773.0	1773.0	1737.0	1737.0	1737.0	1791.0	1791.0	1784.0	1784.0	1784.0	1792.0	1792.0	1805.0	1805.0	1805.0	1813.0	1813.0	1849.0	1849.0	1849.0	1863.0	1863.0	1865.0	1865.0	1865.0	1883.0	1883.0	1895.0	1895.0	1895.0	1872.0	1872.0	1879.0	1879.0	1879.0	1894.0	1894.0	1933.0	1933.0	1933.0	1922.0	1922.0	1920.0	1920.0	1920.0	1936.0	1936.0	1958.0	1958.0	1961.0	1961.0	1961.0	1969.0	1969.0	1980.0	1980.0	1980.0	2008.0	2008.0	2001.0	2001.0	2001.0	2007.0	2007.0	2028.0	2028.0	2028.0	2011.0	2011.0	2012.0	2012.0	2012.0	2060.0	2060.0	2027.0	2027.0	2027.0	2062.0	2062.0	2035.0	2035.0	2035.0	2079.0	2079.0	2052.0	2052.0	2052.0	2080.0	2080.0	2073.0	2073.0	2073.0	2094.0	2094.0	2082.0	2082.0	2082.0	2122.0	2122.0	2095.0	2095.0	2095.0	2103.0	2103.0	2118.0	2118.0	2118.0	2110.0	2110.0	2136.0	2136.0	2136.0	2129.0	2129.0	2113.0	2113.0	2113.0	2141.0	2141.0	2142.0	2142.0	2142.0	2153.0	2153.0	2120.0	2120.0	2120.0	2136.0	2136.0	2125.0	2125.0	2125.0	2140.0	2140.0	2170.0	2170.0	2170.0	2183.0	2183.0	2156.0	2156.0	2156.0	2138.0	2138.0	2178.0	2178.0	2178.0	2144.0	2144.0	2147.0	2147.0	2147.0	2175.0	2175.0	2182.0	2182.0	2182.0	2131.0	2131.0	2149.0	2149.0	2149.0	2130.0	2130.0	2145.0	2145.0	2145.0	2153.0	2153.0	2123.0	2123.0	2123.0	2129.0	2129.0	2164.0	2164.0	2164.0	2126.0	2126.0	2125.0	2125.0	2125.0	2154.0	2154.0	2117.0	2117.0	2117.0	2135.0	2135.0	2121.0	2121.0	2121.0	2085.0	2085.0	2094.0	2094.0	2094.0	2112.0	2112.0	2128.0	2128.0	2128.0	2081.0	2081.0	2106.0	2106.0	2106.0	2099.0	2099.0	2097.0	2097.0	2097.0	2090.0	2090.0	2086.0	2086.0	2086.0	2102.0	2102.0	2098.0	2098.0	2098.0	2036.0	2036.0	2044.0	2044.0	2044.0	2068.0	2068.0	2030.0	2030.0	2030.0	2065.0	2065.0	2059.0	2059.0	2059.0	2015.0	2015.0	2031.0	2031.0	2031.0	2008.0	2008.0	2043.0	2043.0	2043.0	2032.0	2032.0	2029.0	2029.0	2002.0	2002.0	2002.0	1995.0	1995.0	2020.0	2020.0	2020.0	1989.0	1989.0	2033.0	2033.0	2033.0	2008.0	2008.0	2008.0	2008.0	2008.0	2012.0	2012.0	2009.0	2009.0	2009.0	2003.0	2003.0	1969.0	1969.0	1969.0	1981.0	1981.0	1958.0	1958.0	1958.0	2002.0	2002.0	1988.0	1988.0	1988.0	1971.0	1971.0	1968.0	1968.0	1968.0	1979.0	1979.0	1979.0	1979.0	1979.0	1955.0	1955.0	1948.0	1948.0	1948.0	1987.0	1987.0	1973.0	1973.0	1973.0	1967.0	1967.0	1972.0	1972.0	1972.0	1975.0	1975.0	1971.0	1971.0	1971.0	1945.0	1945.0	1939.0	1939.0	1939.0	1947.0	1947.0	1954.0	1954.0	1954.0	1970.0	1970.0	1943.0	1943.0	1943.0	1921.0	1921.0	1925.0	1925.0	1925.0	1960.0	1960.0	1926.0	1926.0	1926.0	1913.0	1913.0	1940.0	1940.0	1940.0	1943.0	1943.0	1904.0	1904.0	1904.0	1926.0	1926.0	1907.0	1907.0	1907.0	1940.0	1940.0	1926.0	1926.0	1926.0	1908.0	1908.0	1941.0	1941.0	1941.0	1891.0	1891.0	1928.0	1928.0	1928.0	1888.0	1888.0	1906.0	1906.0	1906.0	1886.0	1886.0	1920.0	1920.0	1920.0	1891.0	1891.0	1915.0	1915.0	1915.0	1895.0	1895.0	1920.0	1920.0	1920.0	1923.0	1923.0	1907.0	1907.0	1907.0	1864.0	1864.0	1885.0	1885.0	1885.0	1913.0	1913.0	1894.0	1894.0	1894.0	1881.0	1881.0	1859.0	1859.0	1859.0	1884.0	1884.0	1885.0	1885.0	1885.0	1883.0	1883.0	1889.0	1889.0	1889.0	1861.0	1861.0	1899.0	1899.0	1899.0	1888.0	1888.0	1850.0	1850.0	1850.0	1873.0	1873.0	1881.0	1881.0	1881.0	1841.0	1841.0	1849.0	1849.0	1849.0	1856.0	1856.0	1835.0	1835.0	1835.0	1862.0	1862.0	1879.0	1879.0	1879.0	1827.0	1827.0	1829.0	1829.0	1849.0	1849.0	1849.0	1848.0	1848.0	1866.0	1866.0	1866.0	1862.0	1862.0	1861.0	1861.0	1861.0	1828.0	1828.0	1859.0	1859.0	1859.0	1815.0	1815.0	1832.0	1832.0	1832.0	1821.0	1821.0	1846.0	1846.0	1846.0	1811.0	1811.0	1815.0	1815.0	1815.0	1851.0	1851.0	1804.0	1804.0	1804.0	1832.0	1832.0	1816.0	1816.0	1816.0	1846.0	1846.0	1800.0	1800.0	1800.0	1819.0	1819.0	1812.0	1812.0	1812.0	1823.0	1823.0	1823.0	1823.0	1823.0	1847.0	1847.0	1842.0	1842.0	1842.0	1844.0	1844.0	1797.0	1797.0	1797.0	1794.0	1794.0	1786.0	1786.0	1786.0	1798.0	1798.0	1791.0	1791.0	1791.0	1792.0	1792.0	1789.0	1789.0	1789.0	1829.0	1829.0	1813.0	1813.0	1813.0	1790.0	1790.0	1826.0	1826.0	1826.0	1810.0	1810.0	1803.0	1803.0	1803.0	1832.0	1832.0	1785.0	1785.0	1785.0	1799.0	1799.0	1778.0	1778.0	1778.0	1790.0	1790.0	1791.0	1791.0	1791.0	1779.0	1779.0	1793.0	1793.0	1793.0	1782.0	1782.0	1795.0	1795.0	1795.0	1825.0	1825.0	1827.0	1827.0	1827.0	1771.0	1771.0	1786.0	1786.0	1786.0	1818.0	1818.0	1792.0	1792.0	1792.0	1782.0	1782.0	1790.0	1790.0	1790.0	1814.0	1814.0	1780.0	1780.0	1780.0	1800.0	1800.0	1784.0	1784.0	1784.0	1820.0	1820.0	1775.0	1775.0	1775.0	1782.0	1782.0	1799.0	1799.0	1799.0	1785.0	1785.0	1781.0	1781.0	1781.0	1773.0	1773.0	1798.0	1798.0	1798.0	1770.0	1770.0	1776.0	1776.0	1776.0	1811.0	1811.0	1774.0	1774.0	1774.0	1779.0	1779.0	1770.0	1770.0	1770.0	1776.0	1776.0	1773.0	1773.0	1773.0	1759.0	1759.0	1772.0	1772.0	1772.0	1807.0	1807.0	1770.0	1770.0	1810.0	1810.0	1810.0	1778.0	1778.0	1784.0	1784.0	1784.0	1804.0	1804.0	1802.0	1802.0	1802.0	1813.0	1813.0	1803.0	1803.0	1803.0	1816.0	1816.0	1771.0	1771.0	1771.0	1751.0	1751.0	1809.0	1809.0	1809.0	1785.0	1785.0	1789.0	1789.0	1789.0	1807.0	1807.0	1802.0	1802.0	1802.0	1768.0	1768.0	1793.0	1793.0	1793.0	1779.0	1779.0	1759.0	1759.0	1759.0	1773.0	1773.0	1808.0	1808.0	1808.0	1791.0	1791.0	1785.0	1785.0	1785.0	1758.0	1758.0	1788.0	1788.0	1788.0	1748.0	1748.0	1807.0	1807.0	1807.0	1806.0	1806.0	1780.0	1780.0	1780.0	1787.0	1787.0	1764.0	1764.0	1764.0	1782.0	1782.0	1778.0	1778.0	1778.0	1777.0	1777.0	1754.0	1754.0	1754.0	1810.0	1810.0	1775.0	1775.0	1775.0	1772.0	1772.0	1788.0	1788.0	1788.0	1805.0	1805.0	1778.0	1778.0	1778.0	1807.0	1807.0	1769.0	1769.0	1769.0	1801.0	1801.0	1775.0	1775.0	1775.0	1763.0	1763.0	1757.0	1757.0	1757.0	1787.0	1787.0	1796.0	1796.0	1796.0	1763.0	1763.0	1810.0	1810.0	1810.0	1755.0	1755.0	1803.0	1803.0	1803.0	1801.0	1801.0	1810.0	1810.0	1810.0	1804.0	1804.0	1798.0	1798.0	1798.0	1787.0	1787.0	1804.0	1804.0	1804.0	1773.0	1773.0	1752.0	1752.0	1752.0	1783.0	1783.0	1788.0	1788.0	1788.0	1775.0	1775.0	1802.0	1802.0	1802.0	1773.0	1773.0	1779.0	1779.0	1779.0	1826.0	1826.0	1788.0	1788.0	1788.0	1805.0	1805.0	1832.0	1832.0	1832.0	1811.0	1811.0	1848.0	1848.0	1848.0	1871.0	1871.0	1850.0	1850.0	1850.0	1897.0	1897.0	1924.0	1924.0	1924.0	1890.0	1890.0	1897.0	1897.0	1897.0	1909.0	1909.0	1921.0	1921.0	1986.0	1986.0	1986.0	1960.0	1960.0	2020.0	2020.0	2020.0	1986.0	1986.0	2002.0	2002.0	2002.0	2059.0	2059.0	2044.0	2044.0	2044.0	2038.0	2038.0	2098.0	2098.0	2098.0	2075.0	2075.0	2114.0	2114.0	2114.0	2105.0	2105.0	2101.0	2101.0	2101.0	2120.0	2120.0	2143.0	2143.0	2143.0	2172.0	2172.0	2171.0	2171.0	2171.0	2199.0	2199.0	2199.0	2199.0	2199.0	2197.0	2197.0	2175.0	2175.0	2175.0	2214.0	2214.0	2239.0	2239.0	2239.0	2255.0	2255.0	2237.0	2237.0	2237.0	2227.0	2227.0	2266.0	2266.0	2266.0	2249.0	2249.0	2260.0	2260.0	2260.0	2280.0	2280.0	2295.0	2295.0	2295.0	2300.0	2300.0	2292.0	2292.0	2292.0	2323.0	2323.0	2319.0	2319.0	2319.0	2338.0	2338.0	2327.0	2327.0	2327.0	2320.0	2320.0	2306.0	2306.0	2306.0	2353.0	2353.0	2314.0	2314.0	2314.0	2328.0	2328.0	2330.0	2330.0	2330.0	2325.0	2325.0	2349.0	2349.0	2349.0	2378.0	2378.0	2346.0	2346.0	2346.0	2386.0	2386.0	2377.0	2377.0	2377.0	2393.0	2393.0	2394.0	2394.0	2394.0	2359.0	2359.0	2397.0	2397.0	2397.0	2371.0	2371.0	2377.0	2377.0	2377.0	2358.0	2358.0	2382.0	2382.0	2382.0	2380.0	2380.0	2404.0	2404.0	2404.0	2388.0	2388.0	2388.0	2388.0	2388.0	2387.0	2387.0	2415.0	2415.0	2415.0	2404.0	2404.0	2399.0	2399.0	2399.0	2403.0	2403.0	2390.0	2390.0	2390.0	2392.0	2392.0	2381.0	2381.0	2381.0	2417.0	2417.0	2386.0	2386.0	2386.0	2403.0	2403.0	2394.0	2394.0	2394.0	2408.0	2408.0	2393.0	2393.0	2393.0	2389.0	2389.0	2399.0	2399.0	2399.0	2393.0	2393.0	2369.0	2369.0	2369.0	2375.0	2375.0	2411.0	2411.0	2411.0	2369.0	2369.0	2375.0	2375.0	2383.0	2383.0	2383.0	2373.0	2373.0	2364.0	2364.0	2364.0	2344.0	2344.0	2391.0	2391.0	2391.0	2371.0	2371.0	2338.0	2338.0	2338.0	2328.0	2328.0	2332.0	2332.0	2332.0	2329.0	2329.0	2323.0	2323.0	2323.0	2337.0	2337.0	2335.0	2335.0	2335.0	2323.0	2323.0	2317.0	2317.0	2317.0	2282.0	2282.0	2279.0	2279.0	2279.0	2289.0	2289.0	2280.0	2280.0	2280.0	2282.0	2282.0	2261.0	2261.0	2261.0	2253.0	2253.0	2234.0	2234.0	2234.0	2258.0	2258.0	2241.0	2241.0	2241.0	2233.0	2233.0	2246.0	2246.0	2246.0	2225.0	2225.0	2205.0	2205.0	2205.0	2213.0	2213.0	2211.0	2211.0	2211.0	2178.0	2178.0	2175.0	2175.0	2175.0	2173.0	2173.0	2159.0	2159.0	2159.0	2159.0	2159.0	2188.0	2188.0	2188.0	2161.0	2161.0	2183.0	2183.0	2183.0	2153.0	2153.0	2142.0	2142.0	2142.0	2140.0	2140.0	2145.0	2145.0	2145.0	2168.0	2168.0	2155.0	2155.0	2155.0	2152.0	2152.0	2130.0	2130.0	2130.0	2109.0	2109.0	2114.0	2114.0	2114.0	2111.0	2111.0	2093.0	2093.0	2093.0	2133.0	2133.0	2121.0	2121.0	2121.0	2105.0	2105.0	2103.0	2103.0	2103.0	2084.0	2084.0	2101.0	2101.0	2101.0	2097.0	2097.0	2075.0	2075.0	2075.0	2093.0	2093.0	2059.0	2059.0	2059.0	2094.0	2094.0	2058.0	2058.0	2058.0	2084.0	2084.0	2081.0	2081.0	2081.0	2044.0	2044.0	2050.0	2050.0	2050.0	2053.0	2053.0	2049.0	2049.0	2049.0	2081.0	2081.0	2032.0	2032.0	2032.0	2075.0	2075.0	2038.0	2038.0	2038.0	2045.0	2045.0	2025.0	2025.0	2025.0	2022.0	2022.0	2060.0	2060.0	2060.0	2037.0	2037.0	2046.0	2046.0	2046.0	2033.0	2033.0	2008.0	2008.0	2036.0	2036.0	2036.0	2026.0	2026.0	1992.0	1992.0	1992.0	1986.0	1986.0	1982.0	1982.0	1982.0	1981.0	1981.0	1981.0	1981.0	1981.0	2022.0	2022.0	2007.0	2007.0	2007.0	1994.0	1994.0	2023.0	2023.0	2023.0	1961.0	1961.0	1975.0	1975.0	1975.0	1961.0	1961.0	1988.0	1988.0	1988.0	1991.0	1991.0	1980.0	1980.0	1980.0	1965.0	1965.0	1953.0	1953.0	1953.0	1939.0	1939.0	1985.0	1985.0	1985.0	1926.0	1926.0	1934.0	1934.0	1934.0	1971.0	1971.0	1926.0	1926.0	1926.0	1924.0	1924.0	1931.0	1931.0	1931.0	1945.0	1945.0	1930.0	1930.0	1930.0	1940.0	1940.0	1956.0	1956.0	1956.0	1945.0	1945.0	1937.0	1937.0	1937.0	1939.0	1939.0	1922.0	1922.0	1922.0	1910.0	1910.0	1933.0	1933.0	1933.0	1898.0	1898.0	1890.0	1890.0	1890.0	1897.0	1897.0	1920.0	1920.0	1920.0	1925.0	1925.0	1926.0	1926.0	1926.0	1895.0	1895.0	1871.0	1871.0	1871.0	1917.0	1917.0	1886.0	1886.0	1886.0	1880.0	1880.0	1875.0	1875.0	1875.0	1899.0	1899.0	1882.0	1882.0	1882.0	1884.0	1884.0	1875.0	1875.0	1875.0	1870.0	1870.0	1908.0	1908.0	1908.0	1885.0	1885.0	1859.0	1859.0	1859.0	1895.0	1895.0	1897.0	1897.0	1897.0	1860.0	1860.0	1853.0	1853.0	1853.0	1886.0	1886.0	1845.0	1845.0	1845.0	1883.0	1883.0	1866.0	1866.0	1866.0	1835.0	1835.0	1846.0	1846.0	1846.0	1885.0	1885.0	1896.0	1896.0	1896.0	1849.0	1849.0	1838.0	1838.0	1838.0	1850.0	1850.0	1839.0	1839.0	1839.0	1842.0	1842.0	1841.0	1841.0	1841.0	1836.0	1836.0	1843.0	1843.0	1843.0	1867.0	1867.0	1839.0	1839.0	1839.0	1817.0	1817.0	1827.0	1827.0	1827.0	1824.0	1824.0	1874.0	1874.0	1826.0	1826.0	1826.0	1857.0	1857.0	1831.0	1831.0	1831.0	1856.0	1856.0	1839.0	1839.0	1839.0	1853.0	1853.0	1833.0	1833.0	1833.0	1829.0	1829.0	1806.0	1806.0	1806.0	1844.0	1844.0	1813.0	1813.0	1813.0	1854.0	1854.0	1839.0	1839.0	1839.0	1837.0	1837.0	1835.0	1835.0	1835.0	1832.0	1832.0	1836.0	1836.0	1836.0	1852.0	1852.0	1807.0	1807.0	1807.0	1834.0	1834.0	1823.0	1823.0	1823.0	1807.0	1807.0	1841.0	1841.0	1841.0	1810.0	1810.0	1824.0	1824.0	1824.0	1829.0	1829.0	1806.0	1806.0	1806.0	1810.0	1810.0	1851.0	1851.0	1851.0	1845.0	1845.0	1844.0	1844.0	1844.0	1817.0	1817.0	1841.0	1841.0	1841.0	1826.0	1826.0	1820.0	1820.0	1820.0	1802.0	1802.0	1838.0	1838.0	1838.0	1791.0	1791.0	1796.0	1796.0	1796.0	1819.0	1819.0	1830.0	1830.0	1830.0	1819.0	1819.0	1832.0	1832.0	1832.0	1799.0	1799.0	1823.0	1823.0	1823.0	1804.0	1804.0	1791.0	1791.0	1791.0	1827.0	1827.0	1788.0	1788.0	1788.0	1811.0	1811.0	1800.0	1800.0	1800.0	1824.0	1824.0	1801.0	1801.0	1801.0	1813.0	1813.0	1779.0	1779.0	1779.0	1831.0	1831.0	1814.0	1814.0	1814.0	1825.0	1825.0	1786.0	1786.0	1786.0	1794.0	1794.0	1775.0	1775.0	1775.0	1800.0	1800.0	1809.0	1809.0	1809.0	1805.0	1805.0	1794.0	1794.0	1794.0	1806.0	1806.0	1819.0	1819.0	1819.0	1793.0	1793.0	1812.0	1812.0	1812.0	1828.0	1828.0	1815.0	1815.0	1815.0	1809.0	1809.0	1778.0	1778.0	1778.0	1797.0	1797.0	1794.0	1794.0	1794.0	1791.0	1791.0	1815.0	1815.0	1815.0	1780.0	1780.0	1766.0	1766.0	1766.0	1783.0	1783.0	1779.0	1779.0	1768.0	1768.0	1768.0	1788.0	1788.0	1797.0	1797.0	1797.0	1811.0	1811.0	1767.0	1767.0	1767.0	1786.0	1786.0	1798.0	1798.0	1798.0	1793.0	1793.0	1764.0	1764.0	1764.0	1782.0	1782.0	1788.0	1788.0	1788.0	1771.0	1771.0	1777.0	1777.0	1777.0	1812.0	1812.0	1816.0	1816.0	1816.0	1770.0	1770.0	1819.0	1819.0	1819.0	1807.0	1807.0	1779.0	1779.0	1779.0	1781.0	1781.0	1782.0	1782.0	1782.0	1799.0	1799.0	1845.0	1845.0	1845.0	1797.0	1797.0	1849.0	1849.0	1849.0	1832.0	1832.0	1836.0	1836.0	1836.0	1880.0	1880.0	1847.0	1847.0	1847.0	1901.0	1901.0	1906.0	1906.0	1906.0	1905.0	1905.0	1895.0	1895.0	1895.0	1916.0	1916.0	1944.0	1944.0	1944.0	1965.0	1965.0	1985.0	1985.0	1985.0	1977.0	1977.0	2029.0	2029.0	2029.0	2027.0	2027.0	2024.0	2024.0	2024.0	2058.0	2058.0	2048.0	2048.0	2048.0	2054.0	2054.0	2074.0	2074.0	2074.0	2115.0	2115.0	2118.0	2118.0	2118.0	2112.0	2112.0	2124.0	2124.0	2124.0	2139.0	2139.0	2155.0	2155.0	2155.0	2184.0	2184.0	2182.0	2182.0	2182.0	2210.0	2210.0	2215.0	2215.0	2215.0	2219.0	2219.0	2225.0	2225.0	2225.0	2232.0	2232.0	2241.0	2241.0	2241.0	2246.0	2246.0	2265.0	2265.0	2265.0	2283.0	2283.0	2295.0	2295.0	2295.0	2304.0	2304.0	2265.0	2265.0	2265.0	2306.0	2306.0	2296.0	2296.0	2296.0	2305.0	2305.0	2342.0	2342.0	2342.0	2335.0	2335.0	2340.0	2340.0	2340.0	2316.0	2316.0	2357.0	2357.0	2357.0	2342.0	2342.0	2329.0	2329.0	2329.0	2336.0	2336.0	2367.0	2367.0	2367.0	2350.0	2350.0	2357.0	2357.0	2357.0	2369.0	2369.0	2387.0	2387.0	2403.0	2403.0	2403.0	2366.0	2366.0	2378.0	2378.0	2378.0	2389.0	2389.0	2388.0	2388.0	2388.0	2376.0	2376.0	2416.0	2416.0	2416.0	2395.0	2395.0	2408.0	2408.0	2408.0	2404.0	2404.0	2428.0	2428.0	2428.0	2402.0	2402.0	2400.0	2400.0	2400.0	2394.0	2394.0	2388.0	2388.0	2388.0	2439.0	2439.0	2398.0	2398.0	2398.0	2430.0	2430.0	2430.0	2430.0	2430.0	2410.0	2410.0	2412.0	2412.0	2412.0	2411.0	2411.0	2430.0	2430.0	2430.0	2437.0	2437.0	2419.0	2419.0	2419.0	2411.0	2411.0	2431.0	2431.0	2431.0	2403.0	2403.0	2436.0	2436.0	2436.0	2419.0	2419.0	2415.0	2415.0	2415.0	2398.0	2398.0	2394.0	2394.0	2394.0	2402.0	2402.0	2415.0	2415.0	2415.0	2379.0	2379.0	2401.0	2401.0	2401.0	2379.0	2379.0	2373.0	2373.0	2373.0	2411.0	2411.0	2371.0	2371.0	2371.0	2358.0	2358.0	2402.0	2402.0	2402.0	2398.0	2398.0	2341.0	2341.0	2341.0	2331.0	2331.0	2342.0	2342.0	2342.0	2344.0	2344.0	2323.0	2323.0	2323.0	2337.0	2337.0	2342.0	2342.0	2342.0	2303.0	2303.0	2293.0	2293.0	2293.0	2316.0	2316.0	2314.0	2314.0	2314.0	2284.0	2284.0	2279.0	2279.0	2279.0	2259.0	2259.0	2275.0	2275.0	2275.0	2283.0	2283.0	2232.0	2232.0	