2954.0	2951.0	2951.0	2927.0	2927.0	2927.0	2941.0	2941.0	2918.0	2918.0	2918.0	2906.0	2906.0	2902.0	2902.0	2902.0	2884.0	2884.0	2888.0	2888.0	2888.0	2883.0	2883.0	2866.0	2866.0	2866.0	2863.0	2863.0	2845.0	2845.0	2843.0	2843.0	2843.0	2825.0	2825.0	2817.0	2817.0	2817.0	2837.0	2837.0	2822.0	2822.0	2822.0	2794.0	2794.0	2797.0	2797.0	2797.0	2776.0	2776.0	2776.0	2776.0	2776.0	2754.0	2754.0	2758.0	2758.0	2758.0	2747.0	2747.0	2753.0	2753.0	2753.0	2728.0	2728.0	2720.0	2720.0	2720.0	2724.0	2724.0	2724.0	2724.0	2724.0	2687.0	2687.0	2693.0	2693.0	2693.0	2685.0	2685.0	2691.0	2691.0	2691.0	2666.0	2666.0	2654.0	2654.0	2654.0	2644.0	2644.0	2654.0	2654.0	2654.0	2631.0	2631.0	2638.0	2638.0	2638.0	2624.0	2624.0	2624.0	2624.0	2624.0	2597.0	2597.0	2595.0	2595.0	2595.0	2612.0	2612.0	2596.0	2596.0	2596.0	2587.0	2587.0	2577.0	2577.0	2577.0	2585.0	2585.0	2570.0	2570.0	2570.0	2571.0	2571.0	2557.0	2557.0	2557.0	2570.0	2570.0	2550.0	2550.0	2550.0	2557.0	2557.0	2529.0	2529.0	2529.0	2528.0	2528.0	2528.0	2528.0	2528.0	2523.0	2523.0	2525.0	2525.0	2525.0	2516.0	2516.0	2525.0	2525.0	2525.0	2491.0	2491.0	2484.0	2484.0	2484.0	2487.0	2487.0	2490.0	2490.0	2490.0	2472.0	2472.0	2465.0	2465.0	2465.0	2495.0	2495.0	2463.0	2463.0	2463.0	2452.0	2452.0	2487.0	2487.0	2487.0	2460.0	2460.0	2441.0	2441.0	2441.0	2436.0	2436.0	2438.0	2438.0	2438.0	2422.0	2422.0	2434.0	2434.0	2434.0	2423.0	2423.0	2425.0	2425.0	2425.0	2412.0	2412.0	2424.0	2424.0	2424.0	2418.0	2418.0	2413.0	2413.0	2413.0	2395.0	2395.0	2402.0	2402.0	2402.0	2396.0	2396.0	2389.0	2389.0	2389.0	2407.0	2407.0	2377.0	2377.0	2377.0	2375.0	2375.0	2382.0	2382.0	2382.0	2397.0	2397.0	2371.0	2371.0	2349.0	2349.0	2349.0	2368.0	2368.0	2345.0	2345.0	2345.0	2341.0	2341.0	2353.0	2353.0	2353.0	2339.0	2339.0	2315.0	2315.0	2315.0	2352.0	2352.0	2337.0	2337.0	2337.0	2320.0	2320.0	2326.0	2326.0	2326.0	2334.0	2334.0	2320.0	2320.0	2320.0	2323.0	2323.0	2299.0	2299.0	2299.0	2320.0	2320.0	2288.0	2288.0	2288.0	2316.0	2316.0	2307.0	2307.0	2307.0	2301.0	2301.0	2286.0	2286.0	2286.0	2280.0	2280.0	2280.0	2280.0	2280.0	2291.0	2291.0	2273.0	2273.0	2273.0	2288.0	2288.0	2265.0	2265.0	2265.0	2281.0	2281.0	2279.0	2279.0	2279.0	2267.0	2267.0	2255.0	2255.0	2255.0	2269.0	2269.0	2259.0	2259.0	2259.0	2247.0	2247.0	2267.0	2267.0	2267.0	2258.0	2258.0	2271.0	2271.0	2271.0	2268.0	2268.0	2248.0	2248.0	2248.0	2253.0	2253.0	2277.0	2277.0	2277.0	2253.0	2253.0	2281.0	2281.0	2281.0	2266.0	2266.0	2250.0	2250.0	2250.0	2272.0	2272.0	2266.0	2266.0	2266.0	2287.0	2287.0	2280.0	2280.0	2280.0	2269.0	2269.0	2265.0	2265.0	2265.0	2287.0	2287.0	2285.0	2285.0	2285.0	2298.0	2298.0	2285.0	2285.0	2285.0	2314.0	2314.0	2287.0	2287.0	2287.0	2316.0	2316.0	2325.0	2325.0	2325.0	2311.0	2311.0	2312.0	2312.0	2312.0	2295.0	2295.0	2333.0	2333.0	2333.0	2321.0	2321.0	2334.0	2334.0	2334.0	2323.0	2323.0	2317.0	2317.0	2317.0	2332.0	2332.0	2332.0	2332.0	2332.0	2332.0	2332.0	2346.0	2346.0	2346.0	2343.0	2343.0	2326.0	2326.0	2326.0	2343.0	2343.0	2336.0	2336.0	2336.0	2357.0	2357.0	2334.0	2334.0	2334.0	2329.0	2329.0	2334.0	2334.0	2334.0	2352.0	2352.0	2334.0	2334.0	2340.0	2340.0	2340.0	2329.0	2329.0	2335.0	2335.0	2335.0	2364.0	2364.0	2355.0	2355.0	2355.0	2334.0	2334.0	2332.0	2332.0	2332.0	2342.0	2342.0	2343.0	2343.0	2343.0	2361.0	2361.0	2360.0	2360.0	2360.0	2332.0	2332.0	2359.0	2359.0	2359.0	2343.0	2343.0	2323.0	2323.0	2323.0	2364.0	2364.0	2361.0	2361.0	2361.0	2336.0	2336.0	2336.0	2336.0	2336.0	2332.0	2332.0	2346.0	2346.0	2346.0	2329.0	2329.0	2330.0	2330.0	2330.0	2334.0	2334.0	2331.0	2331.0	2331.0	2330.0	2330.0	2321.0	2321.0	2321.0	2339.0	2339.0	2315.0	2315.0	2315.0	2351.0	2351.0	2340.0	2340.0	2340.0	2325.0	2325.0	2328.0	2328.0	2328.0	2330.0	2330.0	2322.0	2322.0	2322.0	2333.0	2333.0	2342.0	2342.0	2342.0	2320.0	2320.0	2310.0	2310.0	2310.0	2324.0	2324.0	2323.0	2323.0	2323.0	2320.0	2320.0	2327.0	2327.0	2327.0	2322.0	2322.0	2323.0	2323.0	2323.0	2315.0	2315.0	2308.0	2308.0	2308.0	2321.0	2321.0	2312.0	2312.0	2312.0	2309.0	2309.0	2313.0	2313.0	2313.0	2305.0	2305.0	2314.0	2314.0	2314.0	2328.0	2328.0	2287.0	2287.0	2287.0	2297.0	2297.0	2304.0	2304.0	2304.0	2283.0	2283.0	2280.0	2280.0	2280.0	2304.0	2304.0	2299.0	2299.0	2299.0	2284.0	2284.0	2285.0	2285.0	2285.0	2264.0	2264.0	2271.0	2271.0	2271.0	2244.0	2244.0	2280.0	2280.0	2280.0	2246.0	2246.0	2259.0	2259.0	2259.0	2238.0	2238.0	2269.0	2269.0	2269.0	2236.0	2236.0	2252.0	2252.0	2252.0	2264.0	2264.0	2231.0	2231.0	2231.0	2246.0	2246.0	2219.0	2219.0	2219.0	2212.0	2212.0	2228.0	2228.0	2228.0	2225.0	2225.0	2228.0	2228.0	2228.0	2214.0	2214.0	2203.0	2203.0	2222.0	2222.0	2222.0	2225.0	2225.0	2227.0	2227.0	2227.0	2215.0	2215.0	2212.0	2212.0	2212.0	2226.0	2226.0	2206.0	2206.0	2206.0	2208.0	2208.0	2185.0	2185.0	2185.0	2197.0	2197.0	2197.0	2197.0	2197.0	2205.0	2205.0	2200.0	2200.0	2200.0	2172.0	2172.0	2183.0	2183.0	2183.0	2200.0	2200.0	2195.0	2195.0	2195.0	2194.0	2194.0	2191.0	2191.0	2191.0	2173.0	2173.0	2191.0	2191.0	2191.0	2149.0	2149.0	2182.0	2182.0	2182.0	2184.0	2184.0	2179.0	2179.0	2179.0	2158.0	2158.0	2173.0	2173.0	2173.0	2146.0	2146.0	2156.0	2156.0	2156.0	2158.0	2158.0	2145.0	2145.0	2145.0	2168.0	2168.0	2158.0	2158.0	2158.0	2151.0	2151.0	2144.0	2144.0	2144.0	2144.0	2144.0	2145.0	2145.0	2145.0	2169.0	2169.0	2127.0	2127.0	2127.0	2144.0	2144.0	2141.0	2141.0	2141.0	2137.0	2137.0	2143.0	2143.0	2143.0	2118.0	2118.0	2152.0	2152.0	2152.0	2144.0	2144.0	2137.0	2137.0	2137.0	2133.0	2133.0	2121.0	2121.0	2121.0	2120.0	2120.0	2124.0	2124.0	2124.0	2124.0	2124.0	2096.0	2096.0	2096.0	2117.0	2117.0	2115.0	2115.0	2115.0	2097.0	2097.0	2117.0	2117.0	2117.0	2130.0	2130.0	2111.0	2111.0	2111.0	2104.0	2104.0	2092.0	2092.0	2092.0	2076.0	2076.0	2091.0	2091.0	2091.0	2094.0	2094.0	2107.0	2107.0	2107.0	2087.0	2087.0	2087.0	2087.0	2087.0	2072.0	2072.0	2095.0	2095.0	2095.0	2067.0	2067.0	2086.0	2086.0	2086.0	2092.0	2092.0	2072.0	2072.0	2072.0	2079.0	2079.0	2088.0	2088.0	2088.0	2071.0	2071.0	2076.0	2076.0	2076.0	2092.0	2092.0	2054.0	2054.0	2054.0	2086.0	2086.0	2092.0	2092.0	2075.0	2075.0	2075.0	2062.0	2062.0	2067.0	2067.0	2067.0	2067.0	2067.0	2079.0	2079.0	2079.0	2069.0	2069.0	2069.0	2069.0	2069.0	2076.0	2076.0	2058.0	2058.0	2058.0	2065.0	2065.0	2049.0	2049.0	2049.0	2044.0	2044.0	2056.0	2056.0	2056.0	2050.0	2050.0	2068.0	2068.0	2068.0	2038.0	2038.0	2040.0	2040.0	2040.0	2053.0	2053.0	2048.0	2048.0	2048.0	2048.0	2048.0	2045.0	2045.0	2045.0	2016.0	2016.0	2043.0	2043.0	2043.0	2037.0	2037.0	2019.0	2019.0	2019.0	2030.0	2030.0	2013.0	2013.0	2013.0	2029.0	2029.0	2019.0	2019.0	2019.0	2034.0	2034.0	2018.0	2018.0	2018.0	2016.0	2016.0	2019.0	2019.0	2019.0	2022.0	2022.0	2030.0	2030.0	2030.0	2037.0	2037.0	2032.0	2032.0	2032.0	2034.0	2034.0	2015.0	2015.0	2015.0	2015.0	2015.0	2035.0	2035.0	2035.0	2012.0	2012.0	2022.0	2022.0	2022.0	2002.0	2002.0	2026.0	2026.0	2026.0	2027.0	2027.0	2036.0	2036.0	2036.0	2020.0	2020.0	2019.0	2019.0	2019.0	2023.0	2023.0	2016.0	2016.0	2016.0	2013.0	2013.0	2020.0	2020.0	2020.0	2003.0	2003.0	2000.0	2000.0	2000.0	2003.0	2003.0	2008.0	2008.0	2008.0	2008.0	2008.0	1998.0	1998.0	1998.0	1989.0	1989.0	1999.0	1999.0	1999.0	2012.0	2012.0	2011.0	2011.0	2011.0	2001.0	2001.0	1999.0	1999.0	1999.0	1990.0	1990.0	1992.0	1992.0	1992.0	1990.0	1990.0	1988.0	1988.0	1988.0	1983.0	1983.0	1985.0	1985.0	1985.0	1984.0	1984.0	1992.0	1992.0	1992.0	1998.0	1998.0	1974.0	1974.0	1974.0	1989.0	1989.0	1992.0	1992.0	1992.0	1999.0	1999.0	1994.0	1994.0	1994.0	1990.0	1990.0	2008.0	2008.0	1990.0	1990.0	1990.0	2016.0	2016.0	2002.0	2002.0	2002.0	2000.0	2000.0	1999.0	1999.0	1999.0	1986.0	1986.0	1983.0	1983.0	1983.0	1970.0	1970.0	1971.0	1971.0	1971.0	1978.0	1978.0	1977.0	1977.0	1977.0	1966.0	1966.0	1967.0	1967.0	1967.0	1971.0	1971.0	1968.0	1968.0	1968.0	1993.0	1993.0	1990.0	1990.0	1990.0	1993.0	1993.0	1993.0	1993.0	1993.0	1989.0	1989.0	1963.0	1963.0	1963.0	1983.0	1983.0	1980.0	1980.0	1980.0	1989.0	1989.0	1974.0	1974.0	1974.0	1988.0	1988.0	1996.0	1996.0	1996.0	1970.0	1970.0	1988.0	1988.0	1988.0	1974.0	1974.0	1986.0	1986.0	1986.0	1975.0	1975.0	1974.0	1974.0	1974.0	1992.0	1992.0	1964.0	1964.0	1964.0	1961.0	1961.0	1981.0	1981.0	1981.0	1991.0	1991.0	1967.0	1967.0	1967.0	1958.0	1958.0	1968.0	1968.0	1968.0	1976.0	1976.0	1971.0	1971.0	1971.0	1999.0	1999.0	1970.0	1970.0	1970.0	1961.0	1961.0	1949.0	1949.0	1949.0	1943.0	1943.0	1943.0	1943.0	1943.0	1945.0	1945.0	1963.0	1963.0	1963.0	1964.0	1964.0	1960.0	1960.0	1960.0	1965.0	1965.0	1968.0	1968.0	1968.0	1958.0	1958.0	1969.0	1969.0	1969.0	1968.0	1968.0	1970.0	1970.0	1970.0	1977.0	1977.0	1961.0	1961.0	1961.0	1979.0	1979.0	1951.0	1951.0	1951.0	1973.0	1973.0	1978.0	1978.0	1978.0	1972.0	1972.0	1966.0	1966.0	1966.0	1978.0	1978.0	1947.0	1947.0	1947.0	1944.0	1944.0	1951.0	1951.0	1951.0	1973.0	1973.0	1956.0	1956.0	1956.0	1939.0	1939.0	1974.0	1974.0	1974.0	1957.0	1957.0	1938.0	1938.0	1938.0	1947.0	1947.0	1949.0	1949.0	1949.0	1948.0	1948.0	1950.0	1950.0	1950.0	1954.0	1954.0	1958.0	1958.0	1952.0	1952.0	1952.0	1960.0	1960.0	1948.0	1948.0	1948.0	1951.0	1951.0	1935.0	1935.0	1935.0	1936.0	1936.0	1963.0	1963.0	1963.0	1927.0	1927.0	1959.0	1959.0	1959.0	1938.0	1938.0	1954.0	1954.0	1954.0	1932.0	1932.0	1945.0	1945.0	1945.0	1932.0	1932.0	1950.0	1950.0	1950.0	1967.0	1967.0	1944.0	1944.0	1944.0	1968.0	1968.0	1966.0	1966.0	1966.0	1970.0	1970.0	1986.0	1986.0	1986.0	1963.0	1963.0	1983.0	1983.0	1983.0	1974.0	1974.0	1984.0	1984.0	1984.0	1973.0	1973.0	1975.0	1975.0	1975.0	1973.0	1973.0	2006.0	2006.0	2006.0	1993.0	1993.0	2007.0	2007.0	2007.0	2020.0	2020.0	2003.0	2003.0	2003.0	1997.0	1997.0	2021.0	2021.0	2021.0	2048.0	2048.0	2047.0	2047.0	2047.0	2054.0	2054.0	2041.0	2041.0	2041.0	2063.0	2063.0	2068.0	2068.0	2068.0	2044.0	2044.0	2066.0	2066.0	2066.0	2066.0	2066.0	2067.0	2067.0	2067.0	2080.0	2080.0	2075.0	2075.0	2075.0	2104.0	2104.0	2090.0	2090.0	2090.0	2096.0	2096.0	2094.0	2094.0	2094.0	2105.0	2105.0	2113.0	2113.0	2113.0	2110.0	2110.0	2115.0	2115.0	2115.0	2107.0	2107.0	2118.0	2118.0	2118.0	2151.0	2151.0	2129.0	2129.0	2129.0	2135.0	2135.0	2144.0	2144.0	2144.0	2125.0	2125.0	2127.0	2127.0	2127.0	2131.0	2131.0	2144.0	2144.0	2144.0	2151.0	2151.0	2130.0	2130.0	2130.0	2145.0	2145.0	2143.0	2143.0	2143.0	2153.0	2153.0	2168.0	2168.0	2168.0	2140.0	2140.0	2161.0	2161.0	2161.0	2160.0	2160.0	2174.0	2174.0	2174.0	2153.0	2153.0	2179.0	2179.0	2179.0	2163.0	2163.0	2170.0	2170.0	2170.0	2161.0	2161.0	2164.0	2164.0	2174.0	2174.0	2174.0	2143.0	2143.0	2157.0	2157.0	2157.0	2162.0	2162.0	2170.0	2170.0	2170.0	2161.0	2161.0	2175.0	2175.0	2175.0	2197.0	2197.0	2183.0	2183.0	2183.0	2181.0	2181.0	2194.0	2194.0	2194.0	2172.0	2172.0	2165.0	2165.0	2165.0	2187.0	2187.0	2179.0	2179.0	2179.0	2195.0	2195.0	2167.0	2167.0	2167.0	2181.0	2181.0	2185.0	2185.0	2185.0	2201.0	2201.0	2179.0	2179.0	2179.0	2186.0	2186.0	2202.0	2202.0	2202.0	2203.0	2203.0	2177.0	2177.0	2177.0	2170.0	2170.0	2171.0	2171.0	2171.0	2178.0	2178.0	2170.0	2170.0	2170.0	2191.0	2191.0	2190.0	2190.0	2190.0	2176.0	2176.0	2169.0	2169.0	2169.0	2200.0	2200.0	2170.0	2170.0	2170.0	2162.0	2162.0	2185.0	2185.0	2185.0	2172.0	2172.0	2174.0	2174.0	2174.0	2169.0	2169.0	2169.0	2169.0	2169.0	2183.0	2183.0	2165.0	2165.0	2165.0	2163.0	2163.0	2169.0	2169.0	2169.0	2157.0	2157.0	2174.0	2174.0	2174.0	2147.0	2147.0	2172.0	2172.0	2172.0	2145.0	2145.0	2140.0	2140.0	2140.0	2143.0	2143.0	2126.0	2126.0	2126.0	2123.0	2123.0	2135.0	2135.0	2135.0	2140.0	2140.0	2143.0	2143.0	2143.0	2136.0	2136.0	2148.0	2148.0	2148.0	2119.0	2119.0	2121.0	2121.0	2121.0	2127.0	2127.0	2106.0	2106.0	2106.0	2120.0	2120.0	2122.0	2122.0	2122.0	2116.0	2116.0	2104.0	2104.0	2104.0	2107.0	2107.0	2095.0	2095.0	2095.0	2099.0	2099.0	2121.0	2121.0	2121.0	2110.0	2110.0	2092.0	2092.0	2092.0	2111.0	2111.0	2101.0	2101.0	2101.0	2092.0	2092.0	2100.0	2100.0	2100.0	2096.0	2096.0	2097.0	2097.0	2097.0	2073.0	2073.0	2101.0	2101.0	2101.0	2099.0	2099.0	2092.0	2092.0	2094.0	2094.0	2094.0	2069.0	2069.0	2085.0	2085.0	2085.0	2091.0	2091.0	2083.0	2083.0	2083.0	2092.0	2092.0	2054.0	2054.0	2054.0	2074.0	2074.0	2065.0	2065.0	2065.0	2063.0	2063.0	2087.0	2087.0	2087.0	2062.0	2062.0	2073.0	2073.0	2073.0	2068.0	2068.0	2054.0	2054.0	2054.0	2062.0	2062.0	2052.0	2052.0	2052.0	2069.0	2069.0	2083.0	2083.0	2083.0	2064.0	2064.0	2066.0	2066.0	2066.0	2062.0	2062.0	2070.0	2070.0	2070.0	2065.0	2065.0	2048.0	2048.0	2048.0	2067.0	2067.0	2048.0	2048.0	2048.0	2041.0	2041.0	2041.0	2041.0	2041.0	2039.0	2039.0	2046.0	2046.0	2046.0	2053.0	2053.0	2041.0	2041.0	2041.0	2056.0	2056.0	2039.0	2039.0	2039.0	2038.0	2038.0	2059.0	2059.0	2059.0	2044.0	2044.0	2033.0	2033.0	2033.0	2038.0	2038.0	2017.0	2017.0	2017.0	2023.0	2023.0	2049.0	2049.0	2049.0	2036.0	2036.0	2024.0	2024.0	2024.0	2032.0	2032.0	2041.0	2041.0	2041.0	2024.0	2024.0	2045.0	2045.0	2045.0	2011.0	2011.0	2017.0	2017.0	2017.0	2029.0	2029.0	2007.0	2007.0	2007.0	1994.0	1994.0	2034.0	2034.0	2034.0	2023.0	2023.0	2027.0	2027.0	2027.0	2014.0	2014.0	2022.0	2022.0	2022.0	2009.0	2009.0	2019.0	2019.0	2019.0	2011.0	2011.0	2025.0	2025.0	2025.0	2000.0	2000.0	2016.0	2016.0	2016.0	2036.0	2036.0	1996.0	1996.0	1996.0	2009.0	2009.0	2015.0	2015.0	2015.0	2008.0	2008.0	2010.0	2010.0	2010.0	1999.0	1999.0	1991.0	1991.0	1991.0	2024.0	2024.0	1984.0	1984.0	1984.0	1986.0	1986.0	1989.0	1989.0	1989.0	1990.0	1990.0	1994.0	1994.0	1994.0	1994.0	1994.0	1982.0	1982.0	1984.0	1984.0	1984.0	1995.0	1995.0	1998.0	1998.0	1998.0	1989.0	1989.0	1986.0	1986.0	1986.0	2001.0	2001.0	1985.0	1985.0	1985.0	1992.0	1992.0	1976.0	1976.0	1976.0	1983.0	1983.0	1977.0	1977.0	1977.0	1972.0	1972.0	1990.0	1990.0	1990.0	2002.0	2002.0	1969.0	1969.0	1969.0	1968.0	1968.0	1987.0	1987.0	1987.0	1970.0	1970.0	1986.0	1986.0	1986.0	1982.0	1982.0	1957.0	1957.0	1957.0	1990.0	1990.0	1980.0	1980.0	1980.0	1977.0	1977.0	1983.0	1983.0	1983.0	1999.0	1999.0	1967.0	1967.0	1967.0	1978.0	1978.0	1972.0	1972.0	1972.0	1990.0	1990.0	1945.0	1945.0	1945.0	1978.0	1978.0	1975.0	1975.0	1975.0	1971.0	1971.0	1956.0	1956.0	1956.0	1955.0	1955.0	1955.0	1955.0	1955.0	1981.0	1981.0	1979.0	1979.0	1979.0	1965.0	1965.0	1980.0	1980.0	1980.0	1959.0	1959.0	1975.0	1975.0	1975.0	1954.0	1954.0	1941.0	1941.0	1941.0	1955.0	1955.0	1955.0	1955.0	1955.0	1951.0	1951.0	1947.0	1947.0	1947.0	1939.0	1939.0	1963.0	1963.0	1963.0	1952.0	1952.0	1948.0	1948.0	1948.0	1950.0	1950.0	1963.0	1963.0	1963.0	1941.0	1941.0	1968.0	1968.0	1968.0	1961.0	1961.0	1945.0	1945.0	1945.0	1968.0	1968.0	1956.0	1956.0	1956.0	1939.0	1939.0	1942.0	1942.0	1942.0	1940.0	1940.0	1978.0	1978.0	1978.0	1961.0	1961.0	1943.0	1943.0	1943.0	1955.0	1955.0	1949.0	1949.0	1949.0	1940.0	1940.0	1961.0	1961.0	1961.0	1959.0	1959.0	1942.0	1942.0	1942.0	1968.0	1968.0	1962.0	1962.0	1962.0	1955.0	1955.0	1941.0	1941.0	1941.0	1962.0	1962.0	1961.0	1961.0	1961.0	1967.0	1967.0	1969.0	1969.0	1950.0	1950.0	1950.0	1963.0	1963.0	1947.0	1947.0	1947.0	1971.0	1971.0	1970.0	1970.0	1970.0	1944.0	1944.0	1955.0	1955.0	1955.0	1956.0	1956.0	1929.0	1929.0	1929.0	1947.0	1947.0	1938.0	1938.0	1938.0	1943.0	1943.0	1963.0	1963.0	1963.0	1948.0	1948.0	