1675.0	1602.0	1602.0	1602.0	1573.0	1573.0	1528.0	1528.0	1528.0	1471.0	1471.0	1481.0	1481.0	1481.0	1433.0	1433.0	1450.0	1450.0	1450.0	1432.0	1432.0	1447.0	1447.0	1447.0	1459.0	1459.0	1433.0	1433.0	1433.0	1419.0	1419.0	1436.0	1436.0	1409.0	1409.0	1409.0	1438.0	1438.0	1449.0	1449.0	1449.0	1445.0	1445.0	1454.0	1454.0	1454.0	1446.0	1446.0	1450.0	1450.0	1450.0	1456.0	1456.0	1456.0	1456.0	1456.0	1460.0	1460.0	1450.0	1450.0	1450.0	1457.0	1457.0	1430.0	1430.0	1430.0	1475.0	1475.0	1474.0	1474.0	1474.0	1467.0	1467.0	1495.0	1495.0	1495.0	1467.0	1467.0	1467.0	1467.0	1467.0	1511.0	1511.0	1469.0	1469.0	1469.0	1470.0	1470.0	1476.0	1476.0	1476.0	1471.0	1471.0	1462.0	1462.0	1462.0	1490.0	1490.0	1476.0	1476.0	1476.0	1481.0	1481.0	1499.0	1499.0	1499.0	1485.0	1485.0	1496.0	1496.0	1496.0	1493.0	1493.0	1503.0	1503.0	1503.0	1531.0	1531.0	1514.0	1514.0	1514.0	1492.0	1492.0	1537.0	1537.0	1537.0	1523.0	1523.0	1535.0	1535.0	1535.0	1512.0	1512.0	1527.0	1527.0	1527.0	1510.0	1510.0	1562.0	1562.0	1562.0	1514.0	1514.0	1521.0	1521.0	1521.0	1563.0	1563.0	1565.0	1565.0	1565.0	1524.0	1524.0	1553.0	1553.0	1553.0	1531.0	1531.0	1530.0	1530.0	1530.0	1583.0	1583.0	1559.0	1559.0	1559.0	1588.0	1588.0	1576.0	1576.0	1576.0	1593.0	1593.0	1595.0	1595.0	1595.0	1597.0	1597.0	1611.0	1611.0	1611.0	1624.0	1624.0	1612.0	1612.0	1612.0	1643.0	1643.0	1629.0	1629.0	1629.0	1647.0	1647.0	1682.0	1682.0	1682.0	1701.0	1701.0	1700.0	1700.0	1700.0	1730.0	1730.0	1753.0	1753.0	1753.0	1745.0	1745.0	1734.0	1734.0	1734.0	1779.0	1779.0	1768.0	1768.0	1768.0	1810.0	1810.0	1803.0	1803.0	1803.0	1805.0	1805.0	1823.0	1823.0	1823.0	1835.0	1835.0	1855.0	1855.0	1855.0	1844.0	1844.0	1863.0	1863.0	1863.0	1874.0	1874.0	1895.0	1895.0	1901.0	1901.0	1901.0	1903.0	1903.0	1926.0	1926.0	1926.0	1907.0	1907.0	1918.0	1918.0	1918.0	1910.0	1910.0	1924.0	1924.0	1924.0	1970.0	1970.0	1920.0	1920.0	1920.0	1951.0	1951.0	1953.0	1953.0	1953.0	1983.0	1983.0	1968.0	1968.0	1968.0	1967.0	1967.0	1995.0	1995.0	1995.0	1971.0	1971.0	1992.0	1992.0	1992.0	2004.0	2004.0	2004.0	2004.0	2004.0	1975.0	1975.0	2029.0	2029.0	2029.0	1999.0	1999.0	1981.0	1981.0	1981.0	2007.0	2007.0	2013.0	2013.0	2013.0	2007.0	2007.0	2025.0	2025.0	2025.0	2038.0	2038.0	2040.0	2040.0	2040.0	2025.0	2025.0	2035.0	2035.0	2035.0	2034.0	2034.0	2039.0	2039.0	2039.0	2036.0	2036.0	2019.0	2019.0	2019.0	2041.0	2041.0	2019.0	2019.0	2019.0	2016.0	2016.0	2040.0	2040.0	2040.0	2019.0	2019.0	2044.0	2044.0	2044.0	2048.0	2048.0	2016.0	2016.0	2016.0	2024.0	2024.0	2023.0	2023.0	2023.0	2017.0	2017.0	2032.0	2032.0	2032.0	2044.0	2044.0	2022.0	2022.0	2022.0	2039.0	2039.0	2020.0	2020.0	2020.0	2024.0	2024.0	2024.0	2024.0	2024.0	2046.0	2046.0	2008.0	2008.0	2008.0	2020.0	2020.0	2015.0	2015.0	2015.0	2021.0	2021.0	2009.0	2009.0	2009.0	2027.0	2027.0	2002.0	2002.0	2002.0	2007.0	2007.0	2034.0	2034.0	2034.0	2003.0	2003.0	2018.0	2018.0	2018.0	1999.0	1999.0	2011.0	2011.0	2011.0	1999.0	1999.0	2007.0	2007.0	2007.0	1971.0	1971.0	1986.0	1986.0	1986.0	1990.0	1990.0	2002.0	2002.0	2002.0	1969.0	1969.0	1979.0	1979.0	1979.0	1987.0	1987.0	1955.0	1955.0	1955.0	1967.0	1967.0	1957.0	1957.0	1957.0	1962.0	1962.0	1943.0	1943.0	1955.0	1955.0	1955.0	1915.0	1915.0	1939.0	1939.0	1939.0	1948.0	1948.0	1917.0	1917.0	1917.0	1934.0	1934.0	1918.0	1918.0	1918.0	1897.0	1897.0	1916.0	1916.0	1916.0	1896.0	1896.0	1912.0	1912.0	1912.0	1911.0	1911.0	1881.0	1881.0	1881.0	1903.0	1903.0	1879.0	1879.0	1879.0	1875.0	1875.0	1867.0	1867.0	1867.0	1886.0	1886.0	1859.0	1859.0	1859.0	1866.0	1866.0	1883.0	1883.0	1883.0	1836.0	1836.0	1872.0	1872.0	1872.0	1843.0	1843.0	1884.0	1884.0	1884.0	1834.0	1834.0	1827.0	1827.0	1827.0	1870.0	1870.0	1824.0	1824.0	1824.0	1861.0	1861.0	1827.0	1827.0	1827.0	1877.0	1877.0	1822.0	1822.0	1822.0	1826.0	1826.0	1858.0	1858.0	1858.0	1838.0	1838.0	1848.0	1848.0	1848.0	1834.0	1834.0	1855.0	1855.0	1855.0	1826.0	1826.0	1826.0	1826.0	1826.0	1845.0	1845.0	1819.0	1819.0	1819.0	1815.0	1815.0	1839.0	1839.0	1839.0	1811.0	1811.0	1820.0	1820.0	1820.0	1831.0	1831.0	1820.0	1820.0	1820.0	1803.0	1803.0	1803.0	1803.0	1803.0	1846.0	1846.0	1809.0	1809.0	1809.0	1832.0	1832.0	1819.0	1819.0	1819.0	1824.0	1824.0	1788.0	1788.0	1788.0	1783.0	1783.0	1797.0	1797.0	1797.0	1798.0	1798.0	1796.0	1796.0	1796.0	1785.0	1785.0	1798.0	1798.0	1798.0	1786.0	1786.0	1829.0	1829.0	1829.0	1811.0	1811.0	1815.0	1815.0	1815.0	1782.0	1782.0	1795.0	1795.0	1795.0	1798.0	1798.0	1799.0	1799.0	1799.0	1792.0	1792.0	1769.0	1769.0	1769.0	1772.0	1772.0	1794.0	1794.0	1794.0	1781.0	1781.0	1795.0	1795.0	1795.0	1798.0	1798.0	1785.0	1785.0	1785.0	1758.0	1758.0	1791.0	1791.0	1791.0	1801.0	1801.0	1803.0	1803.0	1760.0	1760.0	1760.0	1760.0	1760.0	1791.0	1791.0	1791.0	1787.0	1787.0	1761.0	1761.0	1761.0	1779.0	1779.0	1767.0	1767.0	1767.0	1792.0	1792.0	1779.0	1779.0	1779.0	1795.0	1795.0	1765.0	1765.0	1765.0	1753.0	1753.0	1781.0	1781.0	1781.0	1751.0	1751.0	1746.0	1746.0	1746.0	1751.0	1751.0	1766.0	1766.0	1766.0	1747.0	1747.0	1773.0	1773.0	1773.0	1743.0	1743.0	1763.0	1763.0	1763.0	1792.0	1792.0	1752.0	1752.0	1752.0	1764.0	1764.0	1732.0	1732.0	1732.0	1758.0	1758.0	1773.0	1773.0	1773.0	1775.0	1775.0	1779.0	1779.0	1779.0	1746.0	1746.0	1765.0	1765.0	1765.0	1759.0	1759.0	1754.0	1754.0	1754.0	1774.0	1774.0	1741.0	1741.0	1741.0	1753.0	1753.0	1735.0	1735.0	1735.0	1764.0	1764.0	1758.0	1758.0	1758.0	1758.0	1758.0	1763.0	1763.0	1763.0	1762.0	1762.0	1748.0	1748.0	1748.0	1753.0	1753.0	1740.0	1740.0	1740.0	1732.0	1732.0	1754.0	1754.0	1754.0	1746.0	1746.0	1743.0	1743.0	1743.0	1731.0	1731.0	1727.0	1727.0	1727.0	1723.0	1723.0	1755.0	1755.0	1755.0	1737.0	1737.0	1723.0	1723.0	1723.0	1759.0	1759.0	1708.0	1708.0	1708.0	1761.0	1761.0	1707.0	1707.0	1707.0	1734.0	1734.0	1745.0	1745.0	1745.0	1727.0	1727.0	1729.0	1729.0	1729.0	1752.0	1752.0	1757.0	1757.0	1757.0	1731.0	1731.0	1758.0	1758.0	1758.0	1741.0	1741.0	1748.0	1748.0	1748.0	1727.0	1727.0	1742.0	1742.0	1742.0	1742.0	1742.0	1755.0	1755.0	1755.0	1780.0	1780.0	1775.0	1775.0	1775.0	1761.0	1761.0	1807.0	1807.0	1807.0	1791.0	1791.0	1822.0	1822.0	1822.0	1822.0	1822.0	1828.0	1828.0	1805.0	1805.0	1805.0	1848.0	1848.0	1850.0	1850.0	1850.0	1878.0	1878.0	1882.0	1882.0	1882.0	1915.0	1915.0	1889.0	1889.0	1889.0	1903.0	1903.0	1916.0	1916.0	1916.0	1924.0	1924.0	1958.0	1958.0	1958.0	1924.0	1924.0	1957.0	1957.0	1957.0	1982.0	1982.0	1982.0	1982.0	1982.0	2004.0	2004.0	1995.0	1995.0	1995.0	1985.0	1985.0	1979.0	1979.0	1979.0	1997.0	1997.0	2023.0	2023.0	2023.0	2035.0	2035.0	2038.0	2038.0	2038.0	2033.0	2033.0	2018.0	2018.0	2018.0	2028.0	2028.0	2045.0	2045.0	2045.0	2023.0	2023.0	2045.0	2045.0	2045.0	2037.0	2037.0	2057.0	2057.0	2057.0	2036.0	2036.0	2043.0	2043.0	2043.0	2033.0	2033.0	2086.0	2086.0	2086.0	2055.0	2055.0	2073.0	2073.0	2073.0	2054.0	2054.0	2051.0	2051.0	2051.0	2052.0	2052.0	2078.0	2078.0	2078.0	2083.0	2083.0	2058.0	2058.0	2058.0	2040.0	2040.0	2080.0	2080.0	2080.0	2056.0	2056.0	2060.0	2060.0	2060.0	2062.0	2062.0	2060.0	2060.0	2060.0	2047.0	2047.0	2071.0	2071.0	2071.0	2069.0	2069.0	2059.0	2059.0	2059.0	2057.0	2057.0	2055.0	2055.0	2055.0	2064.0	2064.0	2061.0	2061.0	2061.0	2045.0	2045.0	2069.0	2069.0	2069.0	2048.0	2048.0	2079.0	2079.0	2079.0	2052.0	2052.0	2038.0	2038.0	2038.0	2047.0	2047.0	2053.0	2053.0	2053.0	2073.0	2073.0	2073.0	2073.0	2073.0	2047.0	2047.0	2072.0	2072.0	2072.0	2033.0	2033.0	2052.0	2052.0	2052.0	2032.0	2032.0	2039.0	2039.0	2039.0	2059.0	2059.0	2022.0	2022.0	2022.0	2016.0	2016.0	2010.0	2010.0	2010.0	2013.0	2013.0	2019.0	2019.0	2019.0	2034.0	2034.0	2019.0	2019.0	2006.0	2006.0	2006.0	2012.0	2012.0	1995.0	1995.0	1995.0	2020.0	2020.0	2000.0	2000.0	2000.0	1999.0	1999.0	1967.0	1967.0	1967.0	2004.0	2004.0	1963.0	1963.0	1963.0	1983.0	1983.0	1985.0	1985.0	1985.0	1967.0	1967.0	1948.0	1948.0	1948.0	1932.0	1932.0	1949.0	1949.0	1949.0	1944.0	1944.0	1912.0	1912.0	1912.0	1923.0	1923.0	1923.0	1923.0	1923.0	1911.0	1911.0	1913.0	1913.0	1913.0	1885.0	1885.0	1913.0	1913.0	1913.0	1871.0	1871.0	1906.0	1906.0	1906.0	1873.0	1873.0	1868.0	1868.0	1868.0	1858.0	1858.0	1883.0	1883.0	1883.0	1833.0	1833.0	1849.0	1849.0	1849.0	1881.0	1881.0	1858.0	1858.0	1858.0	1809.0	1809.0	1831.0	1831.0	1831.0	1806.0	1806.0	1822.0	1822.0	1822.0	1811.0	1811.0	1796.0	1796.0	1796.0	1792.0	1792.0	1789.0	1789.0	1789.0	1811.0	1811.0	1785.0	1785.0	1785.0	1822.0	1822.0	1788.0	1788.0	1788.0	1798.0	1798.0	1784.0	1784.0	1784.0	1795.0	1795.0	1756.0	1756.0	1756.0	1786.0	1786.0	1767.0	1767.0	1767.0	1769.0	1769.0	1756.0	1756.0	1756.0	1756.0	1756.0	1760.0	1760.0	1760.0	1752.0	1752.0	1740.0	1740.0	1740.0	1766.0	1766.0	1745.0	1745.0	1745.0	1785.0	1785.0	1751.0	1751.0	1751.0	1736.0	1736.0	1739.0	1739.0	1739.0	1737.0	1737.0	1740.0	1740.0	1740.0	1714.0	1714.0	1757.0	1757.0	1757.0	1735.0	1735.0	1726.0	1726.0	1726.0	1741.0	1741.0	1728.0	1728.0	1728.0	1721.0	1721.0	1729.0	1729.0	1729.0	1746.0	1746.0	1753.0	1753.0	1753.0	1744.0	1744.0	1707.0	1707.0	1707.0	1746.0	1746.0	1754.0	1754.0	1754.0	1727.0	1727.0	1745.0	1745.0	1745.0	1731.0	1731.0	1744.0	1744.0	1703.0	1703.0	1703.0	1745.0	1745.0	1707.0	1707.0	1707.0	1736.0	1736.0	1705.0	1705.0	1705.0	1718.0	1718.0	1713.0	1713.0	1713.0	1686.0	1686.0	1693.0	1693.0	1693.0	1721.0	1721.0	1724.0	1724.0	1724.0	1687.0	1687.0	1703.0	1703.0	1703.0	1718.0	1718.0	1704.0	1704.0	1704.0	1704.0	1704.0	1716.0	1716.0	1716.0	1680.0	1680.0	1705.0	1705.0	1705.0	1713.0	1713.0	1679.0	1679.0	1679.0	1710.0	1710.0	1718.0	1718.0	1718.0	1664.0	1664.0	1694.0	1694.0	1694.0	1692.0	1692.0	1659.0	1659.0	1659.0	1698.0	1698.0	1702.0	1702.0	1702.0	1698.0	1698.0	1703.0	1703.0	1703.0	1687.0	1687.0	1654.0	1654.0	1654.0	1654.0	1654.0	1643.0	1643.0	1643.0	1661.0	1661.0	1642.0	1642.0	1642.0	1644.0	1644.0	1684.0	1684.0	1684.0	1674.0	1674.0	1691.0	1691.0	1691.0	1639.0	1639.0	1650.0	1650.0	1650.0	1672.0	1672.0	1644.0	1644.0	1644.0	1669.0	1669.0	1645.0	1645.0	1645.0	1653.0	1653.0	1639.0	1639.0	1639.0	1663.0	1663.0	1635.0	1635.0	1635.0	1672.0	1672.0	1651.0	1651.0	1651.0	1628.0	1628.0	1657.0	1657.0	1657.0	1660.0	1660.0	1647.0	1647.0	1647.0	1629.0	1629.0	1651.0	1651.0	1651.0	1633.0	1633.0	1646.0	1646.0	1646.0	1681.0	1681.0	1650.0	1650.0	1650.0	1640.0	1640.0	1669.0	1669.0	1669.0	1640.0	1640.0	1663.0	1663.0	1663.0	1641.0	1641.0	1654.0	1654.0	1654.0	1652.0	1652.0	1631.0	1631.0	1631.0	1648.0	1648.0	1667.0	1667.0	1667.0	1622.0	1622.0	1637.0	1637.0	1637.0	1664.0	1664.0	1638.0	1638.0	1638.0	1646.0	1646.0	1623.0	1623.0	1623.0	1634.0	1634.0	1623.0	1623.0	1668.0	1668.0	1668.0	1641.0	1641.0	1625.0	1625.0	1625.0	1630.0	1630.0	1652.0	1652.0	1652.0	1635.0	1635.0	1625.0	1625.0	1625.0	1652.0	1652.0	1679.0	1679.0	1679.0	1690.0	1690.0	1670.0	1670.0	1670.0	1687.0	1687.0	1676.0	1676.0	1676.0	1713.0	1713.0	1729.0	1729.0	1729.0	1704.0	1704.0	1723.0	1723.0	1723.0	1748.0	1748.0	1758.0	1758.0	1758.0	1796.0	1796.0	1817.0	1817.0	1817.0	1819.0	1819.0	1838.0	1838.0	1838.0	1811.0	1811.0	1862.0	1862.0	1862.0	1884.0	1884.0	1904.0	1904.0	1904.0	1910.0	1910.0	1883.0	1883.0	1883.0	1919.0	1919.0	1896.0	1896.0	1896.0	1944.0	1944.0	1936.0	1936.0	1936.0	1933.0	1933.0	1962.0	1962.0	1962.0	1958.0	1958.0	1993.0	1993.0	1993.0	1992.0	1992.0	1984.0	1984.0	1984.0	1975.0	1975.0	1988.0	1988.0	1988.0	2005.0	2005.0	2019.0	2019.0	2019.0	2010.0	2010.0	2008.0	2008.0	2008.0	2033.0	2033.0	2055.0	2055.0	2055.0	2018.0	2018.0	2052.0	2052.0	2052.0	2029.0	2029.0	2038.0	2038.0	2038.0	2032.0	2032.0	2050.0	2050.0	2050.0	2045.0	2045.0	2034.0	2034.0	2034.0	2068.0	2068.0	2055.0	2055.0	2055.0	2048.0	2048.0	2045.0	2045.0	2045.0	2081.0	2081.0	2061.0	2061.0	2061.0	2080.0	2080.0	2049.0	2049.0	2049.0	2078.0	2078.0	2076.0	2076.0	2076.0	2086.0	2086.0	2052.0	2052.0	2052.0	2095.0	2095.0	2070.0	2070.0	2070.0	2071.0	2071.0	2081.0	2081.0	2081.0	2081.0	2081.0	2076.0	2076.0	2076.0	2082.0	2082.0	2075.0	2075.0	2075.0	2066.0	2066.0	2061.0	2061.0	2061.0	2082.0	2082.0	2057.0	2057.0	2057.0	2073.0	2073.0	2080.0	2080.0	2063.0	2063.0	2063.0	2044.0	2044.0	2076.0	2076.0	2076.0	2065.0	2065.0	2060.0	2060.0	2060.0	2063.0	2063.0	2049.0	2049.0	2049.0	2054.0	2054.0	2059.0	2059.0	2059.0	2077.0	2077.0	2075.0	2075.0	2075.0	2074.0	2074.0	2060.0	2060.0	2060.0	2027.0	2027.0	2037.0	2037.0	2037.0	2024.0	2024.0	2042.0	2042.0	2042.0	2045.0	2045.0	2045.0	2045.0	2045.0	2021.0	2021.0	2026.0	2026.0	2026.0	2026.0	2026.0	2027.0	2027.0	2027.0	2033.0	2033.0	2035.0	2035.0	2035.0	2002.0	2002.0	2012.0	2012.0	2012.0	1993.0	1993.0	1982.0	1982.0	1982.0	1998.0	1998.0	2005.0	2005.0	2005.0	1971.0	1971.0	1948.0	1948.0	1948.0	1947.0	1947.0	1939.0	1939.0	1939.0	1965.0	1965.0	1933.0	1933.0	1933.0	1949.0	1949.0	1936.0	1936.0	1936.0	1916.0	1916.0	1920.0	1920.0	1920.0	1907.0	1907.0	1909.0	1909.0	1909.0	1883.0	1883.0	1893.0	1893.0	1893.0	1897.0	1897.0	1898.0	1898.0	1898.0	1907.0	1907.0	1899.0	1899.0	1899.0	1889.0	1889.0	1889.0	1889.0	1889.0	1869.0	1869.0	1850.0	1850.0	1850.0	1841.0	1841.0	1853.0	1853.0	1853.0	1877.0	1877.0	1830.0	1830.0	1830.0	1864.0	1864.0	1857.0	1857.0	1857.0	1888.0	1888.0	1850.0	1850.0	1850.0	1837.0	1837.0	1862.0	1862.0	1862.0	1855.0	1855.0	1848.0	1848.0	1848.0	1846.0	1846.0	1826.0	1826.0	1826.0	1837.0	1837.0	1841.0	1841.0	1841.0	1858.0	1858.0	1852.0	1852.0	1852.0	1860.0	1860.0	1810.0	1810.0	1810.0	1810.0	1810.0	1845.0	1845.0	1845.0	1815.0	1815.0	1828.0	1828.0	1828.0	1801.0	1801.0	1819.0	1819.0	1819.0	1795.0	1795.0	1813.0	1813.0	1813.0	1818.0	1818.0	1815.0	1815.0	1794.0	1794.0	1794.0	1793.0	1793.0	1798.0	1798.0	1798.0	1815.0	1815.0	1836.0	1836.0	1836.0	1810.0	1810.0	1809.0	1809.0	1809.0	1814.0	1814.0	1840.0	1840.0	1840.0	1822.0	1822.0	1815.0	1815.0	1815.0	1835.0	1835.0	1824.0	1824.0	1824.0	1785.0	1785.0	1814.0	1814.0	1814.0	1807.0	1807.0	1789.0	1789.0	1789.0	1787.0	1787.0	1793.0	1793.0	1793.0	1802.0	1802.0	1790.0	1790.0	1790.0	1768.0	1768.0	1765.0	1765.0	1765.0	1793.0	1793.0	1769.0	1769.0	1769.0	1775.0	1775.0	1809.0	1809.0	1809.0	1789.0	1789.0	1763.0	1763.0	1763.0	1786.0	1786.0	1786.0	1786.0	1786.0	1773.0	1773.0	1793.0	1793.0	1793.0	1776.0	1776.0	1769.0	1769.0	1769.0	1770.0	1770.0	1786.0	1786.0	1786.0	1760.0	1760.0	1763.0	1763.0	1763.0	1755.0	1755.0	1778.0	1778.0	1778.0	1797.0	1797.0	1741.0	1741.0	1741.0	1764.0	1764.0	1789.0	1789.0	1789.0	1759.0	1759.0	1766.0	1766.0	1766.0	1781.0	1781.0	1766.0	1766.0	1766.0	1746.0	1746.0	1760.0	1760.0	1760.0	1741.0	1741.0	1751.0	1751.0	1751.0	1754.0	1754.0	1748.0	1748.0	1748.0	1766.0	1766.0	1732.0	1732.0	1732.0	1774.0	1774.0	1772.0	1772.0	1772.0	1777.0	1777.0	1753.0	1753.0	1753.0	1780.0	1780.0	1771.0	1771.0	1771.0	1767.0	1767.0	1736.0	1736.0	1736.0	1731.0	1731.0	1735.0	1735.0	1735.0	1735.0	1735.0	1756.0	1756.0	1756.0	1738.0	1738.0	1753.0	1753.0	1753.0	1768.0	1768.0	1766.0	1766.0	1766.0	1755.0	1755.0	1739.0	1739.0	1739.0	1742.0	1742.0	1750.0	1750.0	1750.0	1736.0	1736.0	1719.0	1719.0	1719.0	1739.0	1739.0	1760.0	1760.0	1765.0	1765.0	1765.0	1717.0	1717.0	1746.0	1746.0	1746.0	1767.0	1767.0	1720.0	1720.0	1720.0	1721.0	1721.0	1773.0	1773.0	1773.0	1747.0	1747.0	1726.0	1726.0	1726.0	1715.0	1715.0	1765.0	1765.0	