1977.0	1977.0	2009.0	2009.0	2009.0	2004.0	2004.0	1988.0	1988.0	1988.0	1975.0	1975.0	1988.0	1988.0	1988.0	1965.0	1965.0	1988.0	1988.0	1988.0	1946.0	1946.0	1950.0	1950.0	1950.0	1981.0	1981.0	1936.0	1936.0	1936.0	1984.0	1984.0	1955.0	1955.0	1955.0	1972.0	1972.0	1950.0	1950.0	1950.0	1947.0	1947.0	1944.0	1944.0	1944.0	1931.0	1931.0	1927.0	1927.0	1927.0	1961.0	1961.0	1922.0	1922.0	1922.0	1942.0	1942.0	1942.0	1942.0	1942.0	1911.0	1911.0	1896.0	1896.0	1896.0	1904.0	1904.0	1899.0	1899.0	1923.0	1923.0	1923.0	1923.0	1923.0	1884.0	1884.0	1884.0	1930.0	1930.0	1874.0	1874.0	1874.0	1868.0	1868.0	1896.0	1896.0	1896.0	1900.0	1900.0	1872.0	1872.0	1872.0	1883.0	1883.0	1892.0	1892.0	1892.0	1879.0	1879.0	1858.0	1858.0	1858.0	1855.0	1855.0	1897.0	1897.0	1897.0	1892.0	1892.0	1875.0	1875.0	1875.0	1847.0	1847.0	1839.0	1839.0	1839.0	1844.0	1844.0	1881.0	1881.0	1881.0	1833.0	1833.0	1877.0	1877.0	1877.0	1867.0	1867.0	1863.0	1863.0	1863.0	1829.0	1829.0	1842.0	1842.0	1842.0	1826.0	1826.0	1837.0	1837.0	1837.0	1835.0	1835.0	1867.0	1867.0	1867.0	1820.0	1820.0	1829.0	1829.0	1829.0	1827.0	1827.0	1811.0	1811.0	1811.0	1854.0	1854.0	1803.0	1803.0	1803.0	1810.0	1810.0	1843.0	1843.0	1843.0	1839.0	1839.0	1814.0	1814.0	1814.0	1815.0	1815.0	1804.0	1804.0	1804.0	1799.0	1799.0	1829.0	1829.0	1829.0	1833.0	1833.0	1799.0	1799.0	1799.0	1790.0	1790.0	1810.0	1810.0	1810.0	1814.0	1814.0	1798.0	1798.0	1798.0	1831.0	1831.0	1807.0	1807.0	1807.0	1783.0	1783.0	1784.0	1784.0	1784.0	1776.0	1776.0	1782.0	1782.0	1782.0	1781.0	1781.0	1792.0	1792.0	1792.0	1772.0	1772.0	1807.0	1807.0	1807.0	1798.0	1798.0	1771.0	1771.0	1771.0	1780.0	1780.0	1819.0	1819.0	1819.0	1807.0	1807.0	1776.0	1776.0	1776.0	1763.0	1763.0	1771.0	1771.0	1771.0	1783.0	1783.0	1757.0	1757.0	1757.0	1786.0	1786.0	1769.0	1769.0	1769.0	1770.0	1770.0	1799.0	1799.0	1799.0	1781.0	1781.0	1770.0	1770.0	1770.0	1771.0	1771.0	1792.0	1792.0	1792.0	1798.0	1798.0	1757.0	1757.0	1774.0	1774.0	1774.0	1780.0	1780.0	1779.0	1779.0	1779.0	1808.0	1808.0	1789.0	1789.0	1789.0	1804.0	1804.0	1802.0	1802.0	1802.0	1825.0	1825.0	1809.0	1809.0	1809.0	1848.0	1848.0	1830.0	1830.0	1830.0	1875.0	1875.0	1850.0	1850.0	1850.0	1892.0	1892.0	1892.0	1892.0	1892.0	1898.0	1898.0	1935.0	1935.0	1935.0	1966.0	1966.0	1960.0	1960.0	1960.0	1972.0	1972.0	1993.0	1993.0	1993.0	1989.0	1989.0	2051.0	2051.0	2051.0	2049.0	2049.0	2078.0	2078.0	2078.0	2070.0	2070.0	2063.0	2063.0	2063.0	2081.0	2081.0	2126.0	2126.0	2126.0	2148.0	2148.0	2138.0	2138.0	2138.0	2146.0	2146.0	2182.0	2182.0	2182.0	2206.0	2206.0	2214.0	2214.0	2214.0	2188.0	2188.0	2194.0	2194.0	2194.0	2220.0	2220.0	2230.0	2230.0	2230.0	2230.0	2230.0	2278.0	2278.0	2278.0	2251.0	2251.0	2266.0	2266.0	2266.0	2267.0	2267.0	2268.0	2268.0	2268.0	2301.0	2301.0	2319.0	2319.0	2319.0	2334.0	2334.0	2346.0	2346.0	2346.0	2311.0	2311.0	2319.0	2319.0	2319.0	2333.0	2333.0	2348.0	2348.0	2348.0	2379.0	2379.0	2341.0	2341.0	2341.0	2324.0	2324.0	2354.0	2354.0	2354.0	2364.0	2364.0	2368.0	2368.0	2368.0	2356.0	2356.0	2364.0	2364.0	2364.0	2388.0	2388.0	2381.0	2381.0	2381.0	2394.0	2394.0	2363.0	2363.0	2363.0	2368.0	2368.0	2376.0	2376.0	2376.0	2380.0	2380.0	2411.0	2411.0	2411.0	2410.0	2410.0	2406.0	2406.0	2406.0	2383.0	2383.0	2407.0	2407.0	2407.0	2437.0	2437.0	2401.0	2401.0	2401.0	2399.0	2399.0	2405.0	2405.0	2405.0	2407.0	2407.0	2428.0	2428.0	2428.0	2382.0	2382.0	2431.0	2431.0	2431.0	2382.0	2382.0	2435.0	2435.0	2438.0	2438.0	2438.0	2427.0	2427.0	2391.0	2391.0	2391.0	2388.0	2388.0	2392.0	2392.0	2392.0	2414.0	2414.0	2387.0	2387.0	2387.0	2384.0	2384.0	2404.0	2404.0	2404.0	2397.0	2397.0	2404.0	2404.0	2404.0	2374.0	2374.0	2380.0	2380.0	2380.0	2381.0	2381.0	2361.0	2361.0	2361.0	2354.0	2354.0	2358.0	2358.0	2358.0	2342.0	2342.0	2356.0	2356.0	2356.0	2335.0	2335.0	2298.0	2298.0	2298.0	2301.0	2301.0	2299.0	2299.0	2299.0	2317.0	2317.0	2300.0	2300.0	2300.0	2301.0	2301.0	2298.0	2298.0	2298.0	2268.0	2268.0	2251.0	2251.0	2251.0	2258.0	2258.0	2240.0	2240.0	2240.0	2217.0	2217.0	2225.0	2225.0	2225.0	2226.0	2226.0	2193.0	2193.0	2193.0	2189.0	2189.0	2170.0	2170.0	2170.0	2190.0	2190.0	2184.0	2184.0	2184.0	2154.0	2154.0	2161.0	2161.0	2161.0	2140.0	2140.0	2126.0	2126.0	2126.0	2138.0	2138.0	2143.0	2143.0	2143.0	2109.0	2109.0	2117.0	2117.0	2117.0	2090.0	2090.0	2093.0	2093.0	2093.0	2083.0	2083.0	2075.0	2075.0	2075.0	2075.0	2075.0	2091.0	2091.0	2091.0	2096.0	2096.0	2075.0	2075.0	2075.0	2084.0	2084.0	2027.0	2027.0	2027.0	2032.0	2032.0	2052.0	2052.0	2052.0	2048.0	2048.0	2040.0	2040.0	2040.0	2025.0	2025.0	2018.0	2018.0	2018.0	2035.0	2035.0	2020.0	2020.0	2020.0	2007.0	2007.0	2013.0	2013.0	2013.0	2009.0	2009.0	1995.0	1995.0	1995.0	2023.0	2023.0	1981.0	1981.0	1981.0	1976.0	1976.0	1995.0	1995.0	1995.0	1992.0	1992.0	1991.0	1991.0	1991.0	1974.0	1974.0	2009.0	2009.0	2009.0	1996.0	1996.0	1949.0	1949.0	1949.0	1991.0	1991.0	1973.0	1973.0	1959.0	1959.0	1959.0	1946.0	1946.0	1934.0	1934.0	1934.0	1953.0	1953.0	1975.0	1975.0	1975.0	1946.0	1946.0	1923.0	1923.0	1923.0	1946.0	1946.0	1944.0	1944.0	1944.0	1930.0	1930.0	1956.0	1956.0	1956.0	1944.0	1944.0	1926.0	1926.0	1926.0	1950.0	1950.0	1911.0	1911.0	1911.0	1900.0	1900.0	1923.0	1923.0	1923.0	1915.0	1915.0	1889.0	1889.0	1889.0	1931.0	1931.0	1914.0	1914.0	1914.0	1928.0	1928.0	1875.0	1875.0	1875.0	1870.0	1870.0	1860.0	1860.0	1860.0	1867.0	1867.0	1892.0	1892.0	1892.0	1899.0	1899.0	1878.0	1878.0	1878.0	1861.0	1861.0	1864.0	1864.0	1864.0	1856.0	1856.0	1871.0	1871.0	1871.0	1873.0	1873.0	1882.0	1882.0	1882.0	1862.0	1862.0	1854.0	1854.0	1854.0	1875.0	1875.0	1863.0	1863.0	1863.0	1831.0	1831.0	1877.0	1877.0	1877.0	1834.0	1834.0	1836.0	1836.0	1836.0	1833.0	1833.0	1826.0	1826.0	1826.0	1838.0	1838.0	1851.0	1851.0	1851.0	1814.0	1814.0	1807.0	1807.0	1807.0	1820.0	1820.0	1828.0	1828.0	1828.0	1830.0	1830.0	1841.0	1841.0	1841.0	1843.0	1843.0	1841.0	1841.0	1841.0	1804.0	1804.0	1830.0	1830.0	1830.0	1841.0	1841.0	1817.0	1817.0	1817.0	1785.0	1785.0	1783.0	1783.0	1783.0	1812.0	1812.0	1828.0	1828.0	1828.0	1788.0	1788.0	1809.0	1809.0	1809.0	1813.0	1813.0	1823.0	1823.0	1823.0	1791.0	1791.0	1792.0	1792.0	1792.0	1787.0	1787.0	1762.0	1762.0	1762.0	1763.0	1763.0	1809.0	1809.0	1809.0	1781.0	1781.0	1760.0	1760.0	1760.0	1765.0	1765.0	1765.0	1765.0	1765.0	1796.0	1796.0	1804.0	1804.0	1804.0	1767.0	1767.0	1804.0	1804.0	1766.0	1766.0	1766.0	1757.0	1757.0	1760.0	1760.0	1760.0	1764.0	1764.0	1771.0	1771.0	1771.0	1790.0	1790.0	1784.0	1784.0	1784.0	1737.0	1737.0	1757.0	1757.0	1757.0	1743.0	1743.0	1736.0	1736.0	1736.0	1745.0	1745.0	1734.0	1734.0	1734.0	1761.0	1761.0	1770.0	1770.0	1770.0	1763.0	1763.0	1739.0	1739.0	1739.0	1735.0	1735.0	1735.0	1735.0	1735.0	1761.0	1761.0	1729.0	1729.0	1729.0	1761.0	1761.0	1776.0	1776.0	1776.0	1750.0	1750.0	1760.0	1760.0	1760.0	1747.0	1747.0	1777.0	1777.0	1777.0	1788.0	1788.0	1782.0	1782.0	1782.0	1773.0	1773.0	1798.0	1798.0	1798.0	1768.0	1768.0	1795.0	1795.0	1795.0	1814.0	1814.0	1841.0	1841.0	1841.0	1811.0	1811.0	1836.0	1836.0	1836.0	1875.0	1875.0	1876.0	1876.0	1876.0	1862.0	1862.0	1931.0	1931.0	1931.0	1912.0	1912.0	1959.0	1959.0	1959.0	1981.0	1981.0	1942.0	1942.0	1942.0	1962.0	1962.0	2004.0	2004.0	2004.0	2023.0	2023.0	2053.0	2053.0	2053.0	2043.0	2043.0	2080.0	2080.0	2080.0	2062.0	2062.0	2113.0	2113.0	2113.0	2114.0	2114.0	2115.0	2115.0	2115.0	2123.0	2123.0	2112.0	2112.0	2112.0	2157.0	2157.0	2153.0	2153.0	2153.0	2166.0	2166.0	2198.0	2198.0	2198.0	2204.0	2204.0	2197.0	2197.0	2197.0	2195.0	2195.0	2201.0	2201.0	2201.0	2229.0	2229.0	2217.0	2217.0	2217.0	2238.0	2238.0	2244.0	2244.0	2244.0	2253.0	2253.0	2238.0	2238.0	2238.0	2259.0	2259.0	2280.0	2280.0	2280.0	2302.0	2302.0	2271.0	2271.0	2271.0	2292.0	2292.0	2295.0	2295.0	2295.0	2294.0	2294.0	2330.0	2330.0	2330.0	2300.0	2300.0	2317.0	2317.0	2317.0	2342.0	2342.0	2297.0	2297.0	2314.0	2314.0	2314.0	2329.0	2329.0	2339.0	2339.0	2339.0	2332.0	2332.0	2366.0	2366.0	2366.0	2361.0	2361.0	2341.0	2341.0	2341.0	2332.0	2332.0	2351.0	2351.0	2351.0	2347.0	2347.0	2364.0	2364.0	2364.0	2364.0	2364.0	2357.0	2357.0	2357.0	2356.0	2356.0	2376.0	2376.0	2376.0	2347.0	2347.0	2373.0	2373.0	2373.0	2358.0	2358.0	2339.0	2339.0	2339.0	2368.0	2368.0	2357.0	2357.0	2357.0	2350.0	2350.0	2366.0	2366.0	2366.0	2346.0	2346.0	2331.0	2331.0	2331.0	2356.0	2356.0	2330.0	2330.0	2330.0	2336.0	2336.0	2342.0	2342.0	2342.0	2317.0	2317.0	2327.0	2327.0	2327.0	2340.0	2340.0	2319.0	2319.0	2319.0	2312.0	2312.0	2342.0	2342.0	2342.0	2316.0	2316.0	2292.0	2292.0	2292.0	2283.0	2283.0	2313.0	2313.0	2313.0	2275.0	2275.0	2303.0	2303.0	2303.0	2264.0	2264.0	2286.0	2286.0	2286.0	2253.0	2253.0	2279.0	2279.0	2279.0	2244.0	2244.0	2243.0	2243.0	2243.0	2257.0	2257.0	2213.0	2213.0	2213.0	2212.0	2212.0	2225.0	2225.0	2225.0	2189.0	2189.0	2191.0	2191.0	2191.0	2176.0	2176.0	2182.0	2182.0	2182.0	2179.0	2179.0	2182.0	2182.0	2182.0	2171.0	2171.0	2129.0	2129.0	2129.0	2156.0	2156.0	2110.0	2110.0	2110.0	2115.0	2115.0	2096.0	2096.0	2096.0	2096.0	2096.0	2088.0	2088.0	2088.0	2107.0	2107.0	2063.0	2063.0	2063.0	2079.0	2079.0	2091.0	2091.0	2091.0	2058.0	2058.0	2031.0	2031.0	2031.0	2030.0	2030.0	2046.0	2046.0	2046.0	2063.0	2063.0	2033.0	2033.0	2033.0	2057.0	2057.0	2028.0	2028.0	2028.0	2031.0	2031.0	1997.0	1997.0	1997.0	1987.0	1987.0	2003.0	2003.0	1980.0	1980.0	1980.0	2024.0	2024.0	1986.0	1986.0	1986.0	2004.0	2004.0	1977.0	1977.0	1977.0	2005.0	2005.0	1991.0	1991.0	1991.0	1958.0	1958.0	1966.0	1966.0	1966.0	1964.0	1964.0	1948.0	1948.0	1948.0	1966.0	1966.0	1947.0	1947.0	1947.0	1943.0	1943.0	1967.0	1967.0	1967.0	1926.0	1926.0	1949.0	1949.0	1949.0	1921.0	1921.0	1935.0	1935.0	1935.0	1913.0	1913.0	1943.0	1943.0	1943.0	1915.0	1915.0	1951.0	1951.0	1951.0	1891.0	1891.0	1896.0	1896.0	1896.0	1906.0	1906.0	1895.0	1895.0	1895.0	1888.0	1888.0	1876.0	1876.0	1876.0	1912.0	1912.0	1912.0	1912.0	1912.0	1886.0	1886.0	1877.0	1877.0	1877.0	1918.0	1918.0	1911.0	1911.0	1911.0	1895.0	1895.0	1893.0	1893.0	1893.0	1892.0	1892.0	1886.0	1886.0	1886.0	1845.0	1845.0	1842.0	1842.0	1842.0	1873.0	1873.0	1886.0	1886.0	1886.0	1875.0	1875.0	1847.0	1847.0	1847.0	1857.0	1857.0	1845.0	1845.0	1845.0	1856.0	1856.0	1852.0	1852.0	1852.0	1878.0	1878.0	1822.0	1822.0	1822.0	1828.0	1828.0	1819.0	1819.0	1819.0	1839.0	1839.0	1836.0	1836.0	1836.0	1819.0	1819.0	1809.0	1809.0	1809.0	1814.0	1814.0	1835.0	1835.0	1835.0	1831.0	1831.0	1809.0	1809.0	1809.0	1805.0	1805.0	1791.0	1791.0	1791.0	1800.0	1800.0	1818.0	1818.0	1818.0	1799.0	1799.0	1798.0	1798.0	1798.0	1823.0	1823.0	1802.0	1802.0	1802.0	1822.0	1822.0	1788.0	1788.0	1788.0	1818.0	1818.0	1780.0	1780.0	1780.0	1769.0	1769.0	1786.0	1786.0	1786.0	1816.0	1816.0	1769.0	1769.0	1769.0	1767.0	1767.0	1812.0	1812.0	1812.0	1808.0	1808.0	1772.0	1772.0	1772.0	1766.0	1766.0	1790.0	1790.0	1814.0	1814.0	1814.0	1768.0	1768.0	1798.0	1798.0	1798.0	1781.0	1781.0	1792.0	1792.0	1792.0	1767.0	1767.0	1758.0	1758.0	1758.0	1754.0	1754.0	1748.0	1748.0	1748.0	1747.0	1747.0	1782.0	1782.0	1782.0	1773.0	1773.0	1783.0	1783.0	1783.0	1746.0	1746.0	1756.0	1756.0	1756.0	1781.0	1781.0	1782.0	1782.0	1782.0	1755.0	1755.0	1753.0	1753.0	1753.0	1785.0	1785.0	1769.0	1769.0	1769.0	1749.0	1749.0	1747.0	1747.0	1747.0	1769.0	1769.0	1761.0	1761.0	1761.0	1727.0	1727.0	1730.0	1730.0	1730.0	1754.0	1754.0	1734.0	1734.0	1734.0	1743.0	1743.0	1734.0	1734.0	1734.0	1730.0	1730.0	1763.0	1763.0	1763.0	1768.0	1768.0	1763.0	1763.0	1763.0	1726.0	1726.0	1752.0	1752.0	1752.0	1747.0	1747.0	1720.0	1720.0	1720.0	1758.0	1758.0	1743.0	1743.0	1743.0	1757.0	1757.0	1723.0	1723.0	1723.0	1759.0	1759.0	1729.0	1729.0	1729.0	1743.0	1743.0	1743.0	1743.0	1743.0	1741.0	1741.0	1762.0	1762.0	1762.0	1762.0	1762.0	1762.0	1762.0	1762.0	1765.0	1765.0	1804.0	1804.0	1804.0	1815.0	1815.0	1804.0	1804.0	1804.0	1812.0	1812.0	1827.0	1827.0	1827.0	1866.0	1866.0	1901.0	1901.0	1901.0	1908.0	1908.0	1916.0	1916.0	1916.0	1934.0	1934.0	1919.0	1919.0	1919.0	1974.0	1974.0	1970.0	1970.0	1970.0	1979.0	1979.0	2007.0	2007.0	2007.0	2014.0	2014.0	2038.0	2038.0	2038.0	2051.0	2051.0	2082.0	2082.0	2082.0	2056.0	2056.0	2066.0	2066.0	2066.0	2108.0	2108.0	2093.0	2093.0	2093.0	2139.0	2139.0	2116.0	2116.0	2116.0	2163.0	2163.0	2165.0	2165.0	2165.0	2175.0	2175.0	2156.0	2156.0	2165.0	2165.0	2165.0	2182.0	2182.0	2196.0	2196.0	2196.0	2206.0	2206.0	2231.0	2231.0	2231.0	2237.0	2237.0	2222.0	2222.0	2222.0	2261.0	2261.0	2241.0	2241.0	2241.0	2260.0	2260.0	2270.0	2270.0	2270.0	2262.0	2262.0	2255.0	2255.0	2255.0	2260.0	2260.0	2290.0	2290.0	2290.0	2260.0	2260.0	2303.0	2303.0	2303.0	2306.0	2306.0	2284.0	2284.0	2284.0	2295.0	2295.0	2304.0	2304.0	2304.0	2320.0	2320.0	2330.0	2330.0	2330.0	2331.0	2331.0	2328.0	2328.0	2328.0	2331.0	2331.0	2331.0	2331.0	2331.0	2309.0	2309.0	2320.0	2320.0	2320.0	2333.0	2333.0	2322.0	2322.0	2322.0	2344.0	2344.0	2349.0	2349.0	2349.0	2316.0	2316.0	2322.0	2322.0	2322.0	2340.0	2340.0	2339.0	2339.0	2339.0	2337.0	2337.0	2354.0	2354.0	2354.0	2324.0	2324.0	2327.0	2327.0	2327.0	2349.0	2349.0	2333.0	2333.0	2333.0	2356.0	2356.0	2348.0	2348.0	2348.0	2342.0	2342.0	2330.0	2330.0	2330.0	2300.0	2300.0	2337.0	2337.0	2337.0	2311.0	2311.0	2297.0	2297.0	2297.0	2309.0	2309.0	2276.0	2276.0	2276.0	2273.0	2273.0	2261.0	2261.0	2261.0	2274.0	2274.0	2248.0	2248.0	2248.0	2248.0	2248.0	2274.0	2274.0	2274.0	2230.0	2230.0	2230.0	2230.0	2230.0	2215.0	2215.0	2228.0	2228.0	2228.0	2244.0	2244.0	2220.0	2220.0	2220.0	2194.0	2194.0	2182.0	2182.0	2182.0	2201.0	2201.0	2174.0	2174.0	2174.0	2203.0	2203.0	2183.0	2183.0	2183.0	2149.0	2149.0	2132.0	2132.0	2132.0	2128.0	2128.0	2137.0	2137.0	2137.0	2155.0	2155.0	2107.0	2107.0	2107.0	2140.0	2140.0	2111.0	2111.0	2111.0	2085.0	2085.0	2098.0	2098.0	2111.0	2111.0	2111.0	2077.0	2077.0	2076.0	2076.0	2076.0	2090.0	2090.0	2050.0	2050.0	2050.0	2075.0	2075.0	2067.0	2067.0	2067.0	2044.0	2044.0	2033.0	2033.0	2033.0	2034.0	2034.0	2010.0	2010.0	2010.0	2032.0	2032.0	2028.0	2028.0	2028.0	2011.0	2011.0	2000.0	2000.0	2000.0	2027.0	2027.0	1983.0	1983.0	1983.0	2016.0	2016.0	2028.0	2028.0	2028.0	1988.0	1988.0	1996.0	1996.0	1996.0	1996.0	1996.0	1970.0	1970.0	1970.0	1971.0	1971.0	1971.0	1971.0	1971.0	1970.0	1970.0	1943.0	1943.0	1943.0	1962.0	1962.0	1980.0	1980.0	1980.0	1953.0	1953.0	1957.0	1957.0	1957.0	1940.0	1940.0	1945.0	1945.0	1945.0	1939.0	1939.0	1915.0	1915.0	1915.0	1914.0	1914.0	1927.0	1927.0	1927.0	1943.0	1943.0	1925.0	1925.0	1925.0	1933.0	1933.0	1902.0	1902.0	1902.0	1892.0	1892.0	1933.0	1933.0	1933.0	1891.0	1891.0	1895.0	1895.0	1895.0	1892.0	1892.0	1896.0	1896.0	1896.0	1918.0	1918.0	1914.0	1914.0	1914.0	1881.0	1881.0	1874.0	1874.0	1874.0	1907.0	1907.0	1890.0	1890.0	1890.0	1875.0	1875.0	1880.0	1880.0	1880.0	1852.0	1852.0	1862.0	1862.0	1862.0	1877.0	1877.0	1848.0	1848.0	1848.0	1865.0	1865.0	1852.0	1852.0	1852.0	1854.0	1854.0	1827.0	1827.0	1827.0	1874.0	1874.0	1866.0	1866.0	1866.0	1864.0	1864.0	1827.0	1827.0	1827.0	1841.0	1841.0	1851.0	1851.0	1851.0	1814.0	1814.0	1847.0	1847.0	1847.0	1818.0	1818.0	1821.0	1821.0	1821.0	1823.0	1823.0	1799.0	1799.0	1799.0	1803.0	1803.0	1834.0	1834.0	1834.0	1818.0	1818.0	1791.0	1791.0	1791.0	