2336.0	2336.0	2304.0	2304.0	2304.0	2295.0	2295.0	2297.0	2297.0	2297.0	2276.0	2276.0	2287.0	2287.0	2287.0	2287.0	2287.0	2226.0	2226.0	2226.0	2266.0	2266.0	2213.0	2213.0	2213.0	2234.0	2234.0	2223.0	2223.0	2223.0	2237.0	2237.0	2212.0	2212.0	2212.0	2216.0	2216.0	2184.0	2184.0	2184.0	2198.0	2198.0	2186.0	2186.0	2186.0	2170.0	2170.0	2171.0	2171.0	2171.0	2168.0	2168.0	2152.0	2152.0	2152.0	2129.0	2129.0	2116.0	2116.0	2116.0	2130.0	2130.0	2120.0	2120.0	2120.0	2110.0	2110.0	2117.0	2117.0	2117.0	2107.0	2107.0	2104.0	2104.0	2104.0	2118.0	2118.0	2091.0	2091.0	2091.0	2094.0	2094.0	2084.0	2084.0	2084.0	2076.0	2076.0	2087.0	2087.0	2087.0	2108.0	2108.0	2099.0	2099.0	2099.0	2089.0	2089.0	2053.0	2053.0	2053.0	2055.0	2055.0	2064.0	2064.0	2064.0	2073.0	2073.0	2075.0	2075.0	2075.0	2057.0	2057.0	2065.0	2065.0	2065.0	2082.0	2082.0	2074.0	2074.0	2074.0	2043.0	2043.0	2021.0	2021.0	2021.0	2044.0	2044.0	2052.0	2052.0	2052.0	2058.0	2058.0	2028.0	2028.0	2028.0	2032.0	2032.0	2027.0	2027.0	2027.0	2021.0	2021.0	2005.0	2005.0	2005.0	2044.0	2044.0	2011.0	2011.0	2011.0	2048.0	2048.0	2026.0	2026.0	2026.0	2005.0	2005.0	2038.0	2038.0	2038.0	2033.0	2033.0	2000.0	2000.0	2000.0	2017.0	2017.0	2026.0	2026.0	2026.0	2015.0	2015.0	2009.0	2009.0	2009.0	2019.0	2019.0	1989.0	1989.0	1989.0	1980.0	1980.0	1974.0	1974.0	1974.0	2009.0	2009.0	1996.0	1996.0	1996.0	2008.0	2008.0	1999.0	1999.0	1999.0	1968.0	1968.0	2000.0	2000.0	2000.0	1960.0	1960.0	1978.0	1978.0	1978.0	1992.0	1992.0	1977.0	1977.0	1949.0	1949.0	1949.0	1981.0	1981.0	1962.0	1962.0	1962.0	1973.0	1973.0	1959.0	1959.0	1959.0	1944.0	1944.0	1967.0	1967.0	1967.0	1963.0	1963.0	1942.0	1942.0	1942.0	1955.0	1955.0	1956.0	1956.0	1956.0	1928.0	1928.0	1935.0	1935.0	1935.0	1953.0	1953.0	1932.0	1932.0	1932.0	1919.0	1919.0	1919.0	1919.0	1919.0	1908.0	1908.0	1922.0	1922.0	1922.0	1915.0	1915.0	1921.0	1921.0	1921.0	1931.0	1931.0	1908.0	1908.0	1908.0	1912.0	1912.0	1900.0	1900.0	1900.0	1912.0	1912.0	1922.0	1922.0	1922.0	1895.0	1895.0	1892.0	1892.0	1892.0	1906.0	1906.0	1871.0	1871.0	1871.0	1882.0	1882.0	1908.0	1908.0	1908.0	1886.0	1886.0	1879.0	1879.0	1879.0	1868.0	1868.0	1892.0	1892.0	1892.0	1895.0	1895.0	1883.0	1883.0	1883.0	1869.0	1869.0	1857.0	1857.0	1857.0	1878.0	1878.0	1875.0	1875.0	1875.0	1872.0	1872.0	1862.0	1862.0	1862.0	1840.0	1840.0	1858.0	1858.0	1858.0	1845.0	1845.0	1862.0	1862.0	1862.0	1854.0	1854.0	1833.0	1833.0	1833.0	1855.0	1855.0	1879.0	1879.0	1879.0	1867.0	1867.0	1847.0	1847.0	1847.0	1832.0	1832.0	1851.0	1851.0	1851.0	1852.0	1852.0	1826.0	1826.0	1826.0	1832.0	1832.0	1840.0	1840.0	1840.0	1844.0	1844.0	1866.0	1866.0	1866.0	1851.0	1851.0	1841.0	1841.0	1841.0	1831.0	1831.0	1824.0	1824.0	1824.0	1826.0	1826.0	1843.0	1843.0	1843.0	1848.0	1848.0	1821.0	1821.0	1821.0	1853.0	1853.0	1864.0	1864.0	1864.0	1847.0	1847.0	1813.0	1813.0	1813.0	1822.0	1822.0	1855.0	1855.0	1855.0	1862.0	1862.0	1850.0	1850.0	1850.0	1833.0	1833.0	1810.0	1810.0	1809.0	1809.0	1809.0	1836.0	1836.0	1858.0	1858.0	1858.0	1833.0	1833.0	1817.0	1817.0	1817.0	1809.0	1809.0	1830.0	1830.0	1830.0	1851.0	1851.0	1829.0	1829.0	1829.0	1817.0	1817.0	1810.0	1810.0	1810.0	1823.0	1823.0	1836.0	1836.0	1836.0	1807.0	1807.0	1832.0	1832.0	1832.0	1820.0	1820.0	1838.0	1838.0	1838.0	1820.0	1820.0	1804.0	1804.0	1804.0	1813.0	1813.0	1815.0	1815.0	1815.0	1852.0	1852.0	1834.0	1834.0	1834.0	1835.0	1835.0	1837.0	1837.0	1837.0	1839.0	1839.0	1799.0	1799.0	1799.0	1824.0	1824.0	1838.0	1838.0	1838.0	1815.0	1815.0	1826.0	1826.0	1826.0	1833.0	1833.0	1808.0	1808.0	1808.0	1844.0	1844.0	1812.0	1812.0	1812.0	1819.0	1819.0	1816.0	1816.0	1816.0	1807.0	1807.0	1810.0	1810.0	1810.0	1813.0	1813.0	1837.0	1837.0	1837.0	1814.0	1814.0	1830.0	1830.0	1830.0	1791.0	1791.0	1833.0	1833.0	1833.0	1801.0	1801.0	1810.0	1810.0	1810.0	1819.0	1819.0	1830.0	1830.0	1830.0	1820.0	1820.0	1815.0	1815.0	1815.0	1812.0	1812.0	1846.0	1846.0	1846.0	1845.0	1845.0	1821.0	1821.0	1821.0	1869.0	1869.0	1869.0	1869.0	1869.0	1869.0	1869.0	1852.0	1852.0	1852.0	1882.0	1882.0	1878.0	1878.0	1878.0	1899.0	1899.0	1914.0	1914.0	1914.0	1941.0	1941.0	1976.0	1976.0	1976.0	1978.0	1978.0	2018.0	2018.0	2018.0	2001.0	2001.0	2041.0	2041.0	2041.0	2062.0	2062.0	2063.0	2063.0	2063.0	2115.0	2115.0	2098.0	2098.0	2098.0	2125.0	2125.0	2139.0	2139.0	2139.0	2161.0	2161.0	2204.0	2204.0	2204.0	2200.0	2200.0	2224.0	2224.0	2224.0	2231.0	2231.0	2251.0	2251.0	2285.0	2285.0	2285.0	2292.0	2292.0	2318.0	2318.0	2318.0	2336.0	2336.0	2335.0	2335.0	2335.0	2359.0	2359.0	2357.0	2357.0	2357.0	2371.0	2371.0	2390.0	2390.0	2390.0	2397.0	2397.0	2424.0	2424.0	2424.0	2431.0	2431.0	2454.0	2454.0	2454.0	2435.0	2435.0	2464.0	2464.0	2464.0	2447.0	2447.0	2474.0	2474.0	2474.0	2454.0	2454.0	2483.0	2483.0	2483.0	2496.0	2496.0	2474.0	2474.0	2474.0	2484.0	2484.0	2478.0	2478.0	2478.0	2513.0	2513.0	2488.0	2488.0	2488.0	2519.0	2519.0	2526.0	2526.0	2526.0	2503.0	2503.0	2503.0	2503.0	2503.0	2516.0	2516.0	2537.0	2537.0	2537.0	2524.0	2524.0	2541.0	2541.0	2541.0	2515.0	2515.0	2523.0	2523.0	2523.0	2547.0	2547.0	2516.0	2516.0	2516.0	2538.0	2538.0	2533.0	2533.0	2533.0	2542.0	2542.0	2516.0	2516.0	2516.0	2539.0	2539.0	2531.0	2531.0	2531.0	2521.0	2521.0	2522.0	2522.0	2522.0	2504.0	2504.0	2527.0	2527.0	2527.0	2505.0	2505.0	2488.0	2488.0	2488.0	2490.0	2490.0	2491.0	2491.0	2491.0	2500.0	2500.0	2487.0	2487.0	2487.0	2480.0	2480.0	2473.0	2473.0	2473.0	2491.0	2491.0	2468.0	2468.0	2468.0	2491.0	2491.0	2471.0	2471.0	2471.0	2473.0	2473.0	2459.0	2459.0	2459.0	2476.0	2476.0	2442.0	2442.0	2442.0	2431.0	2431.0	2438.0	2438.0	2438.0	2428.0	2428.0	2425.0	2425.0	2425.0	2418.0	2418.0	2420.0	2420.0	2420.0	2384.0	2384.0	2414.0	2414.0	2414.0	2403.0	2403.0	2385.0	2385.0	2385.0	2370.0	2370.0	2380.0	2380.0	2380.0	2359.0	2359.0	2345.0	2345.0	2345.0	2339.0	2339.0	2347.0	2347.0	2347.0	2343.0	2343.0	2289.0	2289.0	2289.0	2294.0	2294.0	2319.0	2319.0	2315.0	2315.0	2315.0	2310.0	2310.0	2261.0	2261.0	2261.0	2276.0	2276.0	2278.0	2278.0	2278.0	2247.0	2247.0	2244.0	2244.0	2244.0	2207.0	2207.0	2219.0	2219.0	2219.0	2213.0	2213.0	2219.0	2219.0	2219.0	2212.0	2212.0	2205.0	2205.0	2205.0	2158.0	2158.0	2168.0	2168.0	2168.0	2164.0	2164.0	2154.0	2154.0	2154.0	2138.0	2138.0	2139.0	2139.0	2139.0	2133.0	2133.0	2108.0	2108.0	2108.0	2134.0	2134.0	2096.0	2096.0	2096.0	2101.0	2101.0	2117.0	2117.0	2117.0	2076.0	2076.0	2108.0	2108.0	2108.0	2076.0	2076.0	2076.0	2076.0	2076.0	2071.0	2071.0	2094.0	2094.0	2094.0	2074.0	2074.0	2084.0	2084.0	2084.0	2072.0	2072.0	2056.0	2056.0	2056.0	2052.0	2052.0	2058.0	2058.0	2058.0	2047.0	2047.0	2046.0	2046.0	2046.0	2055.0	2055.0	2033.0	2033.0	2033.0	2044.0	2044.0	2030.0	2030.0	2030.0	2030.0	2030.0	2023.0	2023.0	2023.0	2039.0	2039.0	2039.0	2039.0	2039.0	2023.0	2023.0	2031.0	2031.0	2031.0	2011.0	2011.0	2021.0	2021.0	2021.0	2030.0	2030.0	2032.0	2032.0	2032.0	2029.0	2029.0	2015.0	2015.0	2015.0	1996.0	1996.0	2014.0	2014.0	2014.0	2001.0	2001.0	1998.0	1998.0	1998.0	2005.0	2005.0	2027.0	2027.0	2027.0	2025.0	2025.0	1989.0	1989.0	1989.0	1984.0	1984.0	1991.0	1991.0	1991.0	1994.0	1994.0	2000.0	2000.0	2000.0	1994.0	1994.0	1988.0	1988.0	1988.0	1971.0	1971.0	2001.0	2001.0	2001.0	1987.0	1987.0	1971.0	1971.0	1971.0	1961.0	1961.0	1958.0	1958.0	1958.0	1995.0	1995.0	1958.0	1958.0	1958.0	1972.0	1972.0	1975.0	1975.0	1975.0	1945.0	1945.0	1966.0	1966.0	1934.0	1934.0	1934.0	1945.0	1945.0	1966.0	1966.0	1966.0	1967.0	1967.0	1937.0	1937.0	1937.0	1930.0	1930.0	1935.0	1935.0	1935.0	1953.0	1953.0	1960.0	1960.0	1960.0	1922.0	1922.0	1911.0	1911.0	1911.0	1923.0	1923.0	1901.0	1901.0	1901.0	1908.0	1908.0	1911.0	1911.0	1911.0	1900.0	1900.0	1889.0	1889.0	1889.0	1924.0	1924.0	1917.0	1917.0	1917.0	1930.0	1930.0	1918.0	1918.0	1918.0	1887.0	1887.0	1904.0	1904.0	1904.0	1881.0	1881.0	1881.0	1881.0	1881.0	1901.0	1901.0	1897.0	1897.0	1897.0	1878.0	1878.0	1883.0	1883.0	1883.0	1888.0	1888.0	1864.0	1864.0	1864.0	1879.0	1879.0	1883.0	1883.0	1883.0	1866.0	1866.0	1879.0	1879.0	1879.0	1870.0	1870.0	1863.0	1863.0	1863.0	1872.0	1872.0	1845.0	1845.0	1845.0	1850.0	1850.0	1846.0	1846.0	1846.0	1863.0	1863.0	1857.0	1857.0	1857.0	1837.0	1837.0	1841.0	1841.0	1841.0	1856.0	1856.0	1859.0	1859.0	1859.0	1846.0	1846.0	1823.0	1823.0	1823.0	1837.0	1837.0	1823.0	1823.0	1823.0	1850.0	1850.0	1851.0	1851.0	1851.0	1871.0	1871.0	1818.0	1818.0	1818.0	1852.0	1852.0	1842.0	1842.0	1842.0	1842.0	1842.0	1854.0	1854.0	1854.0	1831.0	1831.0	1826.0	1826.0	1826.0	1844.0	1844.0	1837.0	1837.0	1837.0	1828.0	1828.0	1830.0	1830.0	1830.0	1831.0	1831.0	1794.0	1794.0	1794.0	1817.0	1817.0	1816.0	1816.0	1816.0	1831.0	1831.0	1832.0	1832.0	1832.0	1826.0	1826.0	1820.0	1820.0	1820.0	1808.0	1808.0	1813.0	1813.0	1813.0	1832.0	1832.0	1832.0	1832.0	1832.0	1813.0	1813.0	1834.0	1834.0	1834.0	1814.0	1814.0	1816.0	1816.0	1810.0	1810.0	1810.0	1806.0	1806.0	1795.0	1795.0	1795.0	1833.0	1833.0	1807.0	1807.0	1807.0	1798.0	1798.0	1831.0	1831.0	1831.0	1819.0	1819.0	1792.0	1792.0	1792.0	1791.0	1791.0	1831.0	1831.0	1831.0	1793.0	1793.0	1810.0	1810.0	1810.0	1798.0	1798.0	1807.0	1807.0	1807.0	1798.0	1798.0	1809.0	1809.0	1809.0	1815.0	1815.0	1815.0	1815.0	1815.0	1783.0	1783.0	1779.0	1779.0	1779.0	1792.0	1792.0	1793.0	1793.0	1793.0	1806.0	1806.0	1777.0	1777.0	1777.0	1793.0	1793.0	1820.0	1820.0	1820.0	1779.0	1779.0	1777.0	1777.0	1777.0	1807.0	1807.0	1818.0	1818.0	1818.0	1794.0	1794.0	1775.0	1775.0	1775.0	1803.0	1803.0	1783.0	1783.0	1783.0	1811.0	1811.0	1797.0	1797.0	1797.0	1804.0	1804.0	1796.0	1796.0	1796.0	1778.0	1778.0	1802.0	1802.0	1802.0	1811.0	1811.0	1818.0	1818.0	1818.0	1788.0	1788.0	1799.0	1799.0	1799.0	1806.0	1806.0	1789.0	1789.0	1789.0	1803.0	1803.0	1795.0	1795.0	1795.0	1819.0	1819.0	1793.0	1793.0	1793.0	1832.0	1832.0	1838.0	1838.0	1838.0	1806.0	1806.0	1856.0	1856.0	1856.0	1835.0	1835.0	1873.0	1873.0	1873.0	1871.0	1871.0	1863.0	1863.0	1863.0	1895.0	1895.0	1916.0	1916.0	1916.0	1910.0	1910.0	1967.0	1967.0	1967.0	1959.0	1959.0	1974.0	1974.0	1974.0	1978.0	1978.0	2022.0	2022.0	2022.0	2031.0	2031.0	2074.0	2074.0	2074.0	2060.0	2060.0	2094.0	2094.0	2094.0	2111.0	2111.0	2118.0	2118.0	2118.0	2138.0	2138.0	2179.0	2179.0	2179.0	2173.0	2173.0	2217.0	2217.0	2217.0	2207.0	2207.0	2245.0	2245.0	2245.0	2258.0	2258.0	2276.0	2276.0	2276.0	2284.0	2284.0	2291.0	2291.0	2300.0	2300.0	2300.0	2347.0	2347.0	2324.0	2324.0	2324.0	2364.0	2364.0	2366.0	2366.0	2366.0	2374.0	2374.0	2385.0	2385.0	2385.0	2385.0	2385.0	2410.0	2410.0	2410.0	2428.0	2428.0	2395.0	2395.0	2395.0	2418.0	2418.0	2430.0	2430.0	2430.0	2453.0	2453.0	2438.0	2438.0	2438.0	2458.0	2458.0	2462.0	2462.0	2462.0	2471.0	2471.0	2462.0	2462.0	2462.0	2458.0	2458.0	2495.0	2495.0	2495.0	2490.0	2490.0	2473.0	2473.0	2473.0	2467.0	2467.0	2465.0	2465.0	2465.0	2489.0	2489.0	2519.0	2519.0	2519.0	2507.0	2507.0	2492.0	2492.0	2492.0	2475.0	2475.0	2509.0	2509.0	2509.0	2501.0	2501.0	2514.0	2514.0	2514.0	2511.0	2511.0	2502.0	2502.0	2502.0	2485.0	2485.0	2481.0	2481.0	2481.0	2488.0	2488.0	2489.0	2489.0	2489.0	2491.0	2491.0	2492.0	2492.0	2492.0	2500.0	2500.0	2486.0	2486.0	2486.0	2459.0	2459.0	2454.0	2454.0	2454.0	2479.0	2479.0	2453.0	2453.0	2453.0	2463.0	2463.0	2461.0	2461.0	2461.0	2471.0	2471.0	2455.0	2455.0	2455.0	2460.0	2460.0	2436.0	2436.0	2436.0	2427.0	2427.0	2419.0	2419.0	2419.0	2456.0	2456.0	2408.0	2408.0	2408.0	2438.0	2438.0	2409.0	2409.0	2409.0	2432.0	2432.0	2401.0	2401.0	2401.0	2392.0	2392.0	2379.0	2379.0	2379.0	2397.0	2397.0	2395.0	2395.0	2395.0	2369.0	2369.0	2366.0	2366.0	2366.0	2356.0	2356.0	2359.0	2359.0	2359.0	2345.0	2345.0	2326.0	2326.0	2326.0	2342.0	2342.0	2297.0	2297.0	2297.0	2307.0	2307.0	2293.0	2293.0	2293.0	2279.0	2279.0	2298.0	2298.0	2298.0	2285.0	2285.0	2249.0	2249.0	2249.0	2286.0	2286.0	2261.0	2261.0	2239.0	2239.0	2239.0	2223.0	2223.0	2243.0	2243.0	2243.0	2217.0	2217.0	2220.0	2220.0	2220.0	2202.0	2202.0	2200.0	2200.0	2200.0	2186.0	2186.0	2162.0	2162.0	2162.0	2188.0	2188.0	2142.0	2142.0	2142.0	2152.0	2152.0	2173.0	2173.0	2173.0	2141.0	2141.0	2124.0	2124.0	2124.0	2126.0	2126.0	2103.0	2103.0	2103.0	2102.0	2102.0	2092.0	2092.0	2092.0	2079.0	2079.0	2090.0	2090.0	2090.0	2110.0	2110.0	2085.0	2085.0	2085.0	2094.0	2094.0	2089.0	2089.0	2089.0	2099.0	2099.0	2090.0	2090.0	2090.0	2095.0	2095.0	2093.0	2093.0	2093.0	2080.0	2080.0	2062.0	2062.0	2062.0	2046.0	2046.0	2038.0	2038.0	2038.0	2071.0	2071.0	2059.0	2059.0	2059.0	2039.0	2039.0	2048.0	2048.0	2048.0	2057.0	2057.0	2055.0	2055.0	2055.0	2066.0	2066.0	2043.0	2043.0	2043.0	2022.0	2022.0	2035.0	2035.0	2035.0	2028.0	2028.0	2030.0	2030.0	2030.0	2045.0	2045.0	2042.0	2042.0	2042.0	2046.0	2046.0	2031.0	2031.0	2031.0	2002.0	2002.0	2030.0	2030.0	2030.0	2002.0	2002.0	2032.0	2032.0	2032.0	2032.0	2032.0	2010.0	2010.0	2010.0	2029.0	2029.0	2017.0	2017.0	2017.0	2013.0	2013.0	1997.0	1997.0	1997.0	2025.0	2025.0	1994.0	1994.0	1994.0	2031.0	2031.0	2006.0	2006.0	2006.0	2012.0	2012.0	2005.0	2005.0	2005.0	1985.0	1985.0	2007.0	2007.0	2007.0	1981.0	1981.0	1992.0	1992.0	1992.0	1977.0	1977.0	2003.0	2003.0	2003.0	1979.0	1979.0	1978.0	1978.0	1978.0	2005.0	2005.0	1997.0	1997.0	1997.0	1971.0	1971.0	1977.0	1977.0	1977.0	1952.0	1952.0	1984.0	1984.0	1984.0	1939.0	1939.0	1962.0	1962.0	1962.0	1981.0	1981.0	1944.0	1944.0	1951.0	1951.0	1951.0	1955.0	1955.0	1967.0	1967.0	1967.0	1950.0	1950.0	1947.0	1947.0	1947.0	1931.0	1931.0	1950.0	1950.0	1950.0	1930.0	1930.0	1929.0	1929.0	1929.0	1924.0	1924.0	1930.0	1930.0	1930.0	1936.0	1936.0	1920.0	1920.0	1920.0	1935.0	1935.0	1901.0	1901.0	1901.0	1897.0	1897.0	1921.0	1921.0	1921.0	1909.0	1909.0	1926.0	1926.0	1926.0	1930.0	1930.0	1891.0	1891.0	1891.0	1895.0	1895.0	1911.0	1911.0	1911.0	1886.0	1886.0	1875.0	1875.0	1875.0	1895.0	1895.0	1870.0	1870.0	1870.0	1891.0	1891.0	1882.0	1882.0	1882.0	1871.0	1871.0	1862.0	1862.0	1862.0	1893.0	1893.0	1860.0	1860.0	1860.0	1851.0	1851.0	1865.0	1865.0	1865.0	1881.0	1881.0	1863.0	1863.0	1863.0	1857.0	1857.0	1870.0	1870.0	1870.0	1869.0	1869.0	1853.0	1853.0	1853.0	1869.0	1869.0	1864.0	1864.0	1864.0	1843.0	1843.0	1839.0	1839.0	1839.0	1856.0	1856.0	1858.0	1858.0	1858.0	1887.0	1887.0	1828.0	1828.0	1828.0	1855.0	1855.0	1847.0	1847.0	1847.0	1864.0	1864.0	1846.0	1846.0	1846.0	1835.0	1835.0	1865.0	1865.0	1865.0	1846.0	1846.0	1861.0	1861.0	1861.0	1817.0	1817.0	1830.0	1830.0	1830.0	1846.0	1846.0	1835.0	1835.0	1835.0	1827.0	1827.0	1834.0	1834.0	1834.0	1841.0	1841.0	1830.0	1830.0	1830.0	1853.0	1853.0	1844.0	1844.0	1844.0	1831.0	1831.0	1836.0	1836.0	1836.0	1839.0	1839.0	1833.0	1833.0	1833.0	1832.0	1832.0	1817.0	1817.0	1817.0	1807.0	1807.0	1810.0	1810.0	1810.0	1852.0	1852.0	1832.0	1832.0	1832.0	1829.0	1829.0	1837.0	1837.0	1837.0	1808.0	1808.0	1807.0	1807.0	1813.0	1813.0	1813.0	1829.0	1829.0	1816.0	1816.0	1816.0	1814.0	1814.0	1821.0	1821.0	1821.0	1823.0	1823.0	1810.0	1810.0	1810.0	1830.0	1830.0	1830.0	1830.0	1830.0	1816.0	1816.0	1838.0	1838.0	1838.0	1795.0	1795.0	1809.0	1809.0	1809.0	1825.0	1825.0	1808.0	1808.0	1808.0	1809.0	1809.0	1806.0	1806.0	1806.0	1802.0	1802.0	1815.0	1815.0	1815.0	1804.0	1804.0	1818.0	1818.0	1818.0	1814.0	1814.0	1819.0	1819.0	1819.0	