1839.0	1839.0	1807.0	1807.0	1765.0	1765.0	1765.0	1743.0	1743.0	1713.0	1713.0	1713.0	1670.0	1670.0	1657.0	1657.0	1657.0	1629.0	1629.0	1666.0	1666.0	1666.0	1650.0	1650.0	1638.0	1638.0	1638.0	1614.0	1614.0	1612.0	1612.0	1612.0	1626.0	1626.0	1648.0	1648.0	1648.0	1635.0	1635.0	1636.0	1636.0	1636.0	1606.0	1606.0	1606.0	1606.0	1606.0	1650.0	1650.0	1659.0	1659.0	1659.0	1636.0	1636.0	1641.0	1641.0	1641.0	1613.0	1613.0	1653.0	1653.0	1653.0	1641.0	1641.0	1635.0	1635.0	1635.0	1671.0	1671.0	1647.0	1647.0	1647.0	1643.0	1643.0	1666.0	1666.0	1666.0	1672.0	1672.0	1654.0	1654.0	1654.0	1678.0	1678.0	1674.0	1674.0	1674.0	1678.0	1678.0	1675.0	1675.0	1675.0	1646.0	1646.0	1649.0	1649.0	1649.0	1696.0	1696.0	1662.0	1662.0	1662.0	1689.0	1689.0	1682.0	1682.0	1682.0	1676.0	1676.0	1667.0	1667.0	1667.0	1672.0	1672.0	1689.0	1689.0	1689.0	1667.0	1667.0	1701.0	1701.0	1701.0	1716.0	1716.0	1679.0	1679.0	1679.0	1697.0	1697.0	1703.0	1703.0	1703.0	1706.0	1706.0	1674.0	1674.0	1674.0	1716.0	1716.0	1735.0	1735.0	1735.0	1730.0	1730.0	1719.0	1719.0	1719.0	1715.0	1715.0	1738.0	1738.0	1738.0	1743.0	1743.0	1702.0	1702.0	1702.0	1726.0	1726.0	1713.0	1713.0	1713.0	1699.0	1699.0	1724.0	1724.0	1724.0	1722.0	1722.0	1724.0	1724.0	1724.0	1738.0	1738.0	1723.0	1723.0	1723.0	1735.0	1735.0	1739.0	1739.0	1739.0	1708.0	1708.0	1709.0	1709.0	1709.0	1712.0	1712.0	1721.0	1721.0	1721.0	1755.0	1755.0	1720.0	1720.0	1720.0	1711.0	1711.0	1722.0	1722.0	1722.0	1758.0	1758.0	1743.0	1743.0	1717.0	1717.0	1717.0	1723.0	1723.0	1762.0	1762.0	1762.0	1742.0	1742.0	1773.0	1773.0	1773.0	1768.0	1768.0	1778.0	1778.0	1778.0	1774.0	1774.0	1737.0	1737.0	1737.0	1771.0	1771.0	1771.0	1771.0	1771.0	1749.0	1749.0	1740.0	1740.0	1740.0	1763.0	1763.0	1767.0	1767.0	1767.0	1757.0	1757.0	1768.0	1768.0	1768.0	1764.0	1764.0	1778.0	1778.0	1778.0	1763.0	1763.0	1751.0	1751.0	1751.0	1764.0	1764.0	1766.0	1766.0	1766.0	1753.0	1753.0	1774.0	1774.0	1774.0	1773.0	1773.0	1760.0	1760.0	1760.0	1784.0	1784.0	1764.0	1764.0	1764.0	1756.0	1756.0	1778.0	1778.0	1778.0	1796.0	1796.0	1782.0	1782.0	1782.0	1762.0	1762.0	1752.0	1752.0	1752.0	1787.0	1787.0	1755.0	1755.0	1755.0	1781.0	1781.0	1781.0	1781.0	1781.0	1779.0	1779.0	1775.0	1775.0	1775.0	1797.0	1797.0	1771.0	1771.0	1771.0	1754.0	1754.0	1802.0	1802.0	1802.0	1761.0	1761.0	1774.0	1774.0	1774.0	1771.0	1771.0	1758.0	1758.0	1758.0	1786.0	1786.0	1773.0	1773.0	1773.0	1782.0	1782.0	1769.0	1769.0	1769.0	1785.0	1785.0	1769.0	1769.0	1769.0	1775.0	1775.0	1787.0	1787.0	1787.0	1772.0	1772.0	1772.0	1772.0	1772.0	1767.0	1767.0	1772.0	1772.0	1772.0	1799.0	1799.0	1813.0	1813.0	1813.0	1795.0	1795.0	1796.0	1796.0	1796.0	1794.0	1794.0	1783.0	1783.0	1783.0	1775.0	1775.0	1766.0	1766.0	1766.0	1794.0	1794.0	1781.0	1781.0	1781.0	1787.0	1787.0	1781.0	1781.0	1781.0	1790.0	1790.0	1804.0	1804.0	1804.0	1804.0	1804.0	1788.0	1788.0	1788.0	1772.0	1772.0	1825.0	1825.0	1825.0	1776.0	1776.0	1803.0	1803.0	1782.0	1782.0	1782.0	1831.0	1831.0	1822.0	1822.0	1822.0	1796.0	1796.0	1814.0	1814.0	1814.0	1831.0	1831.0	1803.0	1803.0	1803.0	1790.0	1790.0	1825.0	1825.0	1825.0	1810.0	1810.0	1819.0	1819.0	1819.0	1796.0	1796.0	1827.0	1827.0	1827.0	1786.0	1786.0	1806.0	1806.0	1806.0	1824.0	1824.0	1804.0	1804.0	1804.0	1789.0	1789.0	1811.0	1811.0	1811.0	1842.0	1842.0	1842.0	1842.0	1842.0	1844.0	1844.0	1830.0	1830.0	1830.0	1803.0	1803.0	1846.0	1846.0	1846.0	1843.0	1843.0	1820.0	1820.0	1820.0	1842.0	1842.0	1809.0	1809.0	1809.0	1833.0	1833.0	1819.0	1819.0	1819.0	1876.0	1876.0	1863.0	1863.0	1863.0	1877.0	1877.0	1865.0	1865.0	1865.0	1864.0	1864.0	1869.0	1869.0	1869.0	1884.0	1884.0	1914.0	1914.0	1914.0	1916.0	1916.0	1897.0	1897.0	1897.0	1916.0	1916.0	1959.0	1959.0	1959.0	1951.0	1951.0	1980.0	1980.0	1980.0	1941.0	1941.0	1945.0	1945.0	1945.0	1973.0	1973.0	1963.0	1963.0	1963.0	2002.0	2002.0	2004.0	2004.0	2004.0	1983.0	1983.0	2011.0	2011.0	2011.0	1991.0	1991.0	2013.0	2013.0	2013.0	2017.0	2017.0	2024.0	2024.0	2024.0	2020.0	2020.0	2049.0	2049.0	2049.0	2048.0	2048.0	2056.0	2056.0	2056.0	2040.0	2040.0	2053.0	2053.0	2053.0	2033.0	2033.0	2041.0	2041.0	2041.0	2054.0	2054.0	2048.0	2048.0	2048.0	2064.0	2064.0	2087.0	2087.0	2087.0	2059.0	2059.0	2053.0	2053.0	2053.0	2086.0	2086.0	2087.0	2087.0	2087.0	2065.0	2065.0	2090.0	2090.0	2090.0	2107.0	2107.0	2101.0	2101.0	2101.0	2074.0	2074.0	2086.0	2086.0	2086.0	2074.0	2074.0	2091.0	2091.0	2091.0	2086.0	2086.0	2095.0	2095.0	2087.0	2087.0	2087.0	2068.0	2068.0	2094.0	2094.0	2094.0	2118.0	2118.0	2110.0	2110.0	2110.0	2120.0	2120.0	2098.0	2098.0	2098.0	2094.0	2094.0	2114.0	2114.0	2114.0	2131.0	2131.0	2089.0	2089.0	2089.0	2094.0	2094.0	2090.0	2090.0	2090.0	2120.0	2120.0	2127.0	2127.0	2127.0	2142.0	2142.0	2156.0	2156.0	2156.0	2123.0	2123.0	2124.0	2124.0	2124.0	2098.0	2098.0	2102.0	2102.0	2102.0	2137.0	2137.0	2114.0	2114.0	2114.0	2132.0	2132.0	2128.0	2128.0	2128.0	2136.0	2136.0	2127.0	2127.0	2127.0	2116.0	2116.0	2115.0	2115.0	2115.0	2105.0	2105.0	2111.0	2111.0	2111.0	2119.0	2119.0	2128.0	2128.0	2128.0	2127.0	2127.0	2115.0	2115.0	2115.0	2114.0	2114.0	2115.0	2115.0	2115.0	2089.0	2089.0	2105.0	2105.0	2105.0	2136.0	2136.0	2103.0	2103.0	2103.0	2127.0	2127.0	2102.0	2102.0	2102.0	2087.0	2087.0	2114.0	2114.0	2114.0	2095.0	2095.0	2108.0	2108.0	2108.0	2088.0	2088.0	2079.0	2079.0	2079.0	2116.0	2116.0	2099.0	2099.0	2099.0	2095.0	2095.0	2094.0	2094.0	2094.0	2103.0	2103.0	2100.0	2100.0	2100.0	2085.0	2085.0	2064.0	2064.0	2064.0	2083.0	2083.0	2086.0	2086.0	2086.0	2071.0	2071.0	2070.0	2070.0	2070.0	2095.0	2095.0	2086.0	2086.0	2086.0	2082.0	2082.0	2072.0	2072.0	2072.0	2059.0	2059.0	2055.0	2055.0	2055.0	2047.0	2047.0	2069.0	2069.0	2069.0	2032.0	2032.0	2022.0	2022.0	2022.0	2036.0	2036.0	2030.0	2030.0	2030.0	2027.0	2027.0	2062.0	2062.0	2062.0	2049.0	2049.0	2027.0	2027.0	2027.0	2030.0	2030.0	2046.0	2046.0	2046.0	2020.0	2020.0	2038.0	2038.0	2018.0	2018.0	2018.0	2034.0	2034.0	2038.0	2038.0	2038.0	2020.0	2020.0	2040.0	2040.0	2040.0	2016.0	2016.0	2007.0	2007.0	2007.0	2011.0	2011.0	2036.0	2036.0	2036.0	2033.0	2033.0	2001.0	2001.0	2001.0	2010.0	2010.0	2005.0	2005.0	2005.0	2023.0	2023.0	1990.0	1990.0	1990.0	1999.0	1999.0	2007.0	2007.0	2007.0	2014.0	2014.0	2029.0	2029.0	2029.0	2011.0	2011.0	1985.0	1985.0	1985.0	2001.0	2001.0	2013.0	2013.0	2013.0	1989.0	1989.0	2012.0	2012.0	2012.0	2024.0	2024.0	2012.0	2012.0	2012.0	2001.0	2001.0	1983.0	1983.0	1983.0	2001.0	2001.0	1982.0	1982.0	1982.0	1983.0	1983.0	1974.0	1974.0	1974.0	1963.0	1963.0	1974.0	1974.0	1974.0	1992.0	1992.0	1964.0	1964.0	1964.0	1982.0	1982.0	1977.0	1977.0	1977.0	1986.0	1986.0	1959.0	1959.0	1959.0	1999.0	1999.0	1963.0	1963.0	1963.0	1964.0	1964.0	1966.0	1966.0	1966.0	1954.0	1954.0	1958.0	1958.0	1958.0	1983.0	1983.0	1963.0	1963.0	1963.0	1950.0	1950.0	1984.0	1984.0	1984.0	1962.0	1962.0	1981.0	1981.0	1981.0	1981.0	1981.0	1970.0	1970.0	1970.0	1980.0	1980.0	1951.0	1951.0	1951.0	1970.0	1970.0	1975.0	1975.0	1975.0	1976.0	1976.0	1945.0	1945.0	1945.0	1954.0	1954.0	1934.0	1934.0	1934.0	1935.0	1935.0	1942.0	1942.0	1942.0	1940.0	1940.0	1950.0	1950.0	1950.0	1945.0	1945.0	1929.0	1929.0	1929.0	1964.0	1964.0	1969.0	1969.0	1969.0	1923.0	1923.0	1923.0	1923.0	1923.0	1943.0	1943.0	1934.0	1934.0	1934.0	1951.0	1951.0	1907.0	1907.0	1907.0	1958.0	1958.0	1919.0	1919.0	1919.0	1924.0	1924.0	1933.0	1933.0	1950.0	1950.0	1950.0	1936.0	1936.0	1928.0	1928.0	1928.0	1910.0	1910.0	1915.0	1915.0	1915.0	1939.0	1939.0	1931.0	1931.0	1931.0	1900.0	1900.0	1930.0	1930.0	1930.0	1914.0	1914.0	1916.0	1916.0	1916.0	1892.0	1892.0	1938.0	1938.0	1938.0	1907.0	1907.0	1921.0	1921.0	1921.0	1895.0	1895.0	1926.0	1926.0	1926.0	1939.0	1939.0	1939.0	1939.0	1939.0	1922.0	1922.0	1932.0	1932.0	1932.0	1903.0	1903.0	1907.0	1907.0	1907.0	1921.0	1921.0	1919.0	1919.0	1919.0	1909.0	1909.0	1923.0	1923.0	1923.0	1899.0	1899.0	1923.0	1923.0	1923.0	1927.0	1927.0	1926.0	1926.0	1926.0	1917.0	1917.0	1919.0	1919.0	1919.0	1911.0	1911.0	1916.0	1916.0	1916.0	1906.0	1906.0	1906.0	1906.0	1906.0	1892.0	1892.0	1886.0	1886.0	1886.0	1909.0	1909.0	1928.0	1928.0	1928.0	1930.0	1930.0	1933.0	1933.0	1933.0	1927.0	1927.0	1907.0	1907.0	1907.0	1886.0	1886.0	1893.0	1893.0	1893.0	1923.0	1923.0	1932.0	1932.0	1932.0	1897.0	1897.0	1882.0	1882.0	1882.0	1916.0	1916.0	1902.0	1902.0	1902.0	1894.0	1894.0	1922.0	1922.0	1922.0	1888.0	1888.0	1900.0	1900.0	1900.0	1890.0	1890.0	1901.0	1901.0	1901.0	1902.0	1902.0	1884.0	1884.0	1884.0	1863.0	1863.0	1874.0	1874.0	1874.0	1915.0	1915.0	1874.0	1874.0	1874.0	1901.0	1901.0	1894.0	1894.0	1894.0	1877.0	1877.0	1911.0	1911.0	1911.0	1900.0	1900.0	1888.0	1888.0	1888.0	1912.0	1912.0	1876.0	1876.0	1876.0	1888.0	1888.0	1914.0	1914.0	1914.0	1905.0	1905.0	1919.0	1919.0	1919.0	1891.0	1891.0	1904.0	1904.0	1904.0	1922.0	1922.0	1908.0	1908.0	1908.0	1891.0	1891.0	1887.0	1887.0	1886.0	1886.0	1886.0	1915.0	1915.0	1883.0	1883.0	1883.0	1900.0	1900.0	1880.0	1880.0	1880.0	1876.0	1876.0	1905.0	1905.0	1905.0	1907.0	1907.0	1934.0	1934.0	1934.0	1935.0	1935.0	1917.0	1917.0	1917.0	1917.0	1917.0	1940.0	1940.0	1940.0	1956.0	1956.0	1958.0	1958.0	1958.0	1961.0	1961.0	1942.0	1942.0	1942.0	1991.0	1991.0	2010.0	2010.0	2010.0	1962.0	1962.0	1982.0	1982.0	1982.0	2007.0	2007.0	1996.0	1996.0	1996.0	2032.0	2032.0	1999.0	1999.0	1999.0	2018.0	2018.0	2046.0	2046.0	2046.0	2043.0	2043.0	2051.0	2051.0	2051.0	2035.0	2035.0	2066.0	2066.0	2066.0	2060.0	2060.0	2098.0	2098.0	2098.0	2080.0	2080.0	2089.0	2089.0	2089.0	2079.0	2079.0	2096.0	2096.0	2096.0	2073.0	2073.0	2077.0	2077.0	2077.0	2091.0	2091.0	2087.0	2087.0	2087.0	2106.0	2106.0	2110.0	2110.0	2110.0	2094.0	2094.0	2100.0	2100.0	2100.0	2120.0	2120.0	2131.0	2131.0	2131.0	2148.0	2148.0	2135.0	2135.0	2135.0	2133.0	2133.0	2144.0	2144.0	2144.0	2120.0	2120.0	2131.0	2131.0	2131.0	2135.0	2135.0	2146.0	2146.0	2146.0	2122.0	2122.0	2137.0	2137.0	2137.0	2127.0	2127.0	2111.0	2111.0	2111.0	2149.0	2149.0	2134.0	2134.0	2134.0	2155.0	2155.0	2140.0	2140.0	2140.0	2136.0	2136.0	2129.0	2129.0	2129.0	2143.0	2143.0	2150.0	2150.0	2150.0	2136.0	2136.0	2112.0	2112.0	2112.0	2122.0	2122.0	2156.0	2156.0	2156.0	2148.0	2148.0	2130.0	2130.0	2130.0	2160.0	2160.0	2131.0	2131.0	2131.0	2158.0	2158.0	2159.0	2159.0	2159.0	2142.0	2142.0	2163.0	2163.0	2163.0	2141.0	2141.0	2145.0	2145.0	2124.0	2124.0	2124.0	2170.0	2170.0	2126.0	2126.0	2126.0	2140.0	2140.0	2154.0	2154.0	2154.0	2150.0	2150.0	2168.0	2168.0	2168.0	2134.0	2134.0	2145.0	2145.0	2145.0	2152.0	2152.0	2136.0	2136.0	2136.0	2133.0	2133.0	2152.0	2152.0	2152.0	2159.0	2159.0	2170.0	2170.0	2170.0	2152.0	2152.0	2166.0	2166.0	2166.0	2146.0	2146.0	2150.0	2150.0	2150.0	2135.0	2135.0	2132.0	2132.0	2132.0	2142.0	2142.0	2127.0	2127.0	2127.0	2118.0	2118.0	2133.0	2133.0	2133.0	2123.0	2123.0	2113.0	2113.0	2113.0	2107.0	2107.0	2154.0	2154.0	2154.0	2124.0	2124.0	2162.0	2162.0	2162.0	2140.0	2140.0	2104.0	2104.0	2104.0	2114.0	2114.0	2131.0	2131.0	2131.0	2083.0	2083.0	2093.0	2093.0	2093.0	2124.0	2124.0	2093.0	2093.0	2093.0	2116.0	2116.0	2109.0	2109.0	2109.0	2107.0	2107.0	2072.0	2072.0	2072.0	2067.0	2067.0	2070.0	2070.0	2070.0	2055.0	2055.0	2063.0	2063.0	2063.0	2047.0	2047.0	2076.0	2076.0	2076.0	2067.0	2067.0	2039.0	2039.0	2039.0	2048.0	2048.0	2059.0	2059.0	2059.0	2068.0	2068.0	2071.0	2071.0	2071.0	2040.0	2040.0	2073.0	2073.0	2073.0	2076.0	2076.0	2026.0	2026.0	2026.0	2040.0	2040.0	2060.0	2060.0	2060.0	2053.0	2053.0	2008.0	2008.0	2008.0	2042.0	2042.0	2051.0	2051.0	2051.0	2007.0	2007.0	2032.0	2032.0	2032.0	2045.0	2045.0	2054.0	2054.0	2054.0	2046.0	2046.0	2005.0	2005.0	2005.0	2027.0	2027.0	2012.0	2012.0	2012.0	2010.0	2010.0	2024.0	2024.0	2024.0	2016.0	2016.0	2033.0	2033.0	2033.0	2023.0	2023.0	2036.0	2036.0	2036.0	2009.0	2009.0	2005.0	2005.0	2021.0	2021.0	2021.0	2039.0	2039.0	1986.0	1986.0	1986.0	2012.0	2012.0	2031.0	2031.0	2031.0	2000.0	2000.0	2009.0	2009.0	2009.0	2007.0	2007.0	2020.0	2020.0	2020.0	2004.0	2004.0	1993.0	1993.0	1993.0	2019.0	2019.0	1984.0	1984.0	1984.0	1983.0	1983.0	1996.0	1996.0	1996.0	1978.0	1978.0	1980.0	1980.0	1980.0	1973.0	1973.0	1973.0	1973.0	1973.0	1997.0	1997.0	1994.0	1994.0	1994.0	1992.0	1992.0	1995.0	1995.0	1995.0	1971.0	1971.0	1967.0	1967.0	1967.0	1998.0	1998.0	1972.0	1972.0	1972.0	1980.0	1980.0	1963.0	1963.0	1963.0	1990.0	1990.0	1988.0	1988.0	1988.0	1959.0	1959.0	1981.0	1981.0	1981.0	1990.0	1990.0	1978.0	1978.0	1978.0	1958.0	1958.0	1973.0	1973.0	1973.0	1985.0	1985.0	1979.0	1979.0	1979.0	1966.0	1966.0	1969.0	1969.0	1969.0	1974.0	1974.0	1986.0	1986.0	1986.0	1932.0	1932.0	1946.0	1946.0	1946.0	1946.0	1946.0	1947.0	1947.0	1947.0	1932.0	1932.0	1971.0	1971.0	1971.0	1963.0	1963.0	1925.0	1925.0	1925.0	1955.0	1955.0	1924.0	1924.0	1924.0	1936.0	1936.0	1964.0	1964.0	1964.0	1953.0	1953.0	1943.0	1943.0	1943.0	1945.0	1945.0	1950.0	1950.0	1950.0	1918.0	1918.0	1955.0	1955.0	1955.0	1960.0	1960.0	1921.0	1921.0	1921.0	1941.0	1941.0	1956.0	1956.0	1956.0	1931.0	1931.0	1907.0	1907.0	1907.0	1949.0	1949.0	1929.0	1929.0	1929.0	1911.0	1911.0	1919.0	1919.0	1919.0	1936.0	1936.0	1929.0	1929.0	1929.0	1906.0	1906.0	1938.0	1938.0	1938.0	1917.0	1917.0	1931.0	1931.0	1931.0	1923.0	1923.0	1921.0	1921.0	1921.0	1903.0	1903.0	1912.0	1912.0	1912.0	1921.0	1921.0	1937.0	1937.0	1905.0	1905.0	1905.0	1924.0	1924.0	1903.0	1903.0	1903.0	1943.0	1943.0	1936.0	1936.0	1936.0	1910.0	1910.0	1912.0	1912.0	1912.0	1909.0	1909.0	1938.0	1938.0	1938.0	1931.0	1931.0	1937.0	1937.0	1937.0	1894.0	1894.0	1914.0	1914.0	1914.0	1924.0	1924.0	1902.0	1902.0	1902.0	1936.0	1936.0	1915.0	1915.0	1915.0	1897.0	1897.0	1892.0	1892.0	1892.0	1916.0	1916.0	1934.0	1934.0	1934.0	1937.0	1937.0	1920.0	1920.0	1920.0	1933.0	1933.0	1920.0	1920.0	1920.0	1892.0	1892.0	1914.0	1914.0	1914.0	1886.0	1886.0	1883.0	1883.0	1883.0	1895.0	1895.0	1923.0	1923.0	1923.0	1894.0	1894.0	1926.0	1926.0	1926.0	1924.0	1924.0	1900.0	1900.0	1900.0	1897.0	1897.0	1910.0	1910.0	1910.0	1913.0	1913.0	1894.0	1894.0	1894.0	1897.0	1897.0	1897.0	1897.0	1897.0	1907.0	1907.0	1886.0	1886.0	1886.0	1897.0	1897.0	1903.0	1903.0	1903.0	1899.0	1899.0	1905.0	1905.0	1905.0	1890.0	1890.0	1908.0	1908.0	1908.0	1896.0	1896.0	1904.0	1904.0	1904.0	1884.0	1884.0	1899.0	1899.0	1899.0	1915.0	1915.0	1909.0	1909.0	1909.0	1916.0	1916.0	1906.0	1906.0	1906.0	1924.0	1924.0	1926.0	1926.0	1926.0	1894.0	1894.0	1894.0	1894.0	1894.0	1884.0	1884.0	1935.0	1935.0	1935.0	1912.0	1912.0	1905.0	1905.0	1905.0	1890.0	1890.0	1901.0	1901.0	1901.0	1899.0	1899.0	1913.0	1913.0	1913.0	1926.0	1926.0	1944.0	1944.0	1944.0	1907.0	1907.0	1934.0	1934.0	1934.0	1953.0	1953.0	1955.0	1955.0	1955.0	1948.0	1948.0	1979.0	1979.0	1979.0	1970.0	1970.0	1985.0	1985.0	1985.0	2003.0	2003.0	2003.0	2003.0	1989.0	1989.0	1989.0	1999.0	1999.0	2026.0	2026.0	2026.0	2012.0	2012.0	2007.0	2007.0	2007.0	2012.0	2012.0	2006.0	2006.0	2006.0	2011.0	2011.0	2063.0	2063.0	2063.0	2056.0	2056.0	2034.0	2034.0	2034.0	2045.0	2045.0	2074.0	2074.0	2074.0	2099.0	2099.0	2064.0	2064.0	2064.0	2070.0	2070.0	2091.0	2091.0	2091.0	2075.0	2075.0	2091.0	2091.0	2091.0	2099.0	2099.0	2104.0	2104.0	2104.0	2076.0	2076.0	2092.0	2092.0	2092.0	2094.0	2094.0	2111.0	