2482.0	2482.0	2482.0	2525.0	2525.0	2496.0	2496.0	2496.0	2502.0	2502.0	2484.0	2484.0	2484.0	2486.0	2486.0	2444.0	2444.0	2444.0	2475.0	2475.0	2473.0	2473.0	2473.0	2426.0	2426.0	2430.0	2430.0	2430.0	2443.0	2443.0	2417.0	2417.0	2417.0	2435.0	2435.0	2431.0	2431.0	2431.0	2421.0	2421.0	2383.0	2383.0	2383.0	2392.0	2392.0	2352.0	2352.0	2352.0	2394.0	2394.0	2363.0	2363.0	2363.0	2371.0	2371.0	2320.0	2320.0	2320.0	2344.0	2344.0	2290.0	2290.0	2290.0	2303.0	2303.0	2298.0	2298.0	2298.0	2292.0	2292.0	2264.0	2264.0	2264.0	2274.0	2274.0	2230.0	2230.0	2230.0	2239.0	2239.0	2239.0	2239.0	2239.0	2248.0	2248.0	2235.0	2235.0	2235.0	2233.0	2233.0	2223.0	2223.0	2223.0	2212.0	2212.0	2169.0	2169.0	2169.0	2171.0	2171.0	2199.0	2199.0	2199.0	2167.0	2167.0	2182.0	2182.0	2182.0	2187.0	2187.0	2138.0	2138.0	2138.0	2162.0	2162.0	2143.0	2143.0	2143.0	2156.0	2156.0	2113.0	2113.0	2113.0	2146.0	2146.0	2138.0	2138.0	2138.0	2144.0	2144.0	2108.0	2108.0	2130.0	2130.0	2130.0	2112.0	2112.0	2123.0	2123.0	2123.0	2100.0	2100.0	2114.0	2114.0	2114.0	2117.0	2117.0	2095.0	2095.0	2095.0	2089.0	2089.0	2107.0	2107.0	2107.0	2056.0	2056.0	2085.0	2085.0	2085.0	2049.0	2049.0	2062.0	2062.0	2062.0	2072.0	2072.0	2048.0	2048.0	2048.0	2036.0	2036.0	2072.0	2072.0	2072.0	2049.0	2049.0	2068.0	2068.0	2068.0	2069.0	2069.0	2023.0	2023.0	2023.0	2059.0	2059.0	2022.0	2022.0	2022.0	2055.0	2055.0	2048.0	2048.0	2048.0	2052.0	2052.0	2053.0	2053.0	2053.0	2048.0	2048.0	2006.0	2006.0	2006.0	2006.0	2006.0	2023.0	2023.0	2023.0	2032.0	2032.0	2012.0	2012.0	2012.0	2010.0	2010.0	2019.0	2019.0	2019.0	2041.0	2041.0	2023.0	2023.0	2023.0	2010.0	2010.0	2013.0	2013.0	2013.0	2033.0	2033.0	1995.0	1995.0	1995.0	2003.0	2003.0	2013.0	2013.0	2013.0	2030.0	2030.0	1996.0	1996.0	1996.0	2040.0	2040.0	2018.0	2018.0	2018.0	1984.0	1984.0	2006.0	2006.0	2006.0	2022.0	2022.0	2043.0	2043.0	2043.0	2039.0	2039.0	2017.0	2017.0	2017.0	1965.0	1965.0	1990.0	1990.0	1990.0	2007.0	2007.0	1988.0	1988.0	1988.0	1966.0	1966.0	2021.0	2021.0	2021.0	1954.0	1954.0	1979.0	1979.0	1979.0	2000.0	2000.0	2009.0	2009.0	2009.0	1958.0	1958.0	2002.0	2002.0	2002.0	1996.0	1996.0	1967.0	1967.0	1967.0	1988.0	1988.0	1999.0	1999.0	1999.0	1956.0	1956.0	1979.0	1979.0	1979.0	1963.0	1963.0	1983.0	1983.0	1983.0	1984.0	1984.0	1935.0	1935.0	1935.0	1966.0	1966.0	1936.0	1936.0	1936.0	1926.0	1926.0	1949.0	1949.0	1949.0	1923.0	1923.0	1921.0	1921.0	1921.0	1909.0	1909.0	1900.0	1900.0	1953.0	1953.0	1953.0	1943.0	1943.0	1927.0	1927.0	1927.0	1884.0	1884.0	1901.0	1901.0	1901.0	1888.0	1888.0	1887.0	1887.0	1887.0	1890.0	1890.0	1906.0	1906.0	1906.0	1911.0	1911.0	1871.0	1871.0	1871.0	1922.0	1922.0	1879.0	1879.0	1879.0	1864.0	1864.0	1925.0	1925.0	1925.0	1909.0	1909.0	1909.0	1909.0	1909.0	1861.0	1861.0	1906.0	1906.0	1906.0	1892.0	1892.0	1883.0	1883.0	1883.0	1894.0	1894.0	1902.0	1902.0	1902.0	1880.0	1880.0	1867.0	1867.0	1867.0	1897.0	1897.0	1840.0	1840.0	1840.0	1856.0	1856.0	1857.0	1857.0	1857.0	1841.0	1841.0	1860.0	1860.0	1860.0	1854.0	1854.0	1838.0	1838.0	1838.0	1853.0	1853.0	1882.0	1882.0	1882.0	1853.0	1853.0	1888.0	1888.0	1888.0	1843.0	1843.0	1880.0	1880.0	1880.0	1845.0	1845.0	1838.0	1838.0	1838.0	1843.0	1843.0	1828.0	1828.0	1828.0	1827.0	1827.0	1871.0	1871.0	1871.0	1834.0	1834.0	1825.0	1825.0	1825.0	1838.0	1838.0	1839.0	1839.0	1839.0	1825.0	1825.0	1830.0	1830.0	1830.0	1871.0	1871.0	1853.0	1853.0	1853.0	1847.0	1847.0	1856.0	1856.0	1856.0	1858.0	1858.0	1845.0	1845.0	1845.0	1835.0	1835.0	1816.0	1816.0	1816.0	1838.0	1838.0	1845.0	1845.0	1845.0	1813.0	1813.0	1838.0	1838.0	1838.0	1822.0	1822.0	1801.0	1801.0	1801.0	1816.0	1816.0	1823.0	1823.0	1823.0	1809.0	1809.0	1799.0	1799.0	1799.0	1822.0	1822.0	1798.0	1798.0	1798.0	1811.0	1811.0	1799.0	1799.0	1799.0	1829.0	1829.0	1814.0	1814.0	1814.0	1775.0	1775.0	1804.0	1804.0	1804.0	1838.0	1838.0	1827.0	1827.0	1827.0	1788.0	1788.0	1804.0	1804.0	1800.0	1800.0	1800.0	1792.0	1792.0	1798.0	1798.0	1798.0	1847.0	1847.0	1845.0	1845.0	1845.0	1867.0	1867.0	1864.0	1864.0	1864.0	1899.0	1899.0	1871.0	1871.0	1871.0	1904.0	1904.0	1912.0	1912.0	1912.0	1960.0	1960.0	1967.0	1967.0	1967.0	1962.0	1962.0	1991.0	1991.0	1991.0	2019.0	2019.0	2074.0	2074.0	2074.0	2090.0	2090.0	2080.0	2080.0	2080.0	2103.0	2103.0	2135.0	2135.0	2135.0	2174.0	2174.0	2154.0	2154.0	2154.0	2213.0	2213.0	2215.0	2215.0	2215.0	2272.0	2272.0	2287.0	2287.0	2287.0	2294.0	2294.0	2284.0	2284.0	2284.0	2316.0	2316.0	2330.0	2330.0	2330.0	2333.0	2333.0	2397.0	2397.0	2397.0	2377.0	2377.0	2386.0	2386.0	2386.0	2444.0	2444.0	2451.0	2451.0	2451.0	2496.0	2496.0	2466.0	2466.0	2466.0	2483.0	2483.0	2487.0	2487.0	2487.0	2534.0	2534.0	2554.0	2554.0	2554.0	2527.0	2527.0	2529.0	2529.0	2529.0	2578.0	2578.0	2535.0	2535.0	2535.0	2564.0	2564.0	2599.0	2599.0	2599.0	2587.0	2587.0	2611.0	2611.0	2611.0	2624.0	2624.0	2580.0	2580.0	2580.0	2616.0	2616.0	2579.0	2579.0	2579.0	2591.0	2591.0	2620.0	2620.0	2620.0	2628.0	2628.0	2646.0	2646.0	2646.0	2645.0	2645.0	2615.0	2615.0	2615.0	2594.0	2594.0	2644.0	2644.0	2644.0	2616.0	2616.0	2635.0	2635.0	2635.0	2624.0	2624.0	2612.0	2612.0	2612.0	2630.0	2630.0	2637.0	2637.0	2637.0	2594.0	2594.0	2578.0	2578.0	2578.0	2621.0	2621.0	2619.0	2619.0	2619.0	2616.0	2616.0	2593.0	2593.0	2593.0	2585.0	2585.0	2549.0	2549.0	2549.0	2584.0	2584.0	2559.0	2559.0	2559.0	2579.0	2579.0	2541.0	2541.0	2574.0	2574.0	2574.0	2527.0	2527.0	2523.0	2523.0	2523.0	2544.0	2544.0	2515.0	2515.0	2515.0	2513.0	2513.0	2490.0	2490.0	2490.0	2504.0	2504.0	2474.0	2474.0	2474.0	2472.0	2472.0	2454.0	2454.0	2454.0	2481.0	2481.0	2435.0	2435.0	2435.0	2417.0	2417.0	2420.0	2420.0	2420.0	2424.0	2424.0	2417.0	2417.0	2417.0	2411.0	2411.0	2421.0	2421.0	2421.0	2399.0	2399.0	2390.0	2390.0	2390.0	2364.0	2364.0	2378.0	2378.0	2378.0	2376.0	2376.0	2345.0	2345.0	2345.0	2305.0	2305.0	2341.0	2341.0	2341.0	2329.0	2329.0	2274.0	2274.0	2274.0	2274.0	2274.0	2294.0	2294.0	2294.0	2311.0	2311.0	2242.0	2242.0	2242.0	2281.0	2281.0	2229.0	2229.0	2229.0	2233.0	2233.0	2219.0	2219.0	2219.0	2195.0	2195.0	2211.0	2211.0	2211.0	2224.0	2224.0	2205.0	2205.0	2205.0	2209.0	2209.0	2173.0	2173.0	2173.0	2192.0	2192.0	2202.0	2202.0	2202.0	2195.0	2195.0	2169.0	2169.0	2169.0	2146.0	2146.0	2139.0	2139.0	2139.0	2154.0	2154.0	2132.0	2132.0	2132.0	2134.0	2134.0	2153.0	2153.0	2153.0	2106.0	2106.0	2152.0	2152.0	2152.0	2083.0	2083.0	2111.0	2111.0	2111.0	2129.0	2129.0	2095.0	2095.0	2095.0	2085.0	2085.0	2080.0	2080.0	2080.0	2054.0	2054.0	2071.0	2071.0	2071.0	2092.0	2092.0	2049.0	2049.0	2049.0	2080.0	2080.0	2047.0	2047.0	2047.0	2051.0	2051.0	2034.0	2034.0	2034.0	2067.0	2067.0	2046.0	2046.0	2046.0	2058.0	2058.0	2063.0	2063.0	2063.0	2014.0	2014.0	2032.0	2032.0	2032.0	2039.0	2039.0	2026.0	2026.0	2026.0	2035.0	2035.0	1998.0	1998.0	1998.0	2003.0	2003.0	1997.0	1997.0	1997.0	2006.0	2006.0	2036.0	2036.0	2019.0	2019.0	2019.0	2010.0	2010.0	1995.0	1995.0	1995.0	1985.0	1985.0	2005.0	2005.0	2005.0	2024.0	2024.0	1968.0	1968.0	1968.0	2011.0	2011.0	2007.0	2007.0	2007.0	1959.0	1959.0	1989.0	1989.0	1989.0	1992.0	1992.0	1968.0	1968.0	1968.0	1955.0	1955.0	1956.0	1956.0	1956.0	1954.0	1954.0	1945.0	1945.0	1945.0	1981.0	1981.0	1964.0	1964.0	1964.0	1929.0	1929.0	1952.0	1952.0	1952.0	1936.0	1936.0	1932.0	1932.0	1932.0	1959.0	1959.0	1963.0	1963.0	1963.0	1938.0	1938.0	1927.0	1927.0	1927.0	1907.0	1907.0	1909.0	1909.0	1909.0	1949.0	1949.0	1941.0	1941.0	1941.0	1895.0	1895.0	1915.0	1915.0	1915.0	1896.0	1896.0	1891.0	1891.0	1891.0	1938.0	1938.0	1877.0	1877.0	1877.0	1930.0	1930.0	1923.0	1923.0	1923.0	1931.0	1931.0	1877.0	1877.0	1877.0	1887.0	1887.0	1896.0	1896.0	1896.0	1894.0	1894.0	1887.0	1887.0	1887.0	1858.0	1858.0	1884.0	1884.0	1884.0	1848.0	1848.0	1853.0	1853.0	1853.0	1877.0	1877.0	1879.0	1879.0	1879.0	1843.0	1843.0	1833.0	1833.0	1833.0	1857.0	1857.0	1828.0	1828.0	1828.0	1882.0	1882.0	1854.0	1854.0	1854.0	1871.0	1871.0	1878.0	1878.0	1878.0	1820.0	1820.0	1847.0	1847.0	1847.0	1854.0	1854.0	1878.0	1878.0	1878.0	1822.0	1822.0	1847.0	1847.0	1847.0	1824.0	1824.0	1825.0	1825.0	1825.0	1799.0	1799.0	1832.0	1832.0	1832.0	1848.0	1848.0	1804.0	1804.0	1804.0	1816.0	1816.0	1801.0	1801.0	1801.0	1796.0	1796.0	1812.0	1812.0	1812.0	1808.0	1808.0	1808.0	1808.0	1808.0	1828.0	1828.0	1790.0	1790.0	1790.0	1788.0	1788.0	1830.0	1830.0	1803.0	1803.0	1803.0	1795.0	1795.0	1803.0	1803.0	1803.0	1827.0	1827.0	1804.0	1804.0	1804.0	1802.0	1802.0	1827.0	1827.0	1827.0	1783.0	1783.0	1814.0	1814.0	1814.0	1839.0	1839.0	1789.0	1789.0	1789.0	1771.0	1771.0	1791.0	1791.0	1791.0	1795.0	1795.0	1815.0	1815.0	1815.0	1771.0	1771.0	1789.0	1789.0	1789.0	1770.0	1770.0	1781.0	1781.0	1781.0	1808.0	1808.0	1807.0	1807.0	1807.0	1820.0	1820.0	1806.0	1806.0	1806.0	1765.0	1765.0	1811.0	1811.0	1811.0	1806.0	1806.0	1788.0	1788.0	1788.0	1791.0	1791.0	1771.0	1771.0	1771.0	1784.0	1784.0	1763.0	1763.0	1763.0	1804.0	1804.0	1790.0	1790.0	1790.0	1805.0	1805.0	1778.0	1778.0	1778.0	1772.0	1772.0	1787.0	1787.0	1787.0	1766.0	1766.0	1798.0	1798.0	1798.0	1791.0	1791.0	1814.0	1814.0	1814.0	1825.0	1825.0	1836.0	1836.0	1836.0	1838.0	1838.0	1834.0	1834.0	1834.0	1819.0	1819.0	1839.0	1839.0	1839.0	1847.0	1847.0	1856.0	1856.0	1856.0	1939.0	1939.0	1898.0	1898.0	1898.0	1918.0	1918.0	1965.0	1965.0	1965.0	2018.0	2018.0	1994.0	1994.0	1994.0	2040.0	2040.0	2067.0	2067.0	2067.0	2060.0	2060.0	2085.0	2085.0	2085.0	2116.0	2116.0	2141.0	2141.0	2141.0	2182.0	2182.0	2240.0	2240.0	2240.0	2231.0	2231.0	2230.0	2230.0	2230.0	2247.0	2247.0	2265.0	2265.0	2265.0	2346.0	2346.0	2354.0	2354.0	2354.0	2338.0	2338.0	2370.0	2370.0	2370.0	2375.0	2375.0	2429.0	2429.0	2429.0	2430.0	2430.0	2407.0	2407.0	2407.0	2454.0	2454.0	2469.0	2469.0	2469.0	2495.0	2495.0	2511.0	2511.0	2511.0	2534.0	2534.0	2519.0	2519.0	2519.0	2519.0	2519.0	2545.0	2545.0	2573.0	2573.0	2573.0	2530.0	2530.0	2542.0	2542.0	2542.0	2566.0	2566.0	2602.0	2602.0	2602.0	2597.0	2597.0	2595.0	2595.0	2595.0	2582.0	2582.0	2634.0	2634.0	2634.0	2605.0	2605.0	2590.0	2590.0	2590.0	2614.0	2614.0	2611.0	2611.0	2611.0	2594.0	2594.0	2649.0	2649.0	2649.0	2625.0	2625.0	2625.0	2625.0	2625.0	2609.0	2609.0	2627.0	2627.0	2627.0	2638.0	2638.0	2622.0	2622.0	2622.0	2598.0	2598.0	2637.0	2637.0	2637.0	2637.0	2637.0	2649.0	2649.0	2649.0	2643.0	2643.0	2614.0	2614.0	2614.0	2633.0	2633.0	2618.0	2618.0	2618.0	2636.0	2636.0	2599.0	2599.0	2599.0	2605.0	2605.0	2571.0	2571.0	2571.0	2595.0	2595.0	2587.0	2587.0	2587.0	2575.0	2575.0	2541.0	2541.0	2541.0	2589.0	2589.0	2582.0	2582.0	2582.0	2572.0	2572.0	2531.0	2531.0	2531.0	2543.0	2543.0	2543.0	2543.0	2543.0	2512.0	2512.0	2504.0	2504.0	2504.0	2505.0	2505.0	2476.0	2476.0	2476.0	2470.0	2470.0	2457.0	2457.0	2457.0	2487.0	2487.0	2470.0	2470.0	2470.0	2444.0	2444.0	2419.0	2419.0	2419.0	2452.0	2452.0	2406.0	2406.0	2406.0	2420.0	2420.0	2390.0	2390.0	2390.0	2407.0	2407.0	2370.0	2370.0	2370.0	2393.0	2393.0	2331.0	2331.0	2331.0	2329.0	2329.0	2314.0	2314.0	2314.0	2345.0	2345.0	2305.0	2305.0	2305.0	2280.0	2280.0	2281.0	2281.0	2281.0	2282.0	2282.0	2277.0	2277.0	2277.0	2258.0	2258.0	2245.0	2245.0	2245.0	2258.0	2258.0	2232.0	2232.0	2232.0	2221.0	2221.0	2236.0	2236.0	2236.0	2238.0	2238.0	2173.0	2173.0	2173.0	2224.0	2224.0	2195.0	2195.0	2195.0	2169.0	2169.0	2186.0	2186.0	2182.0	2182.0	2182.0	2130.0	2130.0	2139.0	2139.0	2139.0	2154.0	2154.0	2156.0	2156.0	2156.0	2129.0	2129.0	2119.0	2119.0	2119.0	2097.0	2097.0	2136.0	2136.0	2136.0	2113.0	2113.0	2083.0	2083.0	2083.0	2096.0	2096.0	2098.0	2098.0	2098.0	2091.0	2091.0	2081.0	2081.0	2081.0	2103.0	2103.0	2085.0	2085.0	2085.0	2075.0	2075.0	2042.0	2042.0	2042.0	2054.0	2054.0	2060.0	2060.0	2060.0	2042.0	2042.0	2061.0	2061.0	2061.0	2031.0	2031.0	2029.0	2029.0	2029.0	2047.0	2047.0	2046.0	2046.0	2046.0	2025.0	2025.0	2017.0	2017.0	2017.0	2019.0	2019.0	2051.0	2051.0	2051.0	2050.0	2050.0	2021.0	2021.0	2021.0	2004.0	2004.0	2015.0	2015.0	2015.0	2026.0	2026.0	2023.0	2023.0	2023.0	2019.0	2019.0	2027.0	2027.0	2027.0	2010.0	2010.0	2008.0	2008.0	2008.0	1998.0	1998.0	2004.0	2004.0	2004.0	1996.0	1996.0	1960.0	1960.0	1960.0	2002.0	2002.0	1978.0	1978.0	1978.0	1938.0	1938.0	1939.0	1939.0	1939.0	1982.0	1982.0	1967.0	1967.0	1967.0	1948.0	1948.0	1934.0	1934.0	1934.0	1923.0	1923.0	1934.0	1934.0	1934.0	1905.0	1905.0	1914.0	1914.0	1914.0	1917.0	1917.0	1944.0	1944.0	1944.0	1915.0	1915.0	1901.0	1901.0	1901.0	1935.0	1935.0	1922.0	1922.0	1922.0	1903.0	1903.0	1877.0	1877.0	1877.0	1926.0	1926.0	1902.0	1902.0	1902.0	1883.0	1883.0	1917.0	1917.0	1917.0	1867.0	1867.0	1859.0	1859.0	1859.0	1880.0	1880.0	1876.0	1876.0	1876.0	1861.0	1861.0	1896.0	1896.0	1896.0	1857.0	1857.0	1874.0	1874.0	1874.0	1875.0	1875.0	1868.0	1868.0	1868.0	1852.0	1852.0	1872.0	1872.0	1830.0	1830.0	1830.0	1872.0	1872.0	1877.0	1877.0	1877.0	1828.0	1828.0	1866.0	1866.0	1866.0	1814.0	1814.0	1834.0	1834.0	1834.0	1824.0	1824.0	1804.0	1804.0	1804.0	1803.0	1803.0	1812.0	1812.0	1812.0	1837.0	1837.0	1801.0	1801.0	1801.0	1823.0	1823.0	1850.0	1850.0	1850.0	1792.0	1792.0	1805.0	1805.0	1805.0	1832.0	1832.0	1783.0	1783.0	1783.0	1822.0	1822.0	1784.0	1784.0	1784.0	1820.0	1820.0	1763.0	1763.0	1763.0	1782.0	1782.0	1771.0	1771.0	1771.0	1751.0	1751.0	1796.0	1796.0	1796.0	1775.0	1775.0	1778.0	1778.0	1778.0	1810.0	1810.0	1799.0	1799.0	1799.0	1773.0	1773.0	1777.0	1777.0	1777.0	1766.0	1766.0	1768.0	1768.0	1768.0	1779.0	1779.0	1773.0	1773.0	1773.0	1807.0	1807.0	1778.0	1778.0	1778.0	1777.0	1777.0	1747.0	1747.0	1747.0	1778.0	1778.0	1740.0	1740.0	1740.0	1772.0	1772.0	1764.0	1764.0	1764.0	1750.0	1750.0	1748.0	1748.0	1748.0	1755.0	1755.0	1747.0	1747.0	1747.0	1736.0	1736.0	1783.0	1783.0	1783.0	1738.0	1738.0	1748.0	1748.0	1748.0	1772.0	1772.0	1733.0	1733.0	1733.0	1767.0	1767.0	1773.0	1773.0	1773.0	1752.0	1752.0	1752.0	1752.0	1752.0	1773.0	1773.0	1755.0	1755.0	1755.0	1721.0	1721.0	1746.0	1746.0	1746.0	1741.0	1741.0	1761.0	1761.0	1761.0	1753.0	1753.0	1754.0	1754.0	1754.0	1725.0	1725.0	1753.0	1753.0	1753.0	1747.0	1747.0	1771.0	1771.0	1771.0	1766.0	1766.0	1763.0	1763.0	1763.0	1707.0	1707.0	1730.0	1730.0	1730.0	1738.0	1738.0	1710.0	1710.0	1710.0	1726.0	1726.0	1743.0	1743.0	1743.0	1712.0	1712.0	1750.0	1750.0	1750.0	1709.0	1709.0	1748.0	1748.0	1711.0	1711.0	1711.0	1755.0	1755.0	1752.0	1752.0	1752.0	1712.0	1712.0	1711.0	1711.0	1711.0	1765.0	1765.0	1743.0	1743.0	1743.0	1769.0	1769.0	1777.0	1777.0	1777.0	1769.0	1769.0	1804.0	1804.0	1804.0	1815.0	1815.0	1822.0	1822.0	1822.0	1822.0	1822.0	1859.0	1859.0	1859.0	1871.0	1871.0	1894.0	1894.0	1894.0	1867.0	1867.0	1933.0	1933.0	1933.0	1943.0	1943.0	1949.0	1949.0	1949.0	1953.0	1953.0	2023.0	2023.0	2023.0	2031.0	2031.0	2057.0	2057.0	2057.0	2060.0	2060.0	2110.0	2110.0	2110.0	2096.0	2096.0	2123.0	2123.0	2123.0	2156.0	2156.0	2169.0	2169.0	2169.0	2203.0	2203.0	2219.0	2219.0	2219.0	2243.0	2243.0	2257.0	2257.0	2257.0	2285.0	2285.0	2297.0	2297.0	2297.0	2322.0	2322.0	2363.0	2363.0	2363.0	2362.0	2362.0	2375.0	2375.0	2375.0	2383.0	2383.0	2406.0	2406.0	2406.0	2442.0	2442.0	2476.0	2476.0	2476.0	2451.0	2451.0	2452.0	2452.0	2452.0	2508.0	2508.0	2477.0	2477.0	2477.0	2504.0	2504.0	2511.0	2511.0	2511.0	2492.0	2492.0	