2075.0	2052.0	2052.0	2052.0	2102.0	2102.0	2059.0	2059.0	2059.0	2040.0	2040.0	2046.0	2046.0	2046.0	2107.0	2107.0	2087.0	2087.0	2085.0	2085.0	2085.0	2035.0	2035.0	2060.0	2060.0	2060.0	2019.0	2019.0	2047.0	2047.0	2047.0	2028.0	2028.0	2052.0	2052.0	2052.0	2020.0	2020.0	2018.0	2018.0	2018.0	2025.0	2025.0	2030.0	2030.0	2030.0	2070.0	2070.0	2041.0	2041.0	2041.0	2076.0	2076.0	2040.0	2040.0	2040.0	2057.0	2057.0	2047.0	2047.0	2047.0	2062.0	2062.0	2014.0	2014.0	2014.0	2053.0	2053.0	1996.0	1996.0	1996.0	2051.0	2051.0	1993.0	1993.0	1993.0	2060.0	2060.0	2019.0	2019.0	2019.0	2058.0	2058.0	2034.0	2034.0	2034.0	2049.0	2049.0	2028.0	2028.0	2028.0	1972.0	1972.0	1980.0	1980.0	1980.0	1970.0	1970.0	1955.0	1955.0	1955.0	2013.0	2013.0	1993.0	1993.0	1993.0	1942.0	1942.0	1991.0	1991.0	1991.0	1983.0	1983.0	1917.0	1917.0	1917.0	1933.0	1933.0	1982.0	1982.0	1982.0	1973.0	1973.0	1902.0	1902.0	1902.0	1920.0	1920.0	1961.0	1961.0	1961.0	1939.0	1939.0	1925.0	1925.0	1925.0	1922.0	1922.0	1905.0	1905.0	1905.0	1924.0	1924.0	1924.0	1924.0	1924.0	1861.0	1861.0	1905.0	1905.0	1905.0	1846.0	1846.0	1891.0	1891.0	1891.0	1843.0	1843.0	1810.0	1810.0	1810.0	1851.0	1851.0	1812.0	1812.0	1812.0	1846.0	1846.0	1789.0	1789.0	1789.0	1768.0	1768.0	1835.0	1835.0	1835.0	1780.0	1780.0	1788.0	1788.0	1788.0	1800.0	1800.0	1750.0	1750.0	1750.0	1751.0	1751.0	1778.0	1778.0	1778.0	1760.0	1760.0	1761.0	1761.0	1761.0	1765.0	1765.0	1733.0	1733.0	1733.0	1779.0	1779.0	1774.0	1774.0	1774.0	1702.0	1702.0	1721.0	1721.0	1721.0	1749.0	1749.0	1729.0	1729.0	1729.0	1733.0	1733.0	1717.0	1717.0	1727.0	1727.0	1727.0	1650.0	1650.0	1719.0	1719.0	1719.0	1645.0	1645.0	1651.0	1651.0	1651.0	1703.0	1703.0	1668.0	1668.0	1668.0	1640.0	1640.0	1695.0	1695.0	1695.0	1621.0	1621.0	1647.0	1647.0	1647.0	1686.0	1686.0	1620.0	1620.0	1620.0	1611.0	1611.0	1597.0	1597.0	1597.0	1648.0	1648.0	1652.0	1652.0	1652.0	1630.0	1630.0	1621.0	1621.0	1621.0	1573.0	1573.0	1638.0	1638.0	1638.0	1629.0	1629.0	1563.0	1563.0	1563.0	1621.0	1621.0	1563.0	1563.0	1563.0	1573.0	1573.0	1621.0	1621.0	1621.0	1536.0	1536.0	1585.0	1585.0	1585.0	1552.0	1552.0	1582.0	1582.0	1582.0	1552.0	1552.0	1534.0	1534.0	1534.0	1532.0	1532.0	1596.0	1596.0	1596.0	1534.0	1534.0	1525.0	1525.0	1525.0	1576.0	1576.0	1579.0	1579.0	1579.0	1574.0	1574.0	1582.0	1582.0	1582.0	1524.0	1524.0	1564.0	1564.0	1564.0	1545.0	1545.0	1559.0	1559.0	1559.0	1560.0	1560.0	1583.0	1583.0	1583.0	1552.0	1552.0	1529.0	1529.0	1529.0	1534.0	1534.0	1514.0	1514.0	1514.0	1528.0	1528.0	1535.0	1535.0	1535.0	1537.0	1537.0	1550.0	1550.0	1550.0	1513.0	1513.0	1505.0	1505.0	1505.0	1581.0	1581.0	1521.0	1521.0	1521.0	1563.0	1563.0	1505.0	1505.0	1505.0	1514.0	1514.0	1546.0	1546.0	1546.0	1540.0	1540.0	1517.0	1517.0	1517.0	1543.0	1543.0	1507.0	1507.0	1507.0	1504.0	1504.0	1576.0	1576.0	1576.0	1519.0	1519.0	1568.0	1568.0	1568.0	1569.0	1569.0	1516.0	1516.0	1516.0	1570.0	1570.0	1595.0	1595.0	1595.0	1594.0	1594.0	1584.0	1584.0	1584.0	1624.0	1624.0	1623.0	1623.0	1623.0	1640.0	1640.0	1574.0	1574.0	1574.0	1666.0	1666.0	1619.0	1619.0	1690.0	1690.0	1690.0	1663.0	1663.0	1692.0	1692.0	1692.0	1745.0	1745.0	1735.0	1735.0	1735.0	1779.0	1779.0	1841.0	1841.0	1841.0	1871.0	1871.0	1870.0	1870.0	1870.0	1913.0	1913.0	2003.0	2003.0	2003.0	1978.0	1978.0	2006.0	2006.0	2006.0	2050.0	2050.0	2135.0	2135.0	2135.0	2150.0	2150.0	2200.0	2200.0	2200.0	2214.0	2214.0	2271.0	2271.0	2271.0	2268.0	2268.0	2277.0	2277.0	2277.0	2358.0	2358.0	2376.0	2376.0	2376.0	2437.0	2437.0	2439.0	2439.0	2439.0	2476.0	2476.0	2497.0	2497.0	2497.0	2472.0	2472.0	2549.0	2549.0	2549.0	2546.0	2546.0	2583.0	2583.0	2583.0	2525.0	2525.0	2596.0	2596.0	2596.0	2544.0	2544.0	2566.0	2566.0	2566.0	2645.0	2645.0	2639.0	2639.0	2639.0	2596.0	2596.0	2602.0	2602.0	2602.0	2652.0	2652.0	2618.0	2618.0	2618.0	2626.0	2626.0	2621.0	2621.0	2621.0	2643.0	2643.0	2680.0	2680.0	2680.0	2642.0	2642.0	2618.0	2618.0	2618.0	2629.0	2629.0	2652.0	2652.0	2652.0	2689.0	2689.0	2606.0	2606.0	2606.0	2679.0	2679.0	2656.0	2656.0	2656.0	2662.0	2662.0	2598.0	2598.0	2598.0	2620.0	2620.0	2629.0	2629.0	2629.0	2579.0	2579.0	2597.0	2597.0	2597.0	2587.0	2587.0	2614.0	2614.0	2614.0	2574.0	2574.0	2557.0	2557.0	2557.0	2583.0	2583.0	2527.0	2527.0	2527.0	2556.0	2556.0	2571.0	2571.0	2571.0	2551.0	2551.0	2513.0	2513.0	2513.0	2501.0	2501.0	2483.0	2483.0	2483.0	2499.0	2499.0	2515.0	2515.0	2515.0	2483.0	2483.0	2503.0	2503.0	2503.0	2466.0	2466.0	2432.0	2432.0	2432.0	2407.0	2407.0	2442.0	2442.0	2442.0	2379.0	2379.0	2397.0	2397.0	2407.0	2407.0	2407.0	2407.0	2407.0	2386.0	2386.0	2386.0	2306.0	2306.0	2340.0	2340.0	2340.0	2323.0	2323.0	2264.0	2264.0	2264.0	2279.0	2279.0	2234.0	2234.0	2234.0	2287.0	2287.0	2212.0	2212.0	2212.0	2226.0	2226.0	2180.0	2180.0	2180.0	2191.0	2191.0	2164.0	2164.0	2164.0	2128.0	2128.0	2200.0	2200.0	2200.0	2161.0	2161.0	2145.0	2145.0	2145.0	2096.0	2096.0	2078.0	2078.0	2078.0	2081.0	2081.0	2058.0	2058.0	2058.0	2071.0	2071.0	2101.0	2101.0	2101.0	2050.0	2050.0	2040.0	2040.0	2040.0	2061.0	2061.0	2014.0	2014.0	2014.0	1996.0	1996.0	2028.0	2028.0	2028.0	1981.0	1981.0	2043.0	2043.0	2043.0	2019.0	2019.0	1965.0	1965.0	1965.0	2032.0	2032.0	2020.0	2020.0	2020.0	1957.0	1957.0	1948.0	1948.0	1948.0	2018.0	2018.0	1964.0	1964.0	1964.0	2010.0	2010.0	2009.0	2009.0	2009.0	1949.0	1949.0	2010.0	2010.0	2010.0	1969.0	1969.0	1999.0	1999.0	1999.0	1936.0	1936.0	1988.0	1988.0	1988.0	1999.0	1999.0	2006.0	2006.0	2006.0	1947.0	1947.0	1934.0	1934.0	1934.0	1935.0	1935.0	1946.0	1946.0	1946.0	1963.0	1963.0	1951.0	1951.0	1951.0	1966.0	1966.0	1905.0	1905.0	1905.0	1960.0	1960.0	1952.0	1952.0	1952.0	1922.0	1922.0	1927.0	1927.0	1927.0	1894.0	1894.0	1961.0	1961.0	1961.0	1897.0	1897.0	1892.0	1892.0	1892.0	1962.0	1962.0	1894.0	1894.0	1894.0	1944.0	1944.0	1867.0	1867.0	1867.0	1860.0	1860.0	1863.0	1863.0	1863.0	1859.0	1859.0	1892.0	1892.0	1892.0	1916.0	1916.0	1913.0	1913.0	1913.0	1913.0	1913.0	1847.0	1847.0	1847.0	1877.0	1877.0	1827.0	1827.0	1871.0	1871.0	1871.0	1819.0	1819.0	1870.0	1870.0	1870.0	1812.0	1812.0	1800.0	1800.0	1800.0	1803.0	1803.0	1854.0	1854.0	1854.0	1770.0	1770.0	1771.0	1771.0	1771.0	1781.0	1781.0	1798.0	1798.0	1798.0	1769.0	1769.0	1753.0	1753.0	1753.0	1737.0	1737.0	1749.0	1749.0	1749.0	1733.0	1733.0	1781.0	1781.0	1781.0	1736.0	1736.0	1736.0	1736.0	1736.0	1697.0	1697.0	1737.0	1737.0	1737.0	1680.0	1680.0	1724.0	1724.0	1724.0	1705.0	1705.0	1700.0	1700.0	1700.0	1650.0	1650.0	1714.0	1714.0	1714.0	1703.0	1703.0	1625.0	1625.0	1625.0	1675.0	1675.0	1640.0	1640.0	1640.0	1629.0	1629.0	1607.0	1607.0	1607.0	1645.0	1645.0	1593.0	1593.0	1593.0	1657.0	1657.0	1618.0	1618.0	1618.0	1578.0	1578.0	1627.0	1627.0	1627.0	1588.0	1588.0	1635.0	1635.0	1635.0	1612.0	1612.0	1548.0	1548.0	1548.0	1565.0	1565.0	1560.0	1560.0	1560.0	1614.0	1614.0	1603.0	1603.0	1603.0	1525.0	1525.0	1526.0	1526.0	1526.0	1599.0	1599.0	1530.0	1530.0	1530.0	1585.0	1585.0	1582.0	1582.0	1582.0	1559.0	1559.0	1513.0	1513.0	1513.0	1564.0	1564.0	1516.0	1516.0	1516.0	1498.0	1498.0	1500.0	1500.0	1500.0	1486.0	1486.0	1545.0	1545.0	1545.0	1504.0	1504.0	1550.0	1550.0	1550.0	1505.0	1505.0	1474.0	1474.0	1474.0	1516.0	1516.0	1466.0	1466.0	1466.0	1528.0	1528.0	1463.0	1463.0	1463.0	1470.0	1470.0	1514.0	1514.0	1514.0	1467.0	1467.0	1448.0	1448.0	1448.0	1458.0	1458.0	1457.0	1457.0	1457.0	1451.0	1451.0	1482.0	1482.0	1482.0	1468.0	1468.0	1462.0	1462.0	1462.0	1467.0	1467.0	1459.0	1459.0	1459.0	1464.0	1464.0	1515.0	1515.0	1493.0	1493.0	1493.0	1476.0	1476.0	1494.0	1494.0	1494.0	1505.0	1505.0	1436.0	1436.0	1436.0	1509.0	1509.0	1481.0	1481.0	1481.0	1510.0	1510.0	1453.0	1453.0	1453.0	1436.0	1436.0	1453.0	1453.0	1453.0	1442.0	1442.0	1517.0	1517.0	1517.0	1452.0	1452.0	1512.0	1512.0	1512.0	1492.0	1492.0	1440.0	1440.0	1440.0	1511.0	1511.0	1497.0	1497.0	1497.0	1508.0	1508.0	1455.0	1455.0	1455.0	1439.0	1439.0	1507.0	1507.0	1507.0	1482.0	1482.0	1508.0	1508.0	1508.0	1457.0	1457.0	1522.0	1522.0	1522.0	1460.0	1460.0	1472.0	1472.0	1472.0	1476.0	1476.0	1473.0	1473.0	1473.0	1529.0	1529.0	1547.0	1547.0	1547.0	1502.0	1502.0	1527.0	1527.0	1527.0	1538.0	1538.0	1593.0	1593.0	1593.0	1600.0	1600.0	1581.0	1581.0	1581.0	1618.0	1618.0	1681.0	1681.0	1681.0	1705.0	1705.0	1662.0	1662.0	1662.0	1764.0	1764.0	1719.0	1719.0	1719.0	1749.0	1749.0	1823.0	1823.0	1823.0	1857.0	1857.0	1888.0	1888.0	1888.0	1917.0	1917.0	1950.0	1950.0	1950.0	1963.0	1963.0	1996.0	1996.0	1996.0	2070.0	2070.0	2118.0	2118.0	2118.0	2101.0	2101.0	2179.0	2179.0	2179.0	2196.0	2196.0	2220.0	2220.0	2220.0	2227.0	2227.0	2253.0	2253.0	2253.0	2272.0	2272.0	2368.0	2368.0	2368.0	2330.0	2330.0	2349.0	2349.0	2349.0	2442.0	2442.0	2443.0	2443.0	2443.0	2461.0	2461.0	2452.0	2452.0	2452.0	2477.0	2477.0	2486.0	2486.0	2486.0	2505.0	2505.0	2538.0	2538.0	2538.0	2575.0	2575.0	2536.0	2536.0	2536.0	2548.0	2548.0	2610.0	2610.0	2610.0	2614.0	2614.0	2600.0	2600.0	2600.0	2634.0	2634.0	2587.0	2587.0	2593.0	2593.0	2593.0	2646.0	2646.0	2632.0	2632.0	2632.0	2654.0	2654.0	2595.0	2595.0	2595.0	2671.0	2671.0	2667.0	2667.0	2667.0	2592.0	2592.0	2602.0	2602.0	2602.0	2599.0	2599.0	2658.0	2658.0	2658.0	2623.0	2623.0	2668.0	2668.0	2668.0	2588.0	2588.0	2606.0	2606.0	2606.0	2579.0	2579.0	2571.0	2571.0	2571.0	2571.0	2571.0	2617.0	2617.0	2617.0	2596.0	2596.0	2576.0	2576.0	2576.0	2573.0	2573.0	2553.0	2553.0	2553.0	2520.0	2520.0	2554.0	2554.0	2554.0	2530.0	2530.0	2571.0	2571.0	2571.0	2491.0	2491.0	2520.0	2520.0	2520.0	2523.0	2523.0	2497.0	2497.0	2497.0	2514.0	2514.0	2487.0	2487.0	2487.0	2421.0	2421.0	2445.0	2445.0	2445.0	2473.0	2473.0	2457.0	2457.0	2457.0	2385.0	2385.0	2400.0	2400.0	2400.0	2363.0	2363.0	2355.0	2355.0	2355.0	2350.0	2350.0	2335.0	2335.0	2335.0	2364.0	2364.0	2310.0	2310.0	2310.0	2292.0	2292.0	2273.0	2273.0	2273.0	2287.0	2287.0	2247.0	2247.0	2247.0	2233.0	2233.0	2284.0	2284.0	2284.0	2231.0	2231.0	2206.0	2206.0	2206.0	2238.0	2238.0	2202.0	2202.0	2202.0	2142.0	2142.0	2175.0	2175.0	2175.0	2161.0	2161.0	2128.0	2128.0	2128.0	2143.0	2143.0	2143.0	2143.0	2143.0	2051.0	2051.0	2043.0	2043.0	2043.0	2054.0	2054.0	2028.0	2028.0	2028.0	2006.0	2006.0	2012.0	2012.0	2012.0	1986.0	1986.0	2018.0	2018.0	2018.0	2024.0	2024.0	1966.0	1966.0	1966.0	2005.0	2005.0	1968.0	1968.0	1968.0	1939.0	1939.0	1994.0	1994.0	1994.0	2008.0	2008.0	2000.0	2000.0	2000.0	2000.0	2000.0	1928.0	1928.0	1928.0	1964.0	1964.0	1941.0	1941.0	1974.0	1974.0	1974.0	1948.0	1948.0	1966.0	1966.0	1966.0	1920.0	1920.0	1910.0	1910.0	1910.0	1920.0	1920.0	1929.0	1929.0	1929.0	1901.0	1901.0	1959.0	1959.0	1959.0	1925.0	1925.0	1955.0	1955.0	1955.0	1963.0	1963.0	1895.0	1895.0	1895.0	1963.0	1963.0	1963.0	1963.0	1963.0	1930.0	1930.0	1968.0	1968.0	1968.0	1936.0	1936.0	1936.0	1936.0	1936.0	1949.0	1949.0	1922.0	1922.0	1922.0	1962.0	1962.0	1885.0	1885.0	1885.0	1930.0	1930.0	1875.0	1875.0	1875.0	1953.0	1953.0	1883.0	1883.0	1883.0	1902.0	1902.0	1875.0	1875.0	1875.0	1941.0	1941.0	1866.0	1866.0	1866.0	1902.0	1902.0	1913.0	1913.0	1913.0	1924.0	1924.0	1922.0	1922.0	1922.0	1847.0	1847.0	1839.0	1839.0	1839.0	1838.0	1838.0	1884.0	1884.0	1884.0	1900.0	1900.0	1826.0	1826.0	1826.0	1855.0	1855.0	1860.0	1860.0	1860.0	1859.0	1859.0	1811.0	1811.0	1811.0	1833.0	1833.0	1835.0	1835.0	1835.0	1838.0	1838.0	1799.0	1799.0	1799.0	1819.0	1819.0	1785.0	1785.0	1785.0	1829.0	1829.0	1844.0	1844.0	1844.0	1790.0	1790.0	1763.0	1763.0	1763.0	1776.0	1776.0	1751.0	1751.0	1751.0	1746.0	1746.0	1800.0	1800.0	1800.0	1768.0	1768.0	1808.0	1808.0	1808.0	1765.0	1765.0	1754.0	1754.0	1754.0	1735.0	1735.0	1749.0	1749.0	1749.0	1715.0	1715.0	1735.0	1735.0	1735.0	1739.0	1739.0	1774.0	1774.0	1774.0	1777.0	1777.0	1697.0	1697.0	1697.0	1697.0	1697.0	1766.0	1766.0	1766.0	1737.0	1737.0	1726.0	1726.0	1726.0	1680.0	1680.0	1681.0	1681.0	1681.0	1692.0	1692.0	1749.0	1749.0	1749.0	1719.0	1719.0	1706.0	1706.0	1706.0	1658.0	1658.0	1735.0	1735.0	1685.0	1685.0	1685.0	1693.0	1693.0	1714.0	1714.0	1714.0	1691.0	1691.0	1684.0	1684.0	1684.0	1639.0	1639.0	1707.0	1707.0	1707.0	1637.0	1637.0	1629.0	1629.0	1629.0	1663.0	1663.0	1630.0	1630.0	1630.0	1631.0	1631.0	1650.0	1650.0	1650.0	1622.0	1622.0	1670.0	1670.0	1670.0	1646.0	1646.0	1621.0	1621.0	1621.0	1669.0	1669.0	1591.0	1591.0	1591.0	1620.0	1620.0	1623.0	1623.0	1623.0	1629.0	1629.0	1651.0	1651.0	1651.0	1608.0	1608.0	1612.0	1612.0	1612.0	1572.0	1572.0	1594.0	1594.0	1594.0	1578.0	1578.0	1635.0	1635.0	1635.0	1613.0	1613.0	1567.0	1567.0	1567.0	1639.0	1639.0	1609.0	1609.0	1609.0	1566.0	1566.0	1566.0	1566.0	1566.0	1595.0	1595.0	1565.0	1565.0	1565.0	1625.0	1625.0	1613.0	1613.0	1613.0	1592.0	1592.0	1578.0	1578.0	1578.0	1579.0	1579.0	1582.0	1582.0	1582.0	1566.0	1566.0	1623.0	1623.0	1623.0	1621.0	1621.0	1576.0	1576.0	1576.0	1620.0	1620.0	1605.0	1605.0	1605.0	1580.0	1580.0	1597.0	1597.0	1597.0	1553.0	1553.0	1625.0	1625.0	1625.0	1563.0	1563.0	1555.0	1555.0	1555.0	1599.0	1599.0	1588.0	1588.0	1588.0	1585.0	1585.0	1626.0	1626.0	1626.0	1583.0	1583.0	1586.0	1586.0	1586.0	1629.0	1629.0	1604.0	1604.0	1604.0	1571.0	1571.0	1617.0	1617.0	1617.0	1599.0	1599.0	1642.0	1642.0	1642.0	1629.0	1629.0	1651.0	1651.0	1651.0	1638.0	1638.0	1612.0	1612.0	1612.0	1630.0	1630.0	1580.0	1580.0	1580.0	1644.0	1644.0	1596.0	1596.0	1596.0	1666.0	1666.0	1642.0	1642.0	1642.0	1669.0	1669.0	1633.0	1633.0	1633.0	1622.0	1622.0	1661.0	1661.0	1670.0	1670.0	1670.0	1640.0	1640.0	1657.0	1657.0	1657.0	1712.0	1712.0	1735.0	1735.0	1735.0	1742.0	1742.0	1817.0	1817.0	1817.0	1768.0	1768.0	1812.0	1812.0	1812.0	1846.0	1846.0	1873.0	1873.0	1873.0	1903.0	1903.0	1975.0	1975.0	1975.0	1944.0	1944.0	2039.0	2039.0	2039.0	2014.0	2014.0	2051.0	2051.0	2051.0	2077.0	2077.0	2129.0	2129.0	2129.0	2207.0	2207.0	2233.0	2233.0	2233.0	2283.0	2283.0	2315.0	2315.0	2315.0	2357.0	2357.0	2389.0	2389.0	2389.0	2398.0	2398.0	2394.0	2394.0	2394.0	2438.0	2438.0	2495.0	2495.0	2495.0	2472.0	2472.0	2484.0	2484.0	2484.0	2552.0	2552.0	2563.0	2563.0	2563.0	2563.0	2563.0	2580.0	2580.0	2580.0	2628.0	2628.0	2591.0	2591.0	2591.0	2623.0	2623.0	2683.0	2683.0	2683.0	2663.0	2663.0	2686.0	2686.0	2686.0	2638.0	2638.0	2706.0	2706.0	2706.0	2680.0	2680.0	2718.0	2718.0	2718.0	2714.0	2714.0	2731.0	2731.0	2731.0	2700.0	2700.0	2763.0	2763.0	2763.0	2690.0	2690.0	2762.0	2762.0	2762.0	2708.0	2708.0	2736.0	2736.0	2736.0	2718.0	2718.0	2753.0	2753.0	2753.0	2715.0	2715.0	2685.0	2685.0	2685.0	2709.0	2709.0	2705.0	2705.0	2705.0	2715.0	2715.0	2732.0	2732.0	2732.0	2725.0	2725.0	2717.0	2717.0	2717.0	2667.0	2667.0	2666.0	2666.0	2666.0	2700.0	2700.0	2701.0	2701.0	2701.0	2670.0	2670.0	2629.0	2629.0	2629.0	2643.0	2643.0	2667.0	2667.0	2667.0	2633.0	2633.0	2598.0	2598.0	2598.0	2583.0	2583.0	2620.0	2620.0	2620.0	2636.0	2636.0	2568.0	2568.0	2568.0	2623.0	2623.0	2534.0	2534.0	2534.0	2540.0	2540.0	2567.0	2567.0	2567.0	2511.0	2511.0	2498.0	2498.0	2503.0	2503.0	2503.0	2536.0	2536.0	2481.0	2481.0	2481.0	2456.0	2456.0	2457.0	2457.0	2457.0	2465.0	2465.0	2421.0	2421.0	2421.0	2397.0	2397.0	2397.0	2397.0	2397.0	2435.0	2435.0	2352.0	2352.0	2352.0	2366.0	2366.0	2388.0	2388.0	2388.0	2314.0	2314.0	2302.0	2302.0	2302.0	2355.0	2355.0	2333.0	2333.0	