2154.0	2154.0	2156.0	2156.0	2156.0	2090.0	2090.0	2121.0	2121.0	2121.0	2117.0	2117.0	2056.0	2056.0	2056.0	2117.0	2117.0	2092.0	2092.0	2092.0	2032.0	2032.0	2074.0	2074.0	2074.0	2087.0	2087.0	2030.0	2030.0	2030.0	2060.0	2060.0	2047.0	2047.0	2047.0	2079.0	2079.0	2015.0	2015.0	2015.0	2063.0	2063.0	2002.0	2002.0	1989.0	1989.0	1989.0	2049.0	2049.0	2027.0	2027.0	2027.0	1986.0	1986.0	2032.0	2032.0	2032.0	2013.0	2013.0	2013.0	2013.0	2013.0	2035.0	2035.0	2030.0	2030.0	2030.0	2041.0	2041.0	1985.0	1985.0	1985.0	2037.0	2037.0	2000.0	2000.0	2000.0	2021.0	2021.0	1988.0	1988.0	1988.0	1987.0	1987.0	1945.0	1945.0	1945.0	2011.0	2011.0	1972.0	1972.0	1972.0	1943.0	1943.0	1939.0	1939.0	1939.0	1995.0	1995.0	1929.0	1929.0	1929.0	1934.0	1934.0	1933.0	1933.0	1933.0	1974.0	1974.0	1916.0	1916.0	1916.0	1930.0	1930.0	1955.0	1955.0	1955.0	1945.0	1945.0	1952.0	1952.0	1952.0	1959.0	1959.0	1931.0	1931.0	1931.0	1895.0	1895.0	1904.0	1904.0	1904.0	1895.0	1895.0	1886.0	1886.0	1886.0	1906.0	1906.0	1880.0	1880.0	1880.0	1875.0	1875.0	1929.0	1929.0	1929.0	1870.0	1870.0	1890.0	1890.0	1890.0	1850.0	1850.0	1851.0	1851.0	1851.0	1913.0	1913.0	1909.0	1909.0	1909.0	1824.0	1824.0	1863.0	1863.0	1863.0	1835.0	1835.0	1825.0	1825.0	1825.0	1815.0	1815.0	1802.0	1802.0	1802.0	1816.0	1816.0	1851.0	1851.0	1851.0	1818.0	1818.0	1783.0	1783.0	1783.0	1806.0	1806.0	1767.0	1767.0	1767.0	1814.0	1814.0	1765.0	1765.0	1765.0	1776.0	1776.0	1741.0	1741.0	1741.0	1729.0	1729.0	1781.0	1781.0	1781.0	1735.0	1735.0	1770.0	1770.0	1770.0	1727.0	1727.0	1743.0	1743.0	1743.0	1692.0	1692.0	1717.0	1717.0	1717.0	1739.0	1739.0	1703.0	1703.0	1703.0	1670.0	1670.0	1716.0	1716.0	1716.0	1663.0	1663.0	1669.0	1669.0	1669.0	1649.0	1649.0	1659.0	1659.0	1659.0	1657.0	1657.0	1644.0	1644.0	1644.0	1632.0	1632.0	1644.0	1644.0	1617.0	1617.0	1617.0	1671.0	1671.0	1681.0	1681.0	1681.0	1607.0	1607.0	1623.0	1623.0	1623.0	1667.0	1667.0	1636.0	1636.0	1636.0	1659.0	1659.0	1641.0	1641.0	1641.0	1592.0	1592.0	1634.0	1634.0	1634.0	1637.0	1637.0	1615.0	1615.0	1615.0	1627.0	1627.0	1562.0	1562.0	1562.0	1583.0	1583.0	1569.0	1569.0	1569.0	1615.0	1615.0	1546.0	1546.0	1546.0	1598.0	1598.0	1586.0	1586.0	1586.0	1610.0	1610.0	1548.0	1548.0	1548.0	1555.0	1555.0	1562.0	1562.0	1562.0	1553.0	1553.0	1556.0	1556.0	1556.0	1555.0	1555.0	1570.0	1570.0	1570.0	1580.0	1580.0	1586.0	1586.0	1586.0	1571.0	1571.0	1548.0	1548.0	1548.0	1551.0	1551.0	1547.0	1547.0	1547.0	1549.0	1549.0	1534.0	1534.0	1534.0	1549.0	1549.0	1550.0	1550.0	1550.0	1536.0	1536.0	1528.0	1528.0	1528.0	1569.0	1569.0	1571.0	1571.0	1571.0	1552.0	1552.0	1503.0	1503.0	1503.0	1572.0	1572.0	1574.0	1574.0	1574.0	1587.0	1587.0	1505.0	1505.0	1505.0	1504.0	1504.0	1525.0	1525.0	1525.0	1567.0	1567.0	1568.0	1568.0	1568.0	1500.0	1500.0	1557.0	1557.0	1557.0	1510.0	1510.0	1504.0	1504.0	1504.0	1539.0	1539.0	1571.0	1571.0	1571.0	1543.0	1543.0	1511.0	1511.0	1511.0	1497.0	1497.0	1494.0	1494.0	1494.0	1537.0	1537.0	1490.0	1490.0	1490.0	1558.0	1558.0	1544.0	1544.0	1544.0	1512.0	1512.0	1512.0	1512.0	1512.0	1506.0	1506.0	1566.0	1566.0	1566.0	1555.0	1555.0	1542.0	1542.0	1542.0	1617.0	1617.0	1616.0	1616.0	1616.0	1567.0	1567.0	1627.0	1627.0	1627.0	1582.0	1582.0	1622.0	1622.0	1622.0	1612.0	1612.0	1690.0	1690.0	1683.0	1683.0	1683.0	1715.0	1715.0	1746.0	1746.0	1746.0	1754.0	1754.0	1825.0	1825.0	1825.0	1777.0	1777.0	1855.0	1855.0	1855.0	1873.0	1873.0	1870.0	1870.0	1870.0	1934.0	1934.0	2007.0	2007.0	2007.0	1992.0	1992.0	2050.0	2050.0	2050.0	2071.0	2071.0	2139.0	2139.0	2139.0	2180.0	2180.0	2192.0	2192.0	2192.0	2206.0	2206.0	2260.0	2260.0	2260.0	2259.0	2259.0	2339.0	2339.0	2339.0	2311.0	2311.0	2400.0	2400.0	2400.0	2377.0	2377.0	2435.0	2435.0	2435.0	2409.0	2409.0	2471.0	2471.0	2471.0	2521.0	2521.0	2528.0	2528.0	2528.0	2523.0	2523.0	2543.0	2543.0	2543.0	2519.0	2519.0	2548.0	2548.0	2548.0	2585.0	2585.0	2614.0	2614.0	2614.0	2649.0	2649.0	2592.0	2592.0	2592.0	2585.0	2585.0	2655.0	2655.0	2655.0	2607.0	2607.0	2657.0	2657.0	2657.0	2619.0	2619.0	2618.0	2618.0	2618.0	2689.0	2689.0	2683.0	2683.0	2683.0	2685.0	2685.0	2679.0	2679.0	2679.0	2624.0	2624.0	2630.0	2630.0	2630.0	2635.0	2635.0	2610.0	2610.0	2610.0	2617.0	2617.0	2666.0	2666.0	2666.0	2608.0	2608.0	2653.0	2653.0	2653.0	2632.0	2632.0	2579.0	2579.0	2579.0	2595.0	2595.0	2648.0	2648.0	2648.0	2602.0	2602.0	2569.0	2569.0	2569.0	2596.0	2596.0	2587.0	2587.0	2587.0	2592.0	2592.0	2574.0	2574.0	2574.0	2546.0	2546.0	2545.0	2545.0	2545.0	2546.0	2546.0	2506.0	2506.0	2506.0	2501.0	2501.0	2508.0	2508.0	2508.0	2531.0	2531.0	2508.0	2508.0	2508.0	2496.0	2496.0	2525.0	2525.0	2525.0	2468.0	2468.0	2511.0	2511.0	2511.0	2473.0	2473.0	2424.0	2424.0	2424.0	2433.0	2433.0	2432.0	2432.0	2433.0	2433.0	2433.0	2429.0	2429.0	2363.0	2363.0	2363.0	2412.0	2412.0	2365.0	2365.0	2365.0	2395.0	2395.0	2319.0	2319.0	2319.0	2370.0	2370.0	2318.0	2318.0	2318.0	2274.0	2274.0	2319.0	2319.0	2319.0	2259.0	2259.0	2297.0	2297.0	2297.0	2281.0	2281.0	2218.0	2218.0	2218.0	2265.0	2265.0	2231.0	2231.0	2231.0	2166.0	2166.0	2166.0	2166.0	2166.0	2206.0	2206.0	2167.0	2167.0	2167.0	2163.0	2163.0	2170.0	2170.0	2170.0	2092.0	2092.0	2125.0	2125.0	2125.0	2140.0	2140.0	2094.0	2094.0	2094.0	2091.0	2091.0	2087.0	2087.0	2087.0	2049.0	2049.0	2080.0	2080.0	2080.0	2074.0	2074.0	2066.0	2066.0	2066.0	2050.0	2050.0	1986.0	1986.0	1986.0	2026.0	2026.0	2015.0	2015.0	2015.0	2036.0	2036.0	2016.0	2016.0	2016.0	1993.0	1993.0	2012.0	2012.0	2012.0	2001.0	2001.0	1961.0	1961.0	1961.0	2023.0	2023.0	2019.0	2019.0	2019.0	1966.0	1966.0	1951.0	1951.0	1951.0	2012.0	2012.0	2025.0	2025.0	2025.0	1959.0	1959.0	1941.0	1941.0	1941.0	2017.0	2017.0	1993.0	1993.0	1993.0	1983.0	1983.0	1948.0	1948.0	1948.0	2014.0	2014.0	1972.0	1972.0	1972.0	1944.0	1944.0	1961.0	1961.0	1961.0	1995.0	1995.0	1967.0	1967.0	1967.0	1982.0	1982.0	1940.0	1940.0	1940.0	1944.0	1944.0	1930.0	1930.0	1930.0	1980.0	1980.0	1996.0	1996.0	1996.0	1937.0	1937.0	1980.0	1980.0	1980.0	1924.0	1924.0	1948.0	1948.0	1948.0	1979.0	1979.0	1923.0	1923.0	1923.0	1902.0	1902.0	1971.0	1971.0	1971.0	1967.0	1967.0	1956.0	1956.0	1956.0	1921.0	1921.0	1952.0	1952.0	1952.0	1950.0	1950.0	1911.0	1911.0	1911.0	1933.0	1933.0	1890.0	1890.0	1935.0	1935.0	1935.0	1879.0	1879.0	1888.0	1888.0	1888.0	1924.0	1924.0	1899.0	1899.0	1899.0	1913.0	1913.0	1855.0	1855.0	1855.0	1876.0	1876.0	1892.0	1892.0	1892.0	1892.0	1892.0	1818.0	1818.0	1818.0	1808.0	1808.0	1833.0	1833.0	1833.0	1837.0	1837.0	1847.0	1847.0	1847.0	1820.0	1820.0	1824.0	1824.0	1824.0	1821.0	1821.0	1782.0	1782.0	1782.0	1835.0	1835.0	1804.0	1804.0	1804.0	1804.0	1804.0	1773.0	1773.0	1773.0	1825.0	1825.0	1757.0	1757.0	1757.0	1814.0	1814.0	1767.0	1767.0	1767.0	1767.0	1767.0	1798.0	1798.0	1798.0	1727.0	1727.0	1747.0	1747.0	1747.0	1724.0	1724.0	1735.0	1735.0	1735.0	1711.0	1711.0	1755.0	1755.0	1755.0	1707.0	1707.0	1727.0	1727.0	1727.0	1693.0	1693.0	1730.0	1730.0	1730.0	1684.0	1684.0	1735.0	1735.0	1735.0	1712.0	1712.0	1750.0	1750.0	1750.0	1702.0	1702.0	1678.0	1678.0	1678.0	1713.0	1713.0	1682.0	1682.0	1682.0	1675.0	1675.0	1727.0	1727.0	1727.0	1722.0	1722.0	1730.0	1730.0	1730.0	1723.0	1723.0	1715.0	1715.0	1715.0	1675.0	1675.0	1723.0	1723.0	1723.0	1704.0	1704.0	1677.0	1677.0	1677.0	1647.0	1647.0	1696.0	1696.0	1696.0	1700.0	1700.0	1638.0	1638.0	1638.0	1692.0	1692.0	1705.0	1705.0	1705.0	1650.0	1650.0	1681.0	1681.0	1681.0	1692.0	1692.0	1696.0	1696.0	1696.0	1625.0	1625.0	1614.0	1614.0	1614.0	1659.0	1659.0	1643.0	1643.0	1643.0	1655.0	1655.0	1673.0	1673.0	1673.0	1648.0	1648.0	1622.0	1622.0	1622.0	1614.0	1614.0	1646.0	1646.0	1646.0	1647.0	1647.0	1615.0	1615.0	1615.0	1629.0	1629.0	1606.0	1606.0	1617.0	1617.0	1617.0	1611.0	1611.0	1614.0	1614.0	1614.0	1641.0	1641.0	1677.0	1677.0	1677.0	1637.0	1637.0	1612.0	1612.0	1612.0	1602.0	1602.0	1609.0	1609.0	1609.0	1651.0	1651.0	1607.0	1607.0	1607.0	1637.0	1637.0	1640.0	1640.0	1640.0	1624.0	1624.0	1676.0	1676.0	1676.0	1651.0	1651.0	1640.0	1640.0	1640.0	1654.0	1654.0	1673.0	1673.0	1673.0	1623.0	1623.0	1633.0	1633.0	1633.0	1649.0	1649.0	1668.0	1668.0	1668.0	1683.0	1683.0	1638.0	1638.0	1638.0	1687.0	1687.0	1617.0	1617.0	1617.0	1638.0	1638.0	1624.0	1624.0	1624.0	1697.0	1697.0	1680.0	1680.0	1680.0	1630.0	1630.0	1680.0	1680.0	1680.0	1668.0	1668.0	1682.0	1682.0	1682.0	1634.0	1634.0	1647.0	1647.0	1647.0	1635.0	1635.0	1644.0	1644.0	1644.0	1707.0	1707.0	1727.0	1727.0	1727.0	1686.0	1686.0	1695.0	1695.0	1695.0	1730.0	1730.0	1760.0	1760.0	1760.0	1742.0	1742.0	1733.0	1733.0	1733.0	1747.0	1747.0	1776.0	1776.0	1776.0	1785.0	1785.0	1809.0	1809.0	1809.0	1861.0	1861.0	1920.0	1920.0	1920.0	1884.0	1884.0	1917.0	1917.0	1917.0	1951.0	1951.0	1979.0	1979.0	1979.0	2006.0	2006.0	2095.0	2095.0	2095.0	2143.0	2143.0	2157.0	2157.0	2157.0	2221.0	2221.0	2236.0	2236.0	2236.0	2248.0	2248.0	2262.0	2262.0	2262.0	2288.0	2288.0	2316.0	2316.0	2316.0	2386.0	2386.0	2440.0	2440.0	2440.0	2452.0	2452.0	2445.0	2445.0	2445.0	2468.0	2468.0	2554.0	2554.0	2554.0	2570.0	2570.0	2585.0	2585.0	2585.0	2587.0	2587.0	2592.0	2592.0	2592.0	2676.0	2676.0	2625.0	2625.0	2625.0	2708.0	2708.0	2712.0	2712.0	2712.0	2672.0	2672.0	2711.0	2711.0	2729.0	2729.0	2729.0	2725.0	2725.0	2732.0	2732.0	2732.0	2715.0	2715.0	2740.0	2740.0	2740.0	2737.0	2737.0	2805.0	2805.0	2805.0	2788.0	2788.0	2782.0	2782.0	2782.0	2793.0	2793.0	2815.0	2815.0	2815.0	2803.0	2803.0	2805.0	2805.0	2805.0	2803.0	2803.0	2796.0	2796.0	2796.0	2771.0	2771.0	2771.0	2771.0	2771.0	2746.0	2746.0	2769.0	2769.0	2769.0	2797.0	2797.0	2790.0	2790.0	2790.0	2757.0	2757.0	2720.0	2720.0	2720.0	2772.0	2772.0	2727.0	2727.0	2727.0	2733.0	2733.0	2702.0	2702.0	2702.0	2702.0	2702.0	2722.0	2722.0	2722.0	2714.0	2714.0	2732.0	2732.0	2732.0	2663.0	2663.0	2634.0	2634.0	2634.0	2645.0	2645.0	2646.0	2646.0	2646.0	2620.0	2620.0	2685.0	2685.0	2685.0	2671.0	2671.0	2619.0	2619.0	2619.0	2602.0	2602.0	2592.0	2592.0	2592.0	2572.0	2572.0	2610.0	2610.0	2610.0	2594.0	2594.0	2580.0	2580.0	2580.0	2551.0	2551.0	2549.0	2549.0	2549.0	2507.0	2507.0	2564.0	2564.0	2564.0	2539.0	2539.0	2475.0	2475.0	2475.0	2494.0	2494.0	2442.0	2442.0	2442.0	2434.0	2434.0	2438.0	2438.0	2438.0	2414.0	2414.0	2418.0	2418.0	2418.0	2421.0	2421.0	2359.0	2359.0	2359.0	2382.0	2382.0	2379.0	2379.0	2379.0	2381.0	2381.0	2352.0	2352.0	2352.0	2331.0	2331.0	2313.0	2313.0	2313.0	2272.0	2272.0	2252.0	2252.0	2252.0	2268.0	2268.0	2208.0	2208.0	2208.0	2194.0	2194.0	2239.0	2239.0	2239.0	2184.0	2184.0	2235.0	2235.0	2235.0	2203.0	2203.0	2166.0	2166.0	2166.0	2139.0	2139.0	2127.0	2127.0	2127.0	2116.0	2116.0	2118.0	2118.0	2118.0	2129.0	2129.0	2091.0	2091.0	2111.0	2111.0	2111.0	2103.0	2103.0	2088.0	2088.0	2088.0	2125.0	2125.0	2113.0	2113.0	2113.0	2067.0	2067.0	2122.0	2122.0	2122.0	2113.0	2113.0	2041.0	2041.0	2041.0	2106.0	2106.0	2097.0	2097.0	2097.0	2107.0	2107.0	2103.0	2103.0	2103.0	2107.0	2107.0	2098.0	2098.0	2098.0	2047.0	2047.0	2024.0	2024.0	2024.0	2038.0	2038.0	2067.0	2067.0	2067.0	2012.0	2012.0	2080.0	2080.0	2080.0	2016.0	2016.0	2090.0	2090.0	2090.0	2007.0	2007.0	2084.0	2084.0	2084.0	2016.0	2016.0	2014.0	2014.0	2014.0	2028.0	2028.0	2005.0	2005.0	2005.0	1995.0	1995.0	2059.0	2059.0	2059.0	2049.0	2049.0	2024.0	2024.0	2024.0	2058.0	2058.0	2051.0	2051.0	2051.0	2024.0	2024.0	1998.0	1998.0	1998.0	1975.0	1975.0	2005.0	2005.0	2005.0	2007.0	2007.0	1972.0	1972.0	1972.0	1996.0	1996.0	2010.0	2010.0	2010.0	1949.0	1949.0	1944.0	1944.0	1944.0	1951.0	1951.0	1992.0	1992.0	1992.0	1987.0	1987.0	1917.0	1917.0	1917.0	1939.0	1939.0	1940.0	1940.0	1940.0	1915.0	1915.0	1886.0	1886.0	1886.0	1887.0	1887.0	1886.0	1886.0	1886.0	1889.0	1889.0	1888.0	1888.0	1888.0	1860.0	1860.0	1918.0	1918.0	1918.0	1897.0	1897.0	1869.0	1869.0	1869.0	1831.0	1831.0	1827.0	1827.0	1827.0	1820.0	1820.0	1815.0	1815.0	1815.0	1863.0	1863.0	1820.0	1820.0	1820.0	1867.0	1867.0	1806.0	1806.0	1806.0	1781.0	1781.0	1838.0	1838.0	1838.0	1794.0	1794.0	1769.0	1769.0	1769.0	1792.0	1792.0	1827.0	1827.0	1827.0	1752.0	1752.0	1741.0	1741.0	1741.0	1740.0	1740.0	1788.0	1788.0	1788.0	1734.0	1734.0	1770.0	1770.0	1737.0	1737.0	1737.0	1764.0	1764.0	1751.0	1751.0	1751.0	1702.0	1702.0	1751.0	1751.0	1751.0	1689.0	1689.0	1683.0	1683.0	1683.0	1758.0	1758.0	1742.0	1742.0	1742.0	1734.0	1734.0	1747.0	1747.0	1747.0	1720.0	1720.0	1735.0	1735.0	1735.0	1685.0	1685.0	1695.0	1695.0	1695.0	1735.0	1735.0	1707.0	1707.0	1707.0	1647.0	1647.0	1636.0	1636.0	1636.0	1712.0	1712.0	1674.0	1674.0	1674.0	1640.0	1640.0	1623.0	1623.0	1623.0	1630.0	1630.0	1666.0	1666.0	1666.0	1671.0	1671.0	1685.0	1685.0	1685.0	1662.0	1662.0	1664.0	1664.0	1664.0	1630.0	1630.0	1647.0	1647.0	1647.0	1607.0	1607.0	1641.0	1641.0	1641.0	1602.0	1602.0	1609.0	1609.0	1609.0	1602.0	1602.0	1592.0	1592.0	1592.0	1603.0	1603.0	1624.0	1624.0	1624.0	1576.0	1576.0	1621.0	1621.0	1621.0	1627.0	1627.0	1604.0	1604.0	1604.0	1599.0	1599.0	1576.0	1576.0	1576.0	1642.0	1642.0	1591.0	1591.0	1591.0	1605.0	1605.0	1644.0	1644.0	1644.0	1587.0	1587.0	1615.0	1615.0	1615.0	1585.0	1585.0	1639.0	1639.0	1639.0	1595.0	1595.0	1586.0	1586.0	1586.0	1623.0	1623.0	1649.0	1649.0	1649.0	1582.0	1582.0	1589.0	1589.0	1589.0	1585.0	1585.0	1624.0	1624.0	1624.0	1591.0	1591.0	1585.0	1585.0	1585.0	1646.0	1646.0	1615.0	1615.0	1615.0	1598.0	1598.0	1646.0	1646.0	1646.0	1584.0	1584.0	1659.0	1659.0	1659.0	1623.0	1623.0	1613.0	1613.0	1613.0	1607.0	1607.0	1594.0	1594.0	1594.0	1590.0	1590.0	1667.0	1667.0	1667.0	1595.0	1595.0	1644.0	1644.0	1644.0	1595.0	1595.0	1630.0	1630.0	1630.0	1647.0	1647.0	1660.0	1660.0	1660.0	1688.0	1688.0	1676.0	1676.0	1623.0	1623.0	1623.0	1686.0	1686.0	1696.0	1696.0	1696.0	1649.0	1649.0	1682.0	1682.0	1682.0	1736.0	1736.0	1691.0	1691.0	1691.0	1698.0	1698.0	1752.0	1752.0	1752.0	1744.0	1744.0	1782.0	1782.0	1782.0	1844.0	1844.0	1862.0	1862.0	1862.0	1865.0	1865.0	1924.0	1924.0	1924.0	1913.0	1913.0	1945.0	1945.0	1945.0	2006.0	2006.0	2013.0	2013.0	2013.0	2087.0	2087.0	2082.0	2082.0	2082.0	2186.0	2186.0	2139.0	2139.0	2139.0	2238.0	2238.0	2203.0	2203.0	2203.0	2239.0	2239.0	2324.0	2324.0	2324.0	2328.0	2328.0	2329.0	2329.0	2329.0	2396.0	2396.0	2384.0	2384.0	2384.0	2470.0	2470.0	2511.0	2511.0	2511.0	2512.0	2512.0	2535.0	2535.0	2535.0	2521.0	2521.0	2574.0	2574.0	2574.0	2555.0	2555.0	2547.0	2547.0	2547.0	2607.0	2607.0	2568.0	2568.0	2568.0	2635.0	2635.0	2589.0	2589.0	2589.0	2603.0	2603.0	2635.0	2635.0	2635.0	2641.0	2641.0	2625.0	2625.0	2625.0	2632.0	2632.0	2635.0	2635.0	2635.0	2620.0	2620.0	2663.0	2663.0	2663.0	2663.0	2663.0	2665.0	2665.0	2665.0	2647.0	2647.0	2639.0	2639.0	2639.0	2636.0	2636.0	2677.0	2677.0	2677.0	2694.0	2694.0	2626.0	2626.0	2626.0	2696.0	2696.0	2655.0	2655.0	2655.0	2647.0	2647.0	2612.0	2612.0	2612.0	2663.0	2663.0	2615.0	2615.0	2615.0	2654.0	2654.0	2652.0	2652.0	2652.0	2587.0	2587.0	2631.0	2631.0	2631.0	2556.0	2556.0	2622.0	2622.0	2622.0	2608.0	2608.0	2535.0	2535.0	2535.0	2540.0	2540.0	2546.0	2546.0	2546.0	2536.0	2536.0	2551.0	2551.0	2551.0	2548.0	2548.0	2512.0	2512.0	2512.0	2492.0	2492.0	2519.0	2519.0	2448.0	2448.0	2448.0	2489.0	2489.0	2465.0	2465.0	2465.0	2422.0	2422.0	2424.0	2424.0	2424.0	2459.0	2459.0	2428.0	