2473.0	2473.0	2473.0	2449.0	2449.0	2468.0	2468.0	2468.0	2465.0	2465.0	2441.0	2441.0	2441.0	2452.0	2452.0	2471.0	2471.0	2471.0	2443.0	2443.0	2441.0	2441.0	2441.0	2411.0	2411.0	2432.0	2432.0	2432.0	2416.0	2416.0	2416.0	2416.0	2416.0	2388.0	2388.0	2382.0	2382.0	2382.0	2382.0	2382.0	2393.0	2393.0	2393.0	2388.0	2388.0	2388.0	2388.0	2388.0	2371.0	2371.0	2358.0	2358.0	2358.0	2334.0	2334.0	2335.0	2335.0	2335.0	2330.0	2330.0	2308.0	2308.0	2308.0	2311.0	2311.0	2296.0	2296.0	2296.0	2283.0	2283.0	2294.0	2294.0	2294.0	2295.0	2295.0	2254.0	2254.0	2254.0	2249.0	2249.0	2248.0	2248.0	2248.0	2255.0	2255.0	2215.0	2215.0	2215.0	2241.0	2241.0	2191.0	2191.0	2191.0	2201.0	2201.0	2172.0	2172.0	2172.0	2180.0	2180.0	2186.0	2186.0	2186.0	2171.0	2171.0	2142.0	2142.0	2142.0	2160.0	2160.0	2115.0	2115.0	2115.0	2132.0	2132.0	2111.0	2111.0	2111.0	2107.0	2107.0	2096.0	2096.0	2096.0	2096.0	2096.0	2063.0	2063.0	2063.0	2053.0	2053.0	2062.0	2062.0	2062.0	2032.0	2032.0	2034.0	2034.0	2034.0	2037.0	2037.0	2011.0	2011.0	2011.0	2020.0	2020.0	2007.0	2007.0	2007.0	2010.0	2010.0	1987.0	1987.0	1987.0	1993.0	1993.0	2004.0	2004.0	2004.0	1983.0	1983.0	1968.0	1968.0	1968.0	1988.0	1988.0	1979.0	1979.0	1979.0	1948.0	1948.0	1961.0	1961.0	1961.0	1968.0	1968.0	1980.0	1980.0	1980.0	1955.0	1955.0	1958.0	1958.0	1958.0	1969.0	1969.0	1945.0	1945.0	1945.0	1977.0	1977.0	1940.0	1940.0	1940.0	1923.0	1923.0	1953.0	1953.0	1953.0	1923.0	1923.0	1936.0	1936.0	1936.0	1954.0	1954.0	1931.0	1931.0	1944.0	1944.0	1944.0	1942.0	1942.0	1945.0	1945.0	1945.0	1964.0	1964.0	1942.0	1942.0	1942.0	1954.0	1954.0	1954.0	1954.0	1954.0	1921.0	1921.0	1956.0	1956.0	1956.0	1955.0	1955.0	1967.0	1967.0	1967.0	1938.0	1938.0	1932.0	1932.0	1932.0	1969.0	1969.0	1955.0	1955.0	1955.0	1943.0	1943.0	1943.0	1943.0	1943.0	1958.0	1958.0	1929.0	1929.0	1929.0	1919.0	1919.0	1955.0	1955.0	1955.0	1934.0	1934.0	1947.0	1947.0	1947.0	1965.0	1965.0	1939.0	1939.0	1939.0	1959.0	1959.0	1953.0	1953.0	1953.0	1946.0	1946.0	1932.0	1932.0	1932.0	1929.0	1929.0	1930.0	1930.0	1930.0	1938.0	1938.0	1950.0	1950.0	1950.0	1936.0	1936.0	1956.0	1956.0	1956.0	1932.0	1932.0	1925.0	1925.0	1925.0	1916.0	1916.0	1945.0	1945.0	1945.0	1937.0	1937.0	1924.0	1924.0	1924.0	1920.0	1920.0	1911.0	1911.0	1911.0	1918.0	1918.0	1893.0	1893.0	1893.0	1901.0	1901.0	1916.0	1916.0	1916.0	1924.0	1924.0	1908.0	1908.0	1908.0	1911.0	1911.0	1906.0	1906.0	1906.0	1872.0	1872.0	1889.0	1889.0	1889.0	1886.0	1886.0	1889.0	1889.0	1889.0	1887.0	1887.0	1878.0	1878.0	1878.0	1874.0	1874.0	1877.0	1877.0	1877.0	1861.0	1861.0	1872.0	1872.0	1872.0	1869.0	1869.0	1847.0	1847.0	1847.0	1828.0	1828.0	1869.0	1869.0	1869.0	1875.0	1875.0	1867.0	1867.0	1867.0	1870.0	1870.0	1854.0	1854.0	1854.0	1855.0	1855.0	1844.0	1844.0	1844.0	1838.0	1838.0	1863.0	1863.0	1863.0	1826.0	1826.0	1831.0	1831.0	1831.0	1815.0	1815.0	1806.0	1806.0	1806.0	1835.0	1835.0	1805.0	1805.0	1805.0	1806.0	1806.0	1823.0	1823.0	1821.0	1821.0	1821.0	1811.0	1811.0	1787.0	1787.0	1787.0	1810.0	1810.0	1788.0	1788.0	1788.0	1810.0	1810.0	1790.0	1790.0	1790.0	1782.0	1782.0	1785.0	1785.0	1785.0	1814.0	1814.0	1808.0	1808.0	1808.0	1783.0	1783.0	1817.0	1817.0	1817.0	1772.0	1772.0	1794.0	1794.0	1794.0	1767.0	1767.0	1764.0	1764.0	1764.0	1793.0	1793.0	1747.0	1747.0	1747.0	1787.0	1787.0	1777.0	1777.0	1777.0	1783.0	1783.0	1761.0	1761.0	1761.0	1782.0	1782.0	1758.0	1758.0	1758.0	1757.0	1757.0	1776.0	1776.0	1776.0	1775.0	1775.0	1738.0	1738.0	1738.0	1744.0	1744.0	1768.0	1768.0	1768.0	1751.0	1751.0	1743.0	1743.0	1743.0	1760.0	1760.0	1731.0	1731.0	1731.0	1737.0	1737.0	1742.0	1742.0	1742.0	1729.0	1729.0	1734.0	1734.0	1734.0	1737.0	1737.0	1714.0	1714.0	1714.0	1750.0	1750.0	1725.0	1725.0	1725.0	1759.0	1759.0	1754.0	1754.0	1754.0	1735.0	1735.0	1727.0	1727.0	1727.0	1763.0	1763.0	1721.0	1721.0	1721.0	1729.0	1729.0	1730.0	1730.0	1730.0	1732.0	1732.0	1723.0	1723.0	1723.0	1746.0	1746.0	1748.0	1748.0	1748.0	1732.0	1732.0	1757.0	1757.0	1757.0	1756.0	1756.0	1781.0	1781.0	1781.0	1776.0	1776.0	1799.0	1799.0	1799.0	1810.0	1810.0	1832.0	1832.0	1832.0	1832.0	1832.0	1836.0	1836.0	1836.0	1875.0	1875.0	1879.0	1879.0	1879.0	1899.0	1899.0	1933.0	1933.0	1933.0	1956.0	1956.0	1973.0	1973.0	1973.0	1998.0	1998.0	2034.0	2034.0	2034.0	2050.0	2050.0	2083.0	2083.0	2083.0	2118.0	2118.0	2117.0	2117.0	2117.0	2154.0	2154.0	2190.0	2190.0	2190.0	2212.0	2212.0	2230.0	2230.0	2231.0	2231.0	2231.0	2269.0	2269.0	2279.0	2279.0	2279.0	2327.0	2327.0	2337.0	2337.0	2337.0	2343.0	2343.0	2360.0	2360.0	2360.0	2377.0	2377.0	2377.0	2377.0	2377.0	2417.0	2417.0	2430.0	2430.0	2430.0	2421.0	2421.0	2430.0	2430.0	2430.0	2459.0	2459.0	2439.0	2439.0	2439.0	2484.0	2484.0	2477.0	2477.0	2477.0	2459.0	2459.0	2459.0	2459.0	2459.0	2506.0	2506.0	2488.0	2488.0	2488.0	2523.0	2523.0	2504.0	2504.0	2504.0	2515.0	2515.0	2503.0	2503.0	2503.0	2510.0	2510.0	2530.0	2530.0	2530.0	2540.0	2540.0	2515.0	2515.0	2515.0	2509.0	2509.0	2514.0	2514.0	2514.0	2513.0	2513.0	2529.0	2529.0	2529.0	2512.0	2512.0	2504.0	2504.0	2504.0	2518.0	2518.0	2494.0	2494.0	2494.0	2490.0	2490.0	2488.0	2488.0	2488.0	2513.0	2513.0	2486.0	2486.0	2486.0	2505.0	2505.0	2468.0	2468.0	2468.0	2470.0	2470.0	2469.0	2469.0	2469.0	2476.0	2476.0	2466.0	2466.0	2466.0	2438.0	2438.0	2444.0	2444.0	2444.0	2424.0	2424.0	2420.0	2420.0	2420.0	2420.0	2420.0	2405.0	2405.0	2405.0	2429.0	2429.0	2400.0	2400.0	2400.0	2398.0	2398.0	2371.0	2371.0	2371.0	2375.0	2375.0	2387.0	2387.0	2387.0	2357.0	2357.0	2359.0	2359.0	2359.0	2344.0	2344.0	2313.0	2313.0	2313.0	2346.0	2346.0	2333.0	2333.0	2333.0	2319.0	2319.0	2337.0	2337.0	2337.0	2299.0	2299.0	2279.0	2279.0	2279.0	2295.0	2295.0	2287.0	2287.0	2287.0	2272.0	2272.0	2278.0	2278.0	2278.0	2255.0	2255.0	2248.0	2248.0	2248.0	2243.0	2243.0	2245.0	2245.0	2245.0	2203.0	2203.0	2183.0	2183.0	2183.0	2171.0	2171.0	2186.0	2186.0	2186.0	2186.0	2186.0	2159.0	2159.0	2150.0	2150.0	2150.0	2132.0	2132.0	2131.0	2131.0	2131.0	2114.0	2114.0	2116.0	2116.0	2116.0	2093.0	2093.0	2100.0	2100.0	2100.0	2093.0	2093.0	2091.0	2091.0	2091.0	2063.0	2063.0	2064.0	2064.0	2064.0	2045.0	2045.0	2037.0	2037.0	2037.0	2060.0	2060.0	2029.0	2029.0	2029.0	2013.0	2013.0	2011.0	2011.0	2011.0	1996.0	1996.0	1995.0	1995.0	1995.0	2008.0	2008.0	2012.0	2012.0	2012.0	1992.0	1992.0	1991.0	1991.0	1991.0	1977.0	1977.0	1975.0	1975.0	1975.0	1985.0	1985.0	1993.0	1993.0	1993.0	1979.0	1979.0	1969.0	1969.0	1969.0	1961.0	1961.0	1978.0	1978.0	1978.0	1961.0	1961.0	1943.0	1943.0	1943.0	1963.0	1963.0	1946.0	1946.0	1946.0	1945.0	1945.0	1951.0	1951.0	1951.0	1928.0	1928.0	1924.0	1924.0	1924.0	1956.0	1956.0	1930.0	1930.0	1930.0	1956.0	1956.0	1941.0	1941.0	1941.0	1956.0	1956.0	1931.0	1931.0	1931.0	1927.0	1927.0	1946.0	1946.0	1946.0	1920.0	1920.0	1956.0	1956.0	1956.0	1949.0	1949.0	1962.0	1962.0	1962.0	1940.0	1940.0	1932.0	1932.0	1932.0	1943.0	1943.0	1956.0	1956.0	1956.0	1939.0	1939.0	1931.0	1931.0	1931.0	1925.0	1925.0	1943.0	1943.0	1943.0	1934.0	1934.0	1934.0	1934.0	1934.0	1923.0	1923.0	1941.0	1941.0	1941.0	1940.0	1940.0	1927.0	1927.0	1927.0	1933.0	1933.0	1939.0	1939.0	1939.0	1909.0	1909.0	1925.0	1925.0	1925.0	1934.0	1934.0	1927.0	1927.0	1927.0	1916.0	1916.0	1935.0	1935.0	1935.0	1917.0	1917.0	1912.0	1912.0	1912.0	1903.0	1903.0	1902.0	1902.0	1902.0	1905.0	1905.0	1916.0	1916.0	1916.0	1891.0	1891.0	1916.0	1916.0	1912.0	1912.0	1912.0	1906.0	1906.0	1893.0	1893.0	1893.0	1886.0	1886.0	1905.0	1905.0	1905.0	1908.0	1908.0	1876.0	1876.0	1876.0	1883.0	1883.0	1896.0	1896.0	1896.0	1862.0	1862.0	1891.0	1891.0	1891.0	1871.0	1871.0	1887.0	1887.0	1887.0	1855.0	1855.0	1864.0	1864.0	1864.0	1874.0	1874.0	1887.0	1887.0	1887.0	1864.0	1864.0	1849.0	1849.0	1849.0	1881.0	1881.0	1844.0	1844.0	1844.0	1854.0	1854.0	1835.0	1835.0	1835.0	1844.0	1844.0	1856.0	1856.0	1856.0	1836.0	1836.0	1839.0	1839.0	1839.0	1811.0	1811.0	1866.0	1866.0	1866.0	1823.0	1823.0	1813.0	1813.0	1813.0	1829.0	1829.0	1854.0	1854.0	1854.0	1815.0	1815.0	1810.0	1810.0	1810.0	1818.0	1818.0	1830.0	1830.0	1830.0	1792.0	1792.0	1834.0	1834.0	1834.0	1837.0	1837.0	1825.0	1825.0	1825.0	1815.0	1815.0	1781.0	1781.0	1781.0	1811.0	1811.0	1777.0	1777.0	1777.0	1818.0	1818.0	1793.0	1793.0	1793.0	1802.0	1802.0	1789.0	1789.0	1789.0	1764.0	1764.0	1799.0	1799.0	1799.0	1752.0	1752.0	1800.0	1800.0	1800.0	1794.0	1794.0	1779.0	1779.0	1779.0	1759.0	1759.0	1768.0	1768.0	1768.0	1775.0	1775.0	1756.0	1756.0	1756.0	1760.0	1760.0	1763.0	1763.0	1763.0	1747.0	1747.0	1754.0	1754.0	1754.0	1743.0	1743.0	1761.0	1761.0	1761.0	1736.0	1736.0	1732.0	1732.0	1732.0	1761.0	1761.0	1761.0	1761.0	1761.0	1761.0	1761.0	1728.0	1728.0	1728.0	1744.0	1744.0	1740.0	1740.0	1740.0	1716.0	1716.0	1737.0	1737.0	1737.0	1758.0	1758.0	1737.0	1737.0	1737.0	1738.0	1738.0	1739.0	1739.0	1739.0	1730.0	1730.0	1766.0	1766.0	1766.0	1749.0	1749.0	1754.0	1754.0	1725.0	1725.0	1725.0	1729.0	1729.0	1745.0	1745.0	1745.0	1733.0	1733.0	1731.0	1731.0	1731.0	1711.0	1711.0	1746.0	1746.0	1746.0	1743.0	1743.0	1707.0	1707.0	1707.0	1747.0	1747.0	1723.0	1723.0	1723.0	1735.0	1735.0	1726.0	1726.0	1726.0	1761.0	1761.0	1763.0	1763.0	1763.0	1744.0	1744.0	1776.0	1776.0	1776.0	1760.0	1760.0	1774.0	1774.0	1774.0	1790.0	1790.0	1830.0	1830.0	1830.0	1834.0	1834.0	1835.0	1835.0	1835.0	1865.0	1865.0	1899.0	1899.0	1899.0	1887.0	1887.0	1922.0	1922.0	1922.0	1924.0	1924.0	1967.0	1967.0	1967.0	2009.0	2009.0	2010.0	2010.0	2010.0	2031.0	2031.0	2054.0	2054.0	2054.0	2092.0	2092.0	2105.0	2105.0	2105.0	2128.0	2128.0	2158.0	2158.0	2158.0	2183.0	2183.0	2191.0	2191.0	2191.0	2228.0	2228.0	2251.0	2251.0	2251.0	2270.0	2270.0	2300.0	2300.0	2300.0	2322.0	2322.0	2347.0	2347.0	2347.0	2350.0	2350.0	2365.0	2365.0	2365.0	2383.0	2383.0	2398.0	2398.0	2398.0	2420.0	2420.0	2445.0	2445.0	2445.0	2438.0	2438.0	2444.0	2444.0	2444.0	2468.0	2468.0	2462.0	2462.0	2462.0	2485.0	2485.0	2480.0	2480.0	2480.0	2471.0	2471.0	2488.0	2488.0	2488.0	2523.0	2523.0	2528.0	2528.0	2528.0	2504.0	2504.0	2534.0	2534.0	2534.0	2520.0	2520.0	2519.0	2519.0	2519.0	2548.0	2548.0	2520.0	2520.0	2520.0	2539.0	2539.0	2519.0	2519.0	2519.0	2519.0	2519.0	2528.0	2528.0	2528.0	2558.0	2558.0	2527.0	2527.0	2527.0	2509.0	2509.0	2540.0	2540.0	2540.0	2515.0	2515.0	2504.0	2504.0	2504.0	2506.0	2506.0	2504.0	2504.0	2504.0	2507.0	2507.0	2511.0	2511.0	2519.0	2519.0	2519.0	2497.0	2497.0	2488.0	2488.0	2488.0	2495.0	2495.0	2471.0	2471.0	2471.0	2471.0	2471.0	2465.0	2465.0	2465.0	2477.0	2477.0	2473.0	2473.0	2473.0	2448.0	2448.0	2454.0	2454.0	2454.0	2439.0	2439.0	2432.0	2432.0	2432.0	2421.0	2421.0	2442.0	2442.0	2442.0	2423.0	2423.0	2408.0	2408.0	2408.0	2379.0	2379.0	2383.0	2383.0	2383.0	2374.0	2374.0	2362.0	2362.0	2362.0	2373.0	2373.0	2337.0	2337.0	2337.0	2352.0	2352.0	2333.0	2333.0	2333.0	2339.0	2339.0	2347.0	2347.0	2347.0	2332.0	2332.0	2318.0	2318.0	2318.0	2292.0	2292.0	2278.0	2278.0	2278.0	2278.0	2278.0	2279.0	2279.0	2279.0	2262.0	2262.0	2254.0	2254.0	2254.0	2233.0	2233.0	2239.0	2239.0	2239.0	2235.0	2235.0	2218.0	2218.0	2218.0	2226.0	2226.0	2198.0	2198.0	2198.0	2196.0	2196.0	2193.0	2193.0	2193.0	2198.0	2198.0	2167.0	2167.0	2167.0	2150.0	2150.0	2148.0	2148.0	2148.0	2129.0	2129.0	2131.0	2131.0	2131.0	2123.0	2123.0	2104.0	2104.0	2104.0	2108.0	2108.0	2091.0	2091.0	2091.0	2065.0	2065.0	2077.0	2077.0	2077.0	2095.0	2095.0	2072.0	2072.0	2072.0	2044.0	2044.0	2044.0	2044.0	2044.0	2046.0	2046.0	2024.0	2024.0	2024.0	2051.0	2051.0	2018.0	2018.0	2018.0	2035.0	2035.0	2022.0	2022.0	2022.0	2013.0	2013.0	1999.0	1999.0	1999.0	1988.0	1988.0	1997.0	1997.0	1997.0	1999.0	1999.0	1980.0	1980.0	1980.0	1984.0	1984.0	1963.0	1963.0	1963.0	1987.0	1987.0	1974.0	1974.0	1974.0	2005.0	2005.0	1973.0	1973.0	1973.0	2000.0	2000.0	1963.0	1963.0	1963.0	1987.0	1987.0	1992.0	1992.0	1982.0	1982.0	1982.0	2003.0	2003.0	1959.0	1959.0	1959.0	1967.0	1967.0	1957.0	1957.0	1957.0	1969.0	1969.0	1986.0	1986.0	1986.0	1964.0	1964.0	1990.0	1990.0	1990.0	1983.0	1983.0	1971.0	1971.0	1971.0	1952.0	1952.0	1996.0	1996.0	1996.0	1986.0	1986.0	1988.0	1988.0	1988.0	1990.0	1990.0	1978.0	1978.0	1978.0	1957.0	1957.0	1957.0	1957.0	1957.0	1987.0	1987.0	1969.0	1969.0	1969.0	1974.0	1974.0	2000.0	2000.0	2000.0	1976.0	1976.0	1981.0	1981.0	1981.0	1989.0	1989.0	1954.0	1954.0	1954.0	1967.0	1967.0	1978.0	1978.0	1978.0	1970.0	1970.0	1952.0	1952.0	1952.0	1961.0	1961.0	1952.0	1952.0	1952.0	1972.0	1972.0	1928.0	1928.0	1928.0	1971.0	1971.0	1945.0	1945.0	1945.0	1952.0	1952.0	1938.0	1938.0	1938.0	1937.0	1937.0	1946.0	1946.0	1946.0	1947.0	1947.0	1956.0	1956.0	1956.0	1935.0	1935.0	1925.0	1925.0	1925.0	1951.0	1951.0	1933.0	1933.0	1933.0	1939.0	1939.0	1919.0	1919.0	1919.0	1941.0	1941.0	1914.0	1914.0	1914.0	1914.0	1914.0	1902.0	1902.0	1902.0	1906.0	1906.0	1879.0	1879.0	1879.0	1897.0	1897.0	1906.0	1906.0	1906.0	1907.0	1907.0	1917.0	1917.0	1917.0	1901.0	1901.0	1908.0	1908.0	1908.0	1881.0	1881.0	1880.0	1880.0	1880.0	1883.0	1883.0	1858.0	1858.0	1858.0	1868.0	1868.0	1854.0	1854.0	1854.0	1870.0	1870.0	1853.0	1853.0	1853.0	1849.0	1849.0	1851.0	1851.0	1851.0	1860.0	1860.0	1853.0	1853.0	1853.0	1868.0	1868.0	1865.0	1865.0	1865.0	1852.0	1852.0	1870.0	1870.0	1870.0	1854.0	1854.0	1839.0	1839.0	1839.0	1830.0	1830.0	1847.0	1847.0	1847.0	1849.0	1849.0	1837.0	1837.0	1835.0	1835.0	1835.0	1811.0	1811.0	1822.0	1822.0	1822.0	1810.0	1810.0	1814.0	1814.0	1814.0	1799.0	1799.0	1837.0	1837.0	1837.0	1810.0	1810.0	1786.0	1786.0	1786.0	1820.0	1820.0	1798.0	1798.0	1798.0	1802.0	1802.0	1794.0	1794.0	1794.0	1782.0	1782.0	1789.0	1789.0	1789.0	1794.0	1794.0	1807.0	1807.0	1807.0	1818.0	1818.0	1782.0	1782.0	1782.0	1811.0	1811.0	1795.0	1795.0	1795.0	1793.0	1793.0	1790.0	1790.0	1790.0	1772.0	1772.0	1788.0	1788.0	1788.0	1764.0	1764.0	1777.0	1777.0	1777.0	1772.0	1772.0	1798.0	1798.0	1798.0	1775.0	1775.0	1760.0	1760.0	1760.0	1800.0	1800.0	1766.0	1766.0	1766.0	1764.0	1764.0	1778.0	1778.0	1778.0	1751.0	1751.0	1760.0	1760.0	1760.0	1747.0	1747.0	1752.0	1752.0	1752.0	1776.0	1776.0	1766.0	1766.0	1766.0	1761.0	1761.0	1776.0	1776.0	1776.0	1773.0	1773.0	1774.0	1774.0	1774.0	1777.0	1777.0	1753.0	1753.0	1753.0	1773.0	1773.0	1772.0	1772.0	1772.0	1752.0	1752.0	1734.0	1734.0	1734.0	1744.0	1744.0	1746.0	1746.0	1746.0	1761.0	1761.0	1746.0	1746.0	1746.0	1743.0	1743.0	1764.0	1764.0	1764.0	1766.0	1766.0	1783.0	1783.0	1783.0	1763.0	1763.0	1775.0	1775.0	1775.0	1777.0	1777.0	1793.0	1793.0	1793.0	1795.0	1795.0	1798.0	1798.0	1798.0	1830.0	1830.0	1804.0	1804.0	1804.0	1853.0	1853.0	1843.0	1843.0	1843.0	1868.0	1868.0	1881.0	1881.0	1881.0	1882.0	1882.0	1927.0	1927.0	1927.0	1939.0	1939.0	1966.0	1966.0	1966.0	2004.0	2004.0	2026.0	2026.0	2026.0	2041.0	2041.0	2046.0	2046.0	2046.0	2078.0	2078.0	2115.0	2115.0	2127.0	2127.0	2127.0	2156.0	2156.0	2182.0	2182.0	2182.0	2189.0	2189.0	2222.0	2222.0	2222.0	2241.0	2241.0	2272.0	2272.0	2272.0	2288.0	2288.0	2307.0	2307.0	2307.0	2322.0	2322.0	2331.0	2331.0	2331.0	2359.0	2359.0	2370.0	2370.0	2370.0	2393.0	2393.0	2433.0	2433.0	2433.0	2436.0	2436.0	2439.0	2439.0	2439.0	2467.0	2467.0	2447.0	2447.0	2447.0	2491.0	2491.0	2486.0	2486.0	2486.0	2481.0	2481.0	2493.0	2493.0	2493.0	2516.0	2516.0	