1643.0	1643.0	1609.0	1609.0	1609.0	1592.0	1592.0	1547.0	1547.0	1547.0	1523.0	1523.0	1507.0	1507.0	1507.0	1490.0	1490.0	1518.0	1518.0	1518.0	1508.0	1508.0	1486.0	1486.0	1486.0	1497.0	1497.0	1499.0	1499.0	1499.0	1504.0	1504.0	1482.0	1482.0	1482.0	1496.0	1496.0	1492.0	1492.0	1492.0	1491.0	1491.0	1510.0	1510.0	1510.0	1495.0	1495.0	1503.0	1503.0	1503.0	1510.0	1510.0	1506.0	1506.0	1506.0	1478.0	1478.0	1520.0	1520.0	1520.0	1519.0	1519.0	1501.0	1501.0	1501.0	1496.0	1496.0	1536.0	1536.0	1536.0	1523.0	1523.0	1518.0	1518.0	1518.0	1510.0	1510.0	1540.0	1540.0	1540.0	1499.0	1499.0	1528.0	1528.0	1528.0	1517.0	1517.0	1541.0	1541.0	1541.0	1508.0	1508.0	1532.0	1532.0	1532.0	1534.0	1534.0	1551.0	1551.0	1551.0	1559.0	1559.0	1541.0	1541.0	1541.0	1548.0	1548.0	1550.0	1550.0	1550.0	1546.0	1546.0	1540.0	1540.0	1540.0	1566.0	1566.0	1544.0	1544.0	1544.0	1569.0	1569.0	1581.0	1581.0	1581.0	1539.0	1539.0	1559.0	1559.0	1559.0	1552.0	1552.0	1552.0	1552.0	1552.0	1578.0	1578.0	1587.0	1587.0	1587.0	1536.0	1536.0	1550.0	1550.0	1550.0	1582.0	1582.0	1591.0	1591.0	1590.0	1590.0	1590.0	1584.0	1584.0	1574.0	1574.0	1574.0	1562.0	1562.0	1571.0	1571.0	1571.0	1587.0	1587.0	1572.0	1572.0	1572.0	1570.0	1570.0	1584.0	1584.0	1584.0	1588.0	1588.0	1608.0	1608.0	1608.0	1572.0	1572.0	1611.0	1611.0	1611.0	1581.0	1581.0	1567.0	1567.0	1567.0	1581.0	1581.0	1611.0	1611.0	1611.0	1574.0	1574.0	1592.0	1592.0	1592.0	1606.0	1606.0	1598.0	1598.0	1598.0	1583.0	1583.0	1607.0	1607.0	1607.0	1604.0	1604.0	1632.0	1632.0	1632.0	1598.0	1598.0	1584.0	1584.0	1584.0	1635.0	1635.0	1614.0	1614.0	1614.0	1610.0	1610.0	1625.0	1625.0	1625.0	1587.0	1587.0	1629.0	1629.0	1629.0	1615.0	1615.0	1599.0	1599.0	1599.0	1621.0	1621.0	1590.0	1590.0	1590.0	1617.0	1617.0	1641.0	1641.0	1641.0	1600.0	1600.0	1623.0	1623.0	1623.0	1622.0	1622.0	1623.0	1623.0	1623.0	1630.0	1630.0	1611.0	1611.0	1611.0	1630.0	1630.0	1615.0	1615.0	1615.0	1630.0	1630.0	1663.0	1663.0	1663.0	1626.0	1626.0	1651.0	1651.0	1651.0	1639.0	1639.0	1638.0	1638.0	1638.0	1641.0	1641.0	1636.0	1636.0	1636.0	1644.0	1644.0	1631.0	1631.0	1631.0	1662.0	1662.0	1633.0	1633.0	1633.0	1652.0	1652.0	1633.0	1633.0	1633.0	1669.0	1669.0	1623.0	1623.0	1623.0	1660.0	1660.0	1669.0	1669.0	1669.0	1654.0	1654.0	1643.0	1643.0	1643.0	1673.0	1673.0	1629.0	1629.0	1629.0	1639.0	1639.0	1667.0	1667.0	1667.0	1645.0	1645.0	1646.0	1646.0	1646.0	1646.0	1646.0	1633.0	1633.0	1633.0	1641.0	1641.0	1636.0	1636.0	1636.0	1651.0	1651.0	1663.0	1663.0	1663.0	1657.0	1657.0	1658.0	1658.0	1658.0	1640.0	1640.0	1641.0	1641.0	1677.0	1677.0	1677.0	1657.0	1657.0	1653.0	1653.0	1653.0	1651.0	1651.0	1673.0	1673.0	1673.0	1687.0	1687.0	1681.0	1681.0	1681.0	1676.0	1676.0	1660.0	1660.0	1660.0	1647.0	1647.0	1654.0	1654.0	1654.0	1696.0	1696.0	1684.0	1684.0	1684.0	1677.0	1677.0	1668.0	1668.0	1668.0	1693.0	1693.0	1693.0	1693.0	1693.0	1692.0	1692.0	1712.0	1712.0	1712.0	1748.0	1748.0	1726.0	1726.0	1726.0	1757.0	1757.0	1756.0	1756.0	1756.0	1771.0	1771.0	1750.0	1750.0	1750.0	1761.0	1761.0	1789.0	1789.0	1789.0	1801.0	1801.0	1816.0	1816.0	1816.0	1809.0	1809.0	1819.0	1819.0	1819.0	1869.0	1869.0	1858.0	1858.0	1858.0	1872.0	1872.0	1882.0	1882.0	1882.0	1919.0	1919.0	1940.0	1940.0	1940.0	1950.0	1950.0	1944.0	1944.0	1944.0	1941.0	1941.0	1977.0	1977.0	1977.0	2009.0	2009.0	1972.0	1972.0	1972.0	1984.0	1984.0	2007.0	2007.0	2007.0	2015.0	2015.0	2044.0	2044.0	2044.0	2067.0	2067.0	2083.0	2083.0	2083.0	2087.0	2087.0	2087.0	2087.0	2087.0	2084.0	2084.0	2102.0	2102.0	2102.0	2126.0	2126.0	2140.0	2140.0	2140.0	2144.0	2144.0	2116.0	2116.0	2116.0	2138.0	2138.0	2153.0	2153.0	2153.0	2138.0	2138.0	2180.0	2180.0	2180.0	2157.0	2157.0	2160.0	2160.0	2160.0	2175.0	2175.0	2198.0	2198.0	2198.0	2177.0	2177.0	2177.0	2177.0	2177.0	2174.0	2174.0	2202.0	2202.0	2202.0	2222.0	2222.0	2199.0	2199.0	2199.0	2205.0	2205.0	2220.0	2220.0	2220.0	2236.0	2236.0	2228.0	2228.0	2228.0	2235.0	2235.0	2232.0	2232.0	2232.0	2241.0	2241.0	2222.0	2222.0	2222.0	2229.0	2229.0	2221.0	2221.0	2260.0	2260.0	2260.0	2265.0	2265.0	2231.0	2231.0	2231.0	2247.0	2247.0	2269.0	2269.0	2269.0	2235.0	2235.0	2240.0	2240.0	2240.0	2263.0	2263.0	2227.0	2227.0	2227.0	2240.0	2240.0	2231.0	2231.0	2231.0	2270.0	2270.0	2238.0	2238.0	2238.0	2241.0	2241.0	2257.0	2257.0	2257.0	2248.0	2248.0	2260.0	2260.0	2260.0	2260.0	2260.0	2219.0	2219.0	2219.0	2258.0	2258.0	2250.0	2250.0	2250.0	2219.0	2219.0	2220.0	2220.0	2220.0	2231.0	2231.0	2236.0	2236.0	2236.0	2211.0	2211.0	2209.0	2209.0	2209.0	2236.0	2236.0	2211.0	2211.0	2211.0	2205.0	2205.0	2245.0	2245.0	2245.0	2210.0	2210.0	2219.0	2219.0	2219.0	2195.0	2195.0	2205.0	2205.0	2205.0	2209.0	2209.0	2196.0	2196.0	2196.0	2184.0	2184.0	2203.0	2203.0	2203.0	2174.0	2174.0	2205.0	2205.0	2205.0	2163.0	2163.0	2187.0	2187.0	2187.0	2152.0	2152.0	2146.0	2146.0	2146.0	2166.0	2166.0	2149.0	2149.0	2149.0	2172.0	2172.0	2131.0	2131.0	2131.0	2138.0	2138.0	2112.0	2112.0	2112.0	2136.0	2136.0	2141.0	2141.0	2141.0	2117.0	2117.0	2121.0	2121.0	2121.0	2132.0	2132.0	2131.0	2131.0	2131.0	2116.0	2116.0	2095.0	2095.0	2095.0	2103.0	2103.0	2094.0	2094.0	2094.0	2090.0	2090.0	2072.0	2072.0	2072.0	2084.0	2084.0	2085.0	2085.0	2085.0	2074.0	2074.0	2059.0	2059.0	2059.0	2052.0	2052.0	2074.0	2074.0	2074.0	2070.0	2070.0	2039.0	2039.0	2039.0	2083.0	2083.0	2065.0	2065.0	2065.0	2053.0	2053.0	2028.0	2028.0	2028.0	2027.0	2027.0	2059.0	2059.0	2059.0	2012.0	2012.0	2028.0	2028.0	2028.0	2018.0	2018.0	2010.0	2010.0	2008.0	2008.0	2008.0	2024.0	2024.0	2022.0	2022.0	2022.0	2015.0	2015.0	2016.0	2016.0	2016.0	2030.0	2030.0	2033.0	2033.0	2033.0	2006.0	2006.0	1998.0	1998.0	1998.0	1982.0	1982.0	2016.0	2016.0	2016.0	2024.0	2024.0	2014.0	2014.0	2014.0	1974.0	1974.0	2026.0	2026.0	2026.0	2022.0	2022.0	1991.0	1991.0	1991.0	1963.0	1963.0	2000.0	2000.0	2000.0	1978.0	1978.0	1985.0	1985.0	1985.0	1982.0	1982.0	1996.0	1996.0	1996.0	1974.0	1974.0	1993.0	1993.0	1993.0	1977.0	1977.0	1991.0	1991.0	1991.0	2005.0	2005.0	1995.0	1995.0	1995.0	1988.0	1988.0	1971.0	1971.0	1971.0	1957.0	1957.0	1986.0	1986.0	1986.0	1961.0	1961.0	1986.0	1986.0	1986.0	1963.0	1963.0	2000.0	2000.0	2000.0	1986.0	1986.0	1985.0	1985.0	1985.0	1980.0	1980.0	1974.0	1974.0	1974.0	1977.0	1977.0	1958.0	1958.0	1958.0	1961.0	1961.0	1949.0	1949.0	1949.0	1950.0	1950.0	1950.0	1950.0	1950.0	1948.0	1948.0	1952.0	1952.0	1952.0	1943.0	1943.0	1946.0	1946.0	1946.0	1966.0	1966.0	1943.0	1943.0	1943.0	1940.0	1940.0	1937.0	1937.0	1937.0	1940.0	1940.0	1960.0	1960.0	1960.0	1941.0	1941.0	1931.0	1931.0	1931.0	1953.0	1953.0	1955.0	1955.0	1955.0	1935.0	1935.0	1935.0	1935.0	1935.0	1935.0	1935.0	1947.0	1947.0	1947.0	1935.0	1935.0	1923.0	1923.0	1923.0	1922.0	1922.0	1944.0	1944.0	1944.0	1932.0	1932.0	1912.0	1912.0	1912.0	1920.0	1920.0	1957.0	1957.0	1957.0	1905.0	1905.0	1919.0	1919.0	1919.0	1914.0	1914.0	1921.0	1921.0	1921.0	1944.0	1944.0	1937.0	1937.0	1937.0	1943.0	1943.0	1928.0	1928.0	1928.0	1945.0	1945.0	1937.0	1937.0	1927.0	1927.0	1927.0	1928.0	1928.0	1917.0	1917.0	1917.0	1901.0	1901.0	1902.0	1902.0	1902.0	1928.0	1928.0	1934.0	1934.0	1934.0	1904.0	1904.0	1930.0	1930.0	1930.0	1916.0	1916.0	1893.0	1893.0	1893.0	1917.0	1917.0	1900.0	1900.0	1900.0	1916.0	1916.0	1896.0	1896.0	1896.0	1915.0	1915.0	1896.0	1896.0	1896.0	1906.0	1906.0	1880.0	1880.0	1880.0	1886.0	1886.0	1884.0	1884.0	1884.0	1903.0	1903.0	1876.0	1876.0	1876.0	1896.0	1896.0	1906.0	1906.0	1906.0	1867.0	1867.0	1903.0	1903.0	1903.0	1866.0	1866.0	1871.0	1871.0	1871.0	1860.0	1860.0	1876.0	1876.0	1876.0	1873.0	1873.0	1869.0	1869.0	1869.0	1874.0	1874.0	1881.0	1881.0	1881.0	1881.0	1881.0	1892.0	1892.0	1892.0	1867.0	1867.0	1863.0	1863.0	1863.0	1864.0	1864.0	1895.0	1895.0	1895.0	1875.0	1875.0	1876.0	1876.0	1876.0	1889.0	1889.0	1876.0	1876.0	1876.0	1855.0	1855.0	1886.0	1886.0	1886.0	1865.0	1865.0	1879.0	1879.0	1879.0	1859.0	1859.0	1859.0	1859.0	1859.0	1850.0	1850.0	1867.0	1867.0	1867.0	1849.0	1849.0	1839.0	1839.0	1839.0	1854.0	1854.0	1870.0	1870.0	1870.0	1844.0	1844.0	1863.0	1863.0	1863.0	1856.0	1856.0	1859.0	1859.0	1859.0	1844.0	1844.0	1843.0	1843.0	1843.0	1836.0	1836.0	1846.0	1846.0	1846.0	1868.0	1868.0	1855.0	1855.0	1855.0	1871.0	1871.0	1854.0	1854.0	1854.0	1845.0	1845.0	1831.0	1831.0	1831.0	1863.0	1863.0	1848.0	1848.0	1848.0	1836.0	1836.0	1819.0	1819.0	1819.0	1861.0	1861.0	1852.0	1852.0	1852.0	1828.0	1828.0	1838.0	1838.0	1838.0	1839.0	1839.0	1860.0	1860.0	1844.0	1844.0	1844.0	1822.0	1822.0	1829.0	1829.0	1829.0	1828.0	1828.0	1858.0	1858.0	1858.0	1853.0	1853.0	1823.0	1823.0	1823.0	1841.0	1841.0	1826.0	1826.0	1826.0	1819.0	1819.0	1807.0	1807.0	1807.0	1830.0	1830.0	1834.0	1834.0	1834.0	1848.0	1848.0	1851.0	1851.0	1851.0	1829.0	1829.0	1831.0	1831.0	1831.0	1833.0	1833.0	1826.0	1826.0	1826.0	1810.0	1810.0	1835.0	1835.0	1835.0	1830.0	1830.0	1820.0	1820.0	1820.0	1832.0	1832.0	1805.0	1805.0	1805.0	1817.0	1817.0	1836.0	1836.0	1836.0	1815.0	1815.0	1827.0	1827.0	1827.0	1830.0	1830.0	1822.0	1822.0	1822.0	1839.0	1839.0	1850.0	1850.0	1850.0	1822.0	1822.0	1826.0	1826.0	1826.0	1827.0	1827.0	1831.0	1831.0	1831.0	1875.0	1875.0	1871.0	1871.0	1871.0	1851.0	1851.0	1900.0	1900.0	1900.0	1872.0	1872.0	1901.0	1901.0	1901.0	1886.0	1886.0	1917.0	1917.0	1917.0	1921.0	1921.0	1941.0	1941.0	1941.0	1931.0	1931.0	1949.0	1949.0	1949.0	1955.0	1955.0	1948.0	1948.0	1948.0	1985.0	1985.0	1990.0	1990.0	1990.0	1997.0	1997.0	2011.0	2011.0	2011.0	1998.0	1998.0	2031.0	2031.0	2031.0	2048.0	2048.0	2047.0	2047.0	2047.0	2072.0	2072.0	2056.0	2056.0	2056.0	2069.0	2069.0	2094.0	2094.0	2094.0	2111.0	2111.0	2100.0	2100.0	2100.0	2131.0	2131.0	2154.0	2154.0	2154.0	2150.0	2150.0	2163.0	2163.0	2163.0	2179.0	2179.0	2175.0	2175.0	2175.0	2165.0	2165.0	2188.0	2188.0	2188.0	2182.0	2182.0	2215.0	2215.0	2215.0	2194.0	2194.0	2226.0	2226.0	2226.0	2212.0	2212.0	2198.0	2198.0	2198.0	2238.0	2238.0	2236.0	2236.0	2226.0	2226.0	2226.0	2260.0	2260.0	2231.0	2231.0	2231.0	2232.0	2232.0	2258.0	2258.0	2258.0	2260.0	2260.0	2245.0	2245.0	2245.0	2272.0	2272.0	2263.0	2263.0	2263.0	2250.0	2250.0	2272.0	2272.0	2272.0	2266.0	2266.0	2278.0	2278.0	2278.0	2281.0	2281.0	2249.0	2249.0	2249.0	2295.0	2295.0	2268.0	2268.0	2268.0	2278.0	2278.0	2278.0	2278.0	2278.0	2292.0	2292.0	2256.0	2256.0	2256.0	2271.0	2271.0	2287.0	2287.0	2287.0	2269.0	2269.0	2301.0	2301.0	2301.0	2266.0	2266.0	2297.0	2297.0	2297.0	2302.0	2302.0	2274.0	2274.0	2274.0	2278.0	2278.0	2297.0	2297.0	2297.0	2275.0	2275.0	2300.0	2300.0	2300.0	2297.0	2297.0	2264.0	2264.0	2264.0	2261.0	2261.0	2266.0	2266.0	2266.0	2287.0	2287.0	2275.0	2275.0	2275.0	2272.0	2272.0	2259.0	2259.0	2259.0	2258.0	2258.0	2256.0	2256.0	2256.0	2260.0	2260.0	2257.0	2257.0	2257.0	2272.0	2272.0	2263.0	2263.0	2263.0	2260.0	2260.0	2235.0	2235.0	2235.0	2265.0	2265.0	2245.0	2245.0	2245.0	2228.0	2228.0	2245.0	2245.0	2245.0	2231.0	2231.0	2247.0	2247.0	2247.0	2221.0	2221.0	2204.0	2204.0	2204.0	2197.0	2197.0	2214.0	2214.0	2214.0	2188.0	2188.0	2190.0	2190.0	2190.0	2211.0	2211.0	2185.0	2185.0	2185.0	2200.0	2200.0	2186.0	2186.0	2186.0	2182.0	2182.0	2180.0	2180.0	2180.0	2182.0	2182.0	2157.0	2157.0	2157.0	2137.0	2137.0	2160.0	2160.0	2160.0	2142.0	2142.0	2133.0	2133.0	2133.0	2144.0	2144.0	2115.0	2115.0	2115.0	2130.0	2130.0	2119.0	2119.0	2119.0	2099.0	2099.0	2133.0	2133.0	2133.0	2134.0	2134.0	2091.0	2091.0	2091.0	2096.0	2096.0	2116.0	2116.0	2093.0	2093.0	2093.0	2077.0	2077.0	2076.0	2076.0	2076.0	2086.0	2086.0	2064.0	2064.0	2064.0	2054.0	2054.0	2056.0	2056.0	2056.0	2074.0	2074.0	2068.0	2068.0	2068.0	2088.0	2088.0	2056.0	2056.0	2056.0	2045.0	2045.0	2028.0	2028.0	2028.0	2049.0	2049.0	2072.0	2072.0	2072.0	2020.0	2020.0	2016.0	2016.0	2016.0	2015.0	2015.0	2048.0	2048.0	2048.0	2040.0	2040.0	2009.0	2009.0	2009.0	1999.0	1999.0	2021.0	2021.0	2021.0	2030.0	2030.0	2016.0	2016.0	2016.0	2003.0	2003.0	2032.0	2032.0	2032.0	2009.0	2009.0	2020.0	2020.0	2020.0	2027.0	2027.0	2014.0	2014.0	2014.0	2019.0	2019.0	1990.0	1990.0	1990.0	2001.0	2001.0	2019.0	2019.0	2019.0	2028.0	2028.0	1997.0	1997.0	1997.0	1981.0	1981.0	2004.0	2004.0	2004.0	1989.0	1989.0	1972.0	1972.0	1972.0	1980.0	1980.0	1988.0	1988.0	1988.0	1996.0	1996.0	1980.0	1980.0	1980.0	1984.0	1984.0	1974.0	1974.0	1974.0	2000.0	2000.0	1979.0	1979.0	1979.0	1989.0	1989.0	1949.0	1949.0	1949.0	1944.0	1944.0	1994.0	1994.0	1994.0	1979.0	1979.0	1980.0	1980.0	1980.0	1978.0	1978.0	1945.0	1945.0	1945.0	1965.0	1965.0	1958.0	1958.0	1958.0	1963.0	1963.0	1956.0	1956.0	1956.0	1968.0	1968.0	1969.0	1969.0	1969.0	1927.0	1927.0	1951.0	1951.0	1951.0	1950.0	1950.0	1951.0	1951.0	1951.0	1961.0	1961.0	1949.0	1949.0	1949.0	1949.0	1949.0	1940.0	1940.0	1940.0	1922.0	1922.0	1965.0	1965.0	1965.0	1948.0	1948.0	1958.0	1958.0	1958.0	1920.0	1920.0	1942.0	1942.0	1942.0	1929.0	1929.0	1913.0	1913.0	1913.0	1903.0	1903.0	1897.0	1897.0	1912.0	1912.0	1912.0	1905.0	1905.0	1914.0	1914.0	1914.0	1909.0	1909.0	1918.0	1918.0	1918.0	1916.0	1916.0	1929.0	1929.0	1929.0	1902.0	1902.0	1923.0	1923.0	1923.0	1901.0	1901.0	1903.0	1903.0	1903.0	1908.0	1908.0	1926.0	1926.0	1926.0	1890.0	1890.0	1885.0	1885.0	1885.0	1909.0	1909.0	1911.0	1911.0	1911.0	1887.0	1887.0	1916.0	1916.0	1916.0	1905.0	1905.0	1904.0	1904.0	1904.0	1864.0	1864.0	1906.0	1906.0	1906.0	1873.0	1873.0	1864.0	1864.0	1864.0	1887.0	1887.0	1909.0	1909.0	1909.0	1899.0	1899.0	1871.0	1871.0	1871.0	1900.0	1900.0	1896.0	1896.0	1896.0	1870.0	1870.0	1884.0	1884.0	1884.0	1895.0	1895.0	1854.0	1854.0	1854.0	1860.0	1860.0	1858.0	1858.0	1858.0	1873.0	1873.0	1867.0	1867.0	1867.0	1865.0	1865.0	1859.0	1859.0	1859.0	1854.0	1854.0	1884.0	1884.0	1884.0	1867.0	1867.0	1877.0	1877.0	1877.0	1851.0	1851.0	1874.0	1874.0	1874.0	1861.0	1861.0	1859.0	1859.0	1859.0	1881.0	1881.0	1844.0	1844.0	1844.0	1877.0	1877.0	1867.0	1867.0	1867.0	1863.0	1863.0	1849.0	1849.0	1849.0	1849.0	1849.0	1853.0	1853.0	1853.0	1839.0	1839.0	1848.0	1848.0	1848.0	1853.0	1853.0	1832.0	1832.0	1832.0	1857.0	1857.0	1840.0	1840.0	1840.0	1836.0	1836.0	1858.0	1858.0	1858.0	1838.0	1838.0	1840.0	1840.0	1840.0	1859.0	1859.0	1837.0	1837.0	1837.0	1831.0	1831.0	1843.0	1843.0	1843.0	1852.0	1852.0	1836.0	1836.0	1836.0	1856.0	1856.0	1852.0	1852.0	1852.0	1836.0	1836.0	1826.0	1826.0	1826.0	1840.0	1840.0	1843.0	1843.0	1843.0	1830.0	1830.0	1809.0	1809.0	1809.0	1820.0	1820.0	1836.0	1836.0	1834.0	1834.0	1834.0	1856.0	1856.0	1817.0	1817.0	1817.0	1815.0	1815.0	1842.0	1842.0	1842.0	1838.0	1838.0	1842.0	1842.0	1842.0	1847.0	1847.0	1832.0	1832.0	1832.0	1845.0	1845.0	1810.0	1810.0	1810.0	1803.0	1803.0	1824.0	1824.0	1824.0	1819.0	1819.0	1807.0	1807.0	1807.0	1823.0	1823.0	1815.0	1815.0	1815.0	1804.0	1804.0	1813.0	1813.0	1813.0	1839.0	1839.0	1814.0	1814.0	1814.0	1803.0	1803.0	1829.0	1829.0	1829.0	1836.0	1836.0	1789.0	1789.0	1789.0	1825.0	1825.0	1822.0	1822.0	1822.0	1842.0	1842.0	1829.0	1829.0	1829.0	1801.0	1801.0	1823.0	1823.0	1823.0	1815.0	1815.0	1809.0	1809.0	1809.0	1806.0	1806.0	1820.0	1820.0	1820.0	1802.0	1802.0	1796.0	1796.0	1796.0	1791.0	1791.0	1818.0	1818.0	1818.0	1816.0	1816.0	1815.0	1815.0	1815.0	1805.0	1805.0	1786.0	1786.0	1786.0	1798.0	1798.0	1789.0	1789.0	1789.0	