2339.0	2326.0	2326.0	2342.0	2342.0	2342.0	2305.0	2305.0	2318.0	2318.0	2318.0	2291.0	2291.0	2293.0	2293.0	2293.0	2283.0	2283.0	2283.0	2283.0	2283.0	2262.0	2262.0	2279.0	2279.0	2279.0	2243.0	2243.0	2255.0	2255.0	2255.0	2264.0	2264.0	2238.0	2238.0	2238.0	2234.0	2234.0	2219.0	2219.0	2219.0	2206.0	2206.0	2210.0	2210.0	2210.0	2193.0	2193.0	2193.0	2193.0	2193.0	2205.0	2205.0	2195.0	2195.0	2195.0	2192.0	2192.0	2199.0	2199.0	2199.0	2188.0	2188.0	2191.0	2191.0	2191.0	2163.0	2163.0	2183.0	2183.0	2183.0	2152.0	2152.0	2161.0	2161.0	2161.0	2135.0	2135.0	2166.0	2166.0	2166.0	2142.0	2142.0	2171.0	2171.0	2171.0	2120.0	2120.0	2147.0	2147.0	2147.0	2127.0	2127.0	2110.0	2110.0	2110.0	2137.0	2137.0	2112.0	2112.0	2112.0	2109.0	2109.0	2109.0	2109.0	2109.0	2085.0	2085.0	2108.0	2108.0	2108.0	2096.0	2096.0	2105.0	2105.0	2105.0	2068.0	2068.0	2081.0	2081.0	2081.0	2101.0	2101.0	2087.0	2087.0	2087.0	2067.0	2067.0	2094.0	2094.0	2094.0	2061.0	2061.0	2089.0	2089.0	2089.0	2064.0	2064.0	2072.0	2072.0	2072.0	2071.0	2071.0	2042.0	2042.0	2042.0	2051.0	2051.0	2041.0	2041.0	2041.0	2049.0	2049.0	2058.0	2058.0	2058.0	2061.0	2061.0	2024.0	2024.0	2024.0	2036.0	2036.0	2009.0	2009.0	2009.0	2031.0	2031.0	2041.0	2041.0	2041.0	2012.0	2012.0	2014.0	2014.0	2014.0	1980.0	1980.0	1994.0	1994.0	1994.0	1983.0	1983.0	1974.0	1974.0	1974.0	1996.0	1996.0	1984.0	1984.0	1984.0	1995.0	1995.0	1979.0	1979.0	1979.0	1993.0	1993.0	1961.0	1961.0	1961.0	1968.0	1968.0	1959.0	1959.0	1959.0	1964.0	1964.0	1940.0	1940.0	1967.0	1967.0	1967.0	1968.0	1968.0	1930.0	1930.0	1930.0	1954.0	1954.0	1921.0	1921.0	1921.0	1949.0	1949.0	1932.0	1932.0	1932.0	1931.0	1931.0	1914.0	1914.0	1914.0	1943.0	1943.0	1891.0	1891.0	1891.0	1927.0	1927.0	1924.0	1924.0	1924.0	1932.0	1932.0	1897.0	1897.0	1897.0	1916.0	1916.0	1913.0	1913.0	1913.0	1889.0	1889.0	1900.0	1900.0	1900.0	1881.0	1881.0	1878.0	1878.0	1878.0	1872.0	1872.0	1854.0	1854.0	1854.0	1864.0	1864.0	1888.0	1888.0	1888.0	1863.0	1863.0	1856.0	1856.0	1856.0	1858.0	1858.0	1856.0	1856.0	1856.0	1851.0	1851.0	1882.0	1882.0	1882.0	1834.0	1834.0	1863.0	1863.0	1863.0	1861.0	1861.0	1857.0	1857.0	1857.0	1838.0	1838.0	1827.0	1827.0	1827.0	1827.0	1827.0	1822.0	1822.0	1822.0	1843.0	1843.0	1841.0	1841.0	1841.0	1839.0	1839.0	1830.0	1830.0	1830.0	1816.0	1816.0	1833.0	1833.0	1833.0	1811.0	1811.0	1837.0	1837.0	1837.0	1814.0	1814.0	1799.0	1799.0	1799.0	1826.0	1826.0	1827.0	1827.0	1827.0	1793.0	1793.0	1820.0	1820.0	1820.0	1830.0	1830.0	1829.0	1829.0	1829.0	1811.0	1811.0	1806.0	1806.0	1806.0	1806.0	1806.0	1821.0	1821.0	1821.0	1802.0	1802.0	1795.0	1795.0	1795.0	1784.0	1784.0	1779.0	1779.0	1779.0	1806.0	1806.0	1780.0	1780.0	1780.0	1776.0	1776.0	1762.0	1762.0	1762.0	1823.0	1823.0	1802.0	1802.0	1802.0	1791.0	1791.0	1776.0	1776.0	1776.0	1774.0	1774.0	1758.0	1758.0	1758.0	1764.0	1764.0	1768.0	1768.0	1768.0	1800.0	1800.0	1770.0	1770.0	1770.0	1771.0	1771.0	1789.0	1789.0	1789.0	1760.0	1760.0	1739.0	1739.0	1770.0	1770.0	1770.0	1762.0	1762.0	1745.0	1745.0	1745.0	1759.0	1759.0	1758.0	1758.0	1758.0	1761.0	1761.0	1728.0	1728.0	1728.0	1765.0	1765.0	1745.0	1745.0	1745.0	1736.0	1736.0	1760.0	1760.0	1760.0	1719.0	1719.0	1709.0	1709.0	1709.0	1721.0	1721.0	1752.0	1752.0	1752.0	1750.0	1750.0	1759.0	1759.0	1759.0	1742.0	1742.0	1736.0	1736.0	1736.0	1716.0	1716.0	1708.0	1708.0	1708.0	1718.0	1718.0	1722.0	1722.0	1722.0	1712.0	1712.0	1748.0	1748.0	1748.0	1749.0	1749.0	1749.0	1749.0	1749.0	1735.0	1735.0	1728.0	1728.0	1728.0	1731.0	1731.0	1768.0	1768.0	1768.0	1720.0	1720.0	1756.0	1756.0	1756.0	1767.0	1767.0	1784.0	1784.0	1784.0	1765.0	1765.0	1803.0	1803.0	1803.0	1810.0	1810.0	1810.0	1810.0	1810.0	1816.0	1816.0	1831.0	1831.0	1831.0	1894.0	1894.0	1867.0	1867.0	1867.0	1911.0	1911.0	1922.0	1922.0	1922.0	1904.0	1904.0	1969.0	1969.0	1969.0	1972.0	1972.0	1996.0	1996.0	1996.0	1984.0	1984.0	2011.0	2011.0	2011.0	2039.0	2039.0	2059.0	2059.0	2059.0	2062.0	2062.0	2075.0	2075.0	2075.0	2091.0	2091.0	2092.0	2092.0	2092.0	2134.0	2134.0	2136.0	2136.0	2136.0	2171.0	2171.0	2182.0	2182.0	2182.0	2185.0	2185.0	2201.0	2201.0	2201.0	2224.0	2224.0	2216.0	2216.0	2216.0	2250.0	2250.0	2256.0	2256.0	2256.0	2261.0	2261.0	2259.0	2259.0	2259.0	2267.0	2267.0	2291.0	2291.0	2291.0	2284.0	2284.0	2284.0	2284.0	2284.0	2289.0	2289.0	2299.0	2299.0	2299.0	2296.0	2296.0	2325.0	2325.0	2325.0	2320.0	2320.0	2319.0	2319.0	2319.0	2327.0	2327.0	2321.0	2321.0	2321.0	2332.0	2332.0	2343.0	2343.0	2334.0	2334.0	2334.0	2357.0	2357.0	2351.0	2351.0	2351.0	2345.0	2345.0	2375.0	2375.0	2375.0	2369.0	2369.0	2352.0	2352.0	2352.0	2367.0	2367.0	2353.0	2353.0	2353.0	2377.0	2377.0	2370.0	2370.0	2370.0	2351.0	2351.0	2392.0	2392.0	2392.0	2354.0	2354.0	2398.0	2398.0	2398.0	2387.0	2387.0	2387.0	2387.0	2387.0	2377.0	2377.0	2390.0	2390.0	2390.0	2380.0	2380.0	2366.0	2366.0	2366.0	2372.0	2372.0	2375.0	2375.0	2375.0	2360.0	2360.0	2397.0	2397.0	2397.0	2390.0	2390.0	2407.0	2407.0	2407.0	2387.0	2387.0	2382.0	2382.0	2382.0	2367.0	2367.0	2380.0	2380.0	2380.0	2398.0	2398.0	2379.0	2379.0	2379.0	2364.0	2364.0	2369.0	2369.0	2369.0	2371.0	2371.0	2377.0	2377.0	2377.0	2371.0	2371.0	2372.0	2372.0	2372.0	2378.0	2378.0	2366.0	2366.0	2366.0	2372.0	2372.0	2387.0	2387.0	2387.0	2346.0	2346.0	2360.0	2360.0	2360.0	2352.0	2352.0	2369.0	2369.0	2369.0	2360.0	2360.0	2336.0	2336.0	2336.0	2341.0	2341.0	2355.0	2355.0	2355.0	2312.0	2312.0	2294.0	2294.0	2294.0	2303.0	2303.0	2316.0	2316.0	2316.0	2299.0	2299.0	2275.0	2275.0	2275.0	2290.0	2290.0	2281.0	2281.0	2281.0	2285.0	2285.0	2249.0	2249.0	2249.0	2273.0	2273.0	2278.0	2278.0	2278.0	2223.0	2223.0	2236.0	2236.0	2236.0	2197.0	2197.0	2210.0	2210.0	2210.0	2196.0	2196.0	2188.0	2188.0	2188.0	2192.0	2192.0	2174.0	2174.0	2174.0	2193.0	2193.0	2183.0	2183.0	2183.0	2170.0	2170.0	2161.0	2161.0	2161.0	2135.0	2135.0	2155.0	2155.0	2155.0	2131.0	2131.0	2159.0	2159.0	2159.0	2111.0	2111.0	2128.0	2128.0	2142.0	2142.0	2142.0	2111.0	2111.0	2114.0	2114.0	2114.0	2121.0	2121.0	2120.0	2120.0	2120.0	2123.0	2123.0	2087.0	2087.0	2087.0	2088.0	2088.0	2116.0	2116.0	2116.0	2082.0	2082.0	2067.0	2067.0	2067.0	2067.0	2067.0	2083.0	2083.0	2083.0	2058.0	2058.0	2053.0	2053.0	2053.0	2064.0	2064.0	2055.0	2055.0	2055.0	2050.0	2050.0	2040.0	2040.0	2040.0	2041.0	2041.0	2042.0	2042.0	2042.0	2051.0	2051.0	2031.0	2031.0	2031.0	2056.0	2056.0	2023.0	2023.0	2023.0	2041.0	2041.0	2043.0	2043.0	2043.0	2022.0	2022.0	2018.0	2018.0	2018.0	2013.0	2013.0	2044.0	2044.0	2044.0	2018.0	2018.0	2005.0	2005.0	2005.0	1994.0	1994.0	1998.0	1998.0	1998.0	2004.0	2004.0	2008.0	2008.0	2008.0	2014.0	2014.0	1977.0	1977.0	1977.0	1969.0	1969.0	1976.0	1976.0	1976.0	1976.0	1976.0	1973.0	1973.0	1973.0	1958.0	1958.0	1962.0	1962.0	1962.0	1970.0	1970.0	1966.0	1966.0	1966.0	1947.0	1947.0	1964.0	1964.0	1964.0	1925.0	1925.0	1921.0	1921.0	1921.0	1919.0	1919.0	1933.0	1933.0	1933.0	1903.0	1903.0	1948.0	1948.0	1948.0	1923.0	1923.0	1888.0	1888.0	1888.0	1902.0	1902.0	1930.0	1930.0	1930.0	1886.0	1886.0	1923.0	1923.0	1923.0	1908.0	1908.0	1897.0	1897.0	1897.0	1872.0	1872.0	1898.0	1898.0	1898.0	1894.0	1894.0	1893.0	1893.0	1893.0	1869.0	1869.0	1875.0	1875.0	1875.0	1889.0	1889.0	1852.0	1852.0	1852.0	1862.0	1862.0	1854.0	1854.0	1854.0	1856.0	1856.0	1838.0	1838.0	1838.0	1875.0	1875.0	1831.0	1831.0	1831.0	1834.0	1834.0	1851.0	1851.0	1851.0	1825.0	1825.0	1830.0	1830.0	1824.0	1824.0	1824.0	1848.0	1848.0	1811.0	1811.0	1811.0	1815.0	1815.0	1825.0	1825.0	1825.0	1825.0	1825.0	1843.0	1843.0	1843.0	1810.0	1810.0	1813.0	1813.0	1813.0	1788.0	1788.0	1782.0	1782.0	1782.0	1796.0	1796.0	1807.0	1807.0	1807.0	1780.0	1780.0	1776.0	1776.0	1776.0	1819.0	1819.0	1779.0	1779.0	1779.0	1784.0	1784.0	1767.0	1767.0	1767.0	1788.0	1788.0	1777.0	1777.0	1777.0	1784.0	1784.0	1781.0	1781.0	1781.0	1798.0	1798.0	1787.0	1787.0	1787.0	1799.0	1799.0	1759.0	1759.0	1759.0	1743.0	1743.0	1760.0	1760.0	1760.0	1739.0	1739.0	1785.0	1785.0	1785.0	1745.0	1745.0	1775.0	1775.0	1775.0	1773.0	1773.0	1743.0	1743.0	1743.0	1736.0	1736.0	1734.0	1734.0	1734.0	1755.0	1755.0	1773.0	1773.0	1773.0	1727.0	1727.0	1757.0	1757.0	1757.0	1730.0	1730.0	1728.0	1728.0	1728.0	1729.0	1729.0	1714.0	1714.0	1714.0	1749.0	1749.0	1754.0	1754.0	1754.0	1728.0	1728.0	1725.0	1725.0	1725.0	1729.0	1729.0	1709.0	1709.0	1709.0	1734.0	1734.0	1738.0	1738.0	1738.0	1711.0	1711.0	1723.0	1723.0	1723.0	1714.0	1714.0	1706.0	1706.0	1706.0	1705.0	1705.0	1690.0	1690.0	1690.0	1694.0	1694.0	1739.0	1739.0	1739.0	1687.0	1687.0	1718.0	1718.0	1718.0	1719.0	1719.0	1723.0	1723.0	1723.0	1723.0	1723.0	1703.0	1703.0	1703.0	1715.0	1715.0	1710.0	1710.0	1710.0	1687.0	1687.0	1680.0	1680.0	1680.0	1691.0	1691.0	1692.0	1692.0	1692.0	1730.0	1730.0	1678.0	1678.0	1678.0	1720.0	1720.0	1716.0	1716.0	1716.0	1673.0	1673.0	1674.0	1674.0	1674.0	1701.0	1701.0	1676.0	1676.0	1676.0	1662.0	1662.0	1683.0	1683.0	1681.0	1681.0	1681.0	1689.0	1689.0	1679.0	1679.0	1679.0	1653.0	1653.0	1711.0	1711.0	1711.0	1696.0	1696.0	1694.0	1694.0	1694.0	1699.0	1699.0	1677.0	1677.0	1677.0	1662.0	1662.0	1670.0	1670.0	1670.0	1694.0	1694.0	1695.0	1695.0	1695.0	1731.0	1731.0	1701.0	1701.0	1701.0	1717.0	1717.0	1705.0	1705.0	1705.0	1719.0	1719.0	1747.0	1747.0	1747.0	1759.0	1759.0	1771.0	1771.0	1771.0	1807.0	1807.0	1781.0	1781.0	1781.0	1795.0	1795.0	1829.0	1829.0	1829.0	1822.0	1822.0	1836.0	1836.0	1836.0	1866.0	1866.0	1899.0	1899.0	1899.0	1891.0	1891.0	1936.0	1936.0	1936.0	1931.0	1931.0	1968.0	1968.0	1968.0	1979.0	1979.0	1984.0	1984.0	1984.0	2030.0	2030.0	2007.0	2007.0	2007.0	2019.0	2019.0	2051.0	2051.0	2051.0	2102.0	2102.0	2084.0	2084.0	2084.0	2117.0	2117.0	2098.0	2098.0	2098.0	2114.0	2114.0	2148.0	2148.0	2148.0	2155.0	2155.0	2155.0	2155.0	2155.0	2168.0	2168.0	2176.0	2176.0	2176.0	2172.0	2172.0	2183.0	2183.0	2183.0	2217.0	2217.0	2224.0	2224.0	2224.0	2221.0	2221.0	2235.0	2235.0	2235.0	2247.0	2247.0	2241.0	2241.0	2241.0	2226.0	2226.0	2230.0	2230.0	2230.0	2279.0	2279.0	2286.0	2286.0	2286.0	2271.0	2271.0	2253.0	2253.0	2253.0	2283.0	2283.0	2280.0	2280.0	2280.0	2267.0	2267.0	2304.0	2304.0	2304.0	2298.0	2298.0	2304.0	2304.0	2304.0	2305.0	2305.0	2280.0	2280.0	2280.0	2300.0	2300.0	2292.0	2292.0	2292.0	2300.0	2300.0	2284.0	2284.0	2284.0	2313.0	2313.0	2334.0	2334.0	2334.0	2320.0	2320.0	2332.0	2332.0	2332.0	2327.0	2327.0	2309.0	2309.0	2299.0	2299.0	2299.0	2308.0	2308.0	2308.0	2308.0	2308.0	2324.0	2324.0	2305.0	2305.0	2305.0	2305.0	2305.0	2314.0	2314.0	2314.0	2300.0	2300.0	2306.0	2306.0	2306.0	2318.0	2318.0	2334.0	2334.0	2334.0	2324.0	2324.0	2305.0	2305.0	2305.0	2305.0	2305.0	2313.0	2313.0	2313.0	2320.0	2320.0	2306.0	2306.0	2306.0	2321.0	2321.0	2326.0	2326.0	2326.0	2316.0	2316.0	2309.0	2309.0	2309.0	2314.0	2314.0	2304.0	2304.0	2304.0	2341.0	2341.0	2299.0	2299.0	2299.0	2304.0	2304.0	2318.0	2318.0	2318.0	2306.0	2306.0	2292.0	2292.0	2292.0	2311.0	2311.0	2286.0	2286.0	2286.0	2280.0	2280.0	2304.0	2304.0	2304.0	2287.0	2287.0	2301.0	2301.0	2301.0	2258.0	2258.0	2275.0	2275.0	2275.0	2259.0	2259.0	2295.0	2295.0	2295.0	2262.0	2262.0	2262.0	2262.0	2262.0	2231.0	2231.0	2245.0	2245.0	2245.0	2222.0	2222.0	2229.0	2229.0	2229.0	2235.0	2235.0	2192.0	2192.0	2192.0	2206.0	2206.0	2187.0	2187.0	2187.0	2195.0	2195.0	2174.0	2174.0	2174.0	2159.0	2159.0	2159.0	2159.0	2159.0	2158.0	2158.0	2131.0	2131.0	2131.0	2152.0	2152.0	2163.0	2163.0	2163.0	2152.0	2152.0	2126.0	2126.0	2126.0	2101.0	2101.0	2103.0	2103.0	2103.0	2086.0	2086.0	2087.0	2087.0	2087.0	2078.0	2078.0	2083.0	2083.0	2083.0	2096.0	2096.0	2063.0	2063.0	2063.0	2072.0	2072.0	2070.0	2070.0	2070.0	2060.0	2060.0	2075.0	2075.0	2075.0	2079.0	2079.0	2049.0	2049.0	2049.0	2033.0	2033.0	2053.0	2053.0	2053.0	2056.0	2056.0	2036.0	2036.0	2036.0	2040.0	2040.0	2051.0	2051.0	2051.0	2054.0	2054.0	2020.0	2020.0	2040.0	2040.0	2040.0	2007.0	2007.0	2046.0	2046.0	2046.0	2034.0	2034.0	2018.0	2018.0	2018.0	2037.0	2037.0	2022.0	2022.0	2022.0	1998.0	1998.0	2027.0	2027.0	2027.0	2001.0	2001.0	1983.0	1983.0	1983.0	1990.0	1990.0	2000.0	2000.0	2000.0	2005.0	2005.0	1994.0	1994.0	1994.0	1978.0	1978.0	1948.0	1948.0	1948.0	1972.0	1972.0	1972.0	1972.0	1972.0	1943.0	1943.0	1963.0	1963.0	1963.0	1955.0	1955.0	1952.0	1952.0	1952.0	1962.0	1962.0	1962.0	1962.0	1962.0	1956.0	1956.0	1931.0	1931.0	1931.0	1950.0	1950.0	1933.0	1933.0	1933.0	1954.0	1954.0	1933.0	1933.0	1933.0	1950.0	1950.0	1915.0	1915.0	1915.0	1920.0	1920.0	1910.0	1910.0	1910.0	1897.0	1897.0	1924.0	1924.0	1924.0	1894.0	1894.0	1903.0	1903.0	1903.0	1870.0	1870.0	1870.0	1870.0	1870.0	1886.0	1886.0	1874.0	1874.0	1874.0	1897.0	1897.0	1864.0	1864.0	1864.0	1881.0	1881.0	1862.0	1862.0	1862.0	1864.0	1864.0	1884.0	1884.0	1884.0	1847.0	1847.0	1873.0	1873.0	1873.0	1868.0	1868.0	1844.0	1844.0	1844.0	1852.0	1852.0	1826.0	1826.0	1826.0	1826.0	1826.0	1849.0	1849.0	1849.0	1823.0	1823.0	1855.0	1855.0	1855.0	1799.0	1799.0	1852.0	1852.0	1852.0	1851.0	1851.0	1852.0	1852.0	1852.0	1831.0	1831.0	1818.0	1818.0	1818.0	1798.0	1798.0	1823.0	1823.0	1823.0	1816.0	1816.0	1787.0	1787.0	1787.0	1792.0	1792.0	1792.0	1792.0	1792.0	1807.0	1807.0	1811.0	1811.0	1811.0	1804.0	1804.0	1780.0	1780.0	1780.0	1786.0	1786.0	1771.0	1771.0	1771.0	1783.0	1783.0	1793.0	1793.0	1793.0	1792.0	1792.0	1801.0	1801.0	1801.0	1779.0	1779.0	1744.0	1744.0	1757.0	1757.0	1757.0	1769.0	1769.0	1746.0	1746.0	1746.0	1792.0	1792.0	1788.0	1788.0	1788.0	1748.0	1748.0	1784.0	1784.0	1784.0	1760.0	1760.0	1746.0	1746.0	1746.0	1779.0	1779.0	1743.0	1743.0	1743.0	1775.0	1775.0	1763.0	1763.0	1763.0	1764.0	1764.0	1746.0	1746.0	1746.0	1746.0	1746.0	1771.0	1771.0	1771.0	1761.0	1761.0	1725.0	1725.0	1725.0	1768.0	1768.0	1752.0	1752.0	1752.0	1751.0	1751.0	1714.0	1714.0	1714.0	1752.0	1752.0	1756.0	1756.0	1756.0	1757.0	1757.0	1741.0	1741.0	1741.0	1718.0	1718.0	1713.0	1713.0	1713.0	1759.0	1759.0	1710.0	1710.0	1710.0	1750.0	1750.0	1738.0	1738.0	1738.0	1718.0	1718.0	1709.0	1709.0	1709.0	1695.0	1695.0	1740.0	1740.0	1740.0	1723.0	1723.0	1731.0	1731.0	1731.0	1741.0	1741.0	1708.0	1708.0	1708.0	1735.0	1735.0	1721.0	1721.0	1721.0	1726.0	1726.0	1686.0	1686.0	1686.0	1721.0	1721.0	1706.0	1706.0	1706.0	1679.0	1679.0	1708.0	1708.0	1708.0	1686.0	1686.0	1677.0	1677.0	1677.0	1692.0	1692.0	1695.0	1695.0	1695.0	1686.0	1686.0	1692.0	1692.0	1692.0	1669.0	1669.0	1681.0	1681.0	1681.0	1678.0	1678.0	1673.0	1673.0	1673.0	1698.0	1698.0	1703.0	1703.0	1703.0	1663.0	1663.0	1692.0	1692.0	1692.0	1683.0	1683.0	1671.0	1671.0	1671.0	1666.0	1666.0	1678.0	1678.0	1678.0	1672.0	1672.0	1670.0	1670.0	1670.0	1714.0	1714.0	1688.0	1688.0	1688.0	1655.0	1655.0	1681.0	1681.0	1681.0	1677.0	1677.0	1685.0	1685.0	1685.0	1700.0	1700.0	1679.0	1679.0	1679.0	1711.0	1711.0	1704.0	1704.0	1704.0	1729.0	1729.0	1756.0	1756.0	1737.0	1737.0	1737.0	1739.0	1739.0	1775.0	1775.0	1775.0	1771.0	1771.0	1767.0	1767.0	1767.0	1809.0	1809.0	1825.0	1825.0	1825.0	1835.0	1835.0	1870.0	1870.0	1870.0	1881.0	1881.0	1873.0	1873.0	1873.0	1893.0	1893.0	1908.0	1908.0	1908.0	1971.0	1971.0	1926.0	1926.0	1926.0	1970.0	1970.0	1975.0	1975.0	1975.0	1979.0	1979.0	2042.0	2042.0	2042.0	2022.0	2022.0	2046.0	2046.0	2046.0	2075.0	2075.0	2107.0	2107.0	