1951.0	1960.0	1960.0	1960.0	1968.0	1968.0	1951.0	1951.0	1951.0	1966.0	1966.0	1968.0	1968.0	1968.0	1959.0	1959.0	1953.0	1953.0	1953.0	1927.0	1927.0	1929.0	1929.0	1929.0	1934.0	1934.0	1945.0	1945.0	1945.0	1928.0	1928.0	1928.0	1928.0	1928.0	1906.0	1906.0	1903.0	1903.0	1903.0	1927.0	1927.0	1921.0	1921.0	1921.0	1892.0	1892.0	1899.0	1899.0	1899.0	1898.0	1898.0	1887.0	1887.0	1912.0	1912.0	1912.0	1886.0	1886.0	1908.0	1908.0	1908.0	1878.0	1878.0	1882.0	1882.0	1882.0	1871.0	1871.0	1907.0	1907.0	1907.0	1867.0	1867.0	1895.0	1895.0	1895.0	1860.0	1860.0	1873.0	1873.0	1873.0	1879.0	1879.0	1895.0	1895.0	1895.0	1879.0	1879.0	1871.0	1871.0	1871.0	1857.0	1857.0	1870.0	1870.0	1870.0	1854.0	1854.0	1865.0	1865.0	1865.0	1876.0	1876.0	1846.0	1846.0	1846.0	1884.0	1884.0	1873.0	1873.0	1873.0	1864.0	1864.0	1863.0	1863.0	1863.0	1860.0	1860.0	1844.0	1844.0	1844.0	1866.0	1866.0	1854.0	1854.0	1854.0	1835.0	1835.0	1860.0	1860.0	1860.0	1854.0	1854.0	1846.0	1846.0	1846.0	1841.0	1841.0	1840.0	1840.0	1840.0	1848.0	1848.0	1827.0	1827.0	1827.0	1843.0	1843.0	1821.0	1821.0	1821.0	1835.0	1835.0	1848.0	1848.0	1848.0	1828.0	1828.0	1823.0	1823.0	1823.0	1825.0	1825.0	1859.0	1859.0	1859.0	1836.0	1836.0	1827.0	1827.0	1827.0	1829.0	1829.0	1817.0	1817.0	1817.0	1848.0	1848.0	1834.0	1834.0	1834.0	1817.0	1817.0	1843.0	1843.0	1843.0	1837.0	1837.0	1802.0	1802.0	1802.0	1820.0	1820.0	1835.0	1835.0	1835.0	1811.0	1811.0	1818.0	1818.0	1818.0	1801.0	1801.0	1825.0	1825.0	1825.0	1823.0	1823.0	1831.0	1831.0	1831.0	1811.0	1811.0	1833.0	1833.0	1833.0	1809.0	1809.0	1806.0	1806.0	1806.0	1803.0	1803.0	1797.0	1797.0	1797.0	1816.0	1816.0	1825.0	1825.0	1825.0	1812.0	1812.0	1796.0	1796.0	1796.0	1810.0	1810.0	1817.0	1817.0	1817.0	1803.0	1803.0	1803.0	1803.0	1803.0	1804.0	1804.0	1806.0	1806.0	1806.0	1787.0	1787.0	1784.0	1784.0	1784.0	1798.0	1798.0	1810.0	1810.0	1802.0	1802.0	1802.0	1806.0	1806.0	1799.0	1799.0	1799.0	1811.0	1811.0	1796.0	1796.0	1796.0	1807.0	1807.0	1791.0	1791.0	1791.0	1780.0	1780.0	1803.0	1803.0	1803.0	1789.0	1789.0	1810.0	1810.0	1810.0	1799.0	1799.0	1809.0	1809.0	1809.0	1807.0	1807.0	1798.0	1798.0	1798.0	1805.0	1805.0	1789.0	1789.0	1789.0	1784.0	1784.0	1813.0	1813.0	1813.0	1809.0	1809.0	1788.0	1788.0	1788.0	1803.0	1803.0	1780.0	1780.0	1780.0	1778.0	1778.0	1809.0	1809.0	1809.0	1797.0	1797.0	1792.0	1792.0	1792.0	1777.0	1777.0	1794.0	1794.0	1794.0	1778.0	1778.0	1780.0	1780.0	1780.0	1809.0	1809.0	1806.0	1806.0	1806.0	1781.0	1781.0	1800.0	1800.0	1800.0	1820.0	1820.0	1810.0	1810.0	1810.0	1783.0	1783.0	1786.0	1786.0	1786.0	1803.0	1803.0	1786.0	1786.0	1786.0	1826.0	1826.0	1812.0	1812.0	1812.0	1803.0	1803.0	1811.0	1811.0	1811.0	1799.0	1799.0	1792.0	1792.0	1792.0	1788.0	1788.0	1789.0	1789.0	1789.0	1805.0	1805.0	1801.0	1801.0	1801.0	1799.0	1799.0	1785.0	1785.0	1785.0	1800.0	1800.0	1795.0	1795.0	1795.0	1795.0	1795.0	1801.0	1801.0	1801.0	1816.0	1816.0	1801.0	1801.0	1801.0	1787.0	1787.0	1791.0	1791.0	1791.0	1802.0	1802.0	1796.0	1796.0	1796.0	1796.0	1796.0	1805.0	1805.0	1805.0	1809.0	1809.0	1808.0	1808.0	1808.0	1787.0	1787.0	1802.0	1802.0	1802.0	1779.0	1779.0	1797.0	1797.0	1797.0	1788.0	1788.0	1784.0	1784.0	1784.0	1792.0	1792.0	1813.0	1813.0	1813.0	1799.0	1799.0	1810.0	1810.0	1810.0	1784.0	1784.0	1776.0	1776.0	1776.0	1764.0	1764.0	1785.0	1785.0	1788.0	1788.0	1788.0	1791.0	1791.0	1786.0	1786.0	1786.0	1794.0	1794.0	1783.0	1783.0	1783.0	1768.0	1768.0	1772.0	1772.0	1772.0	1776.0	1776.0	1787.0	1787.0	1787.0	1778.0	1778.0	1755.0	1755.0	1755.0	1776.0	1776.0	1780.0	1780.0	1780.0	1777.0	1777.0	1783.0	1783.0	1783.0	1788.0	1788.0	1778.0	1778.0	1778.0	1781.0	1781.0	1781.0	1781.0	1781.0	1761.0	1761.0	1767.0	1767.0	1767.0	1781.0	1781.0	1758.0	1758.0	1758.0	1775.0	1775.0	1769.0	1769.0	1769.0	1782.0	1782.0	1779.0	1779.0	1779.0	1777.0	1777.0	1792.0	1792.0	1792.0	1788.0	1788.0	1802.0	1802.0	1802.0	1819.0	1819.0	1817.0	1817.0	1817.0	1819.0	1819.0	1838.0	1838.0	1838.0	1837.0	1837.0	1855.0	1855.0	1855.0	1865.0	1865.0	1882.0	1882.0	1882.0	1910.0	1910.0	1920.0	1920.0	1920.0	1951.0	1951.0	1990.0	1990.0	1990.0	2003.0	2003.0	2026.0	2026.0	2026.0	2041.0	2041.0	2048.0	2048.0	2048.0	2084.0	2084.0	2091.0	2091.0	2091.0	2086.0	2086.0	2120.0	2120.0	2120.0	2163.0	2163.0	2151.0	2151.0	2151.0	2188.0	2188.0	2161.0	2161.0	2161.0	2219.0	2219.0	2233.0	2233.0	2233.0	2219.0	2219.0	2229.0	2229.0	2229.0	2262.0	2262.0	2278.0	2278.0	2278.0	2287.0	2287.0	2308.0	2308.0	2308.0	2289.0	2289.0	2319.0	2319.0	2319.0	2335.0	2335.0	2332.0	2332.0	2332.0	2337.0	2337.0	2362.0	2362.0	2362.0	2356.0	2356.0	2353.0	2353.0	2353.0	2350.0	2350.0	2348.0	2348.0	2348.0	2389.0	2389.0	2368.0	2368.0	2368.0	2384.0	2384.0	2379.0	2379.0	2379.0	2377.0	2377.0	2395.0	2395.0	2395.0	2378.0	2378.0	2390.0	2390.0	2380.0	2380.0	2380.0	2387.0	2387.0	2394.0	2394.0	2394.0	2383.0	2383.0	2393.0	2393.0	2393.0	2408.0	2408.0	2391.0	2391.0	2391.0	2402.0	2402.0	2400.0	2400.0	2400.0	2393.0	2393.0	2404.0	2404.0	2404.0	2383.0	2383.0	2408.0	2408.0	2408.0	2387.0	2387.0	2406.0	2406.0	2406.0	2391.0	2391.0	2417.0	2417.0	2417.0	2389.0	2389.0	2389.0	2389.0	2389.0	2390.0	2390.0	2390.0	2390.0	2390.0	2417.0	2417.0	2400.0	2400.0	2400.0	2415.0	2415.0	2389.0	2389.0	2389.0	2401.0	2401.0	2403.0	2403.0	2403.0	2396.0	2396.0	2407.0	2407.0	2407.0	2409.0	2409.0	2408.0	2408.0	2408.0	2420.0	2420.0	2392.0	2392.0	2392.0	2426.0	2426.0	2417.0	2417.0	2417.0	2407.0	2407.0	2388.0	2388.0	2388.0	2414.0	2414.0	2421.0	2421.0	2421.0	2412.0	2412.0	2422.0	2422.0	2422.0	2393.0	2393.0	2407.0	2407.0	2407.0	2399.0	2399.0	2395.0	2395.0	2395.0	2398.0	2398.0	2378.0	2378.0	2378.0	2392.0	2392.0	2390.0	2390.0	2390.0	2385.0	2385.0	2376.0	2376.0	2376.0	2367.0	2367.0	2403.0	2403.0	2403.0	2391.0	2391.0	2379.0	2379.0	2379.0	2383.0	2383.0	2377.0	2377.0	2377.0	2346.0	2346.0	2361.0	2361.0	2361.0	2352.0	2352.0	2359.0	2359.0	2359.0	2343.0	2343.0	2333.0	2333.0	2333.0	2356.0	2356.0	2349.0	2349.0	2349.0	2327.0	2327.0	2291.0	2291.0	2291.0	2296.0	2296.0	2273.0	2273.0	2273.0	2285.0	2285.0	2271.0	2271.0	2271.0	2289.0	2289.0	2276.0	2276.0	2276.0	2246.0	2246.0	2241.0	2241.0	2241.0	2242.0	2242.0	2233.0	2233.0	2233.0	2195.0	2195.0	2215.0	2215.0	2215.0	2203.0	2203.0	2171.0	2171.0	2171.0	2185.0	2185.0	2151.0	2151.0	2162.0	2162.0	2162.0	2149.0	2149.0	2136.0	2136.0	2136.0	2127.0	2127.0	2135.0	2135.0	2135.0	2118.0	2118.0	2119.0	2119.0	2119.0	2087.0	2087.0	2099.0	2099.0	2099.0	2120.0	2120.0	2082.0	2082.0	2082.0	2073.0	2073.0	2086.0	2086.0	2086.0	2064.0	2064.0	2074.0	2074.0	2074.0	2077.0	2077.0	2080.0	2080.0	2080.0	2083.0	2083.0	2066.0	2066.0	2066.0	2042.0	2042.0	2042.0	2042.0	2042.0	2059.0	2059.0	2032.0	2032.0	2032.0	2063.0	2063.0	2039.0	2039.0	2039.0	2049.0	2049.0	2035.0	2035.0	2035.0	2065.0	2065.0	2042.0	2042.0	2042.0	2044.0	2044.0	2031.0	2031.0	2031.0	2013.0	2013.0	2035.0	2035.0	2035.0	2041.0	2041.0	2025.0	2025.0	2025.0	2032.0	2032.0	2016.0	2016.0	2016.0	2033.0	2033.0	2016.0	2016.0	2016.0	2007.0	2007.0	2031.0	2031.0	2031.0	1993.0	1993.0	2007.0	2007.0	2007.0	2006.0	2006.0	1989.0	1989.0	1989.0	1987.0	1987.0	2023.0	2023.0	2023.0	2016.0	2016.0	1992.0	1992.0	1992.0	1999.0	1999.0	1997.0	1997.0	1997.0	1994.0	1994.0	1974.0	1974.0	1974.0	1973.0	1973.0	1958.0	1958.0	1958.0	1988.0	1988.0	1963.0	1963.0	1963.0	1969.0	1969.0	1959.0	1959.0	1959.0	1973.0	1973.0	1964.0	1964.0	1964.0	1966.0	1966.0	1948.0	1948.0	1948.0	1956.0	1956.0	1945.0	1945.0	1945.0	1935.0	1935.0	1944.0	1944.0	1944.0	1935.0	1935.0	1923.0	1923.0	1923.0	1929.0	1929.0	1958.0	1958.0	1958.0	1924.0	1924.0	1924.0	1924.0	1924.0	1933.0	1933.0	1918.0	1918.0	1918.0	1924.0	1924.0	1921.0	1921.0	1921.0	1908.0	1908.0	1907.0	1907.0	1907.0	1898.0	1898.0	1904.0	1904.0	1916.0	1916.0	1916.0	1898.0	1898.0	1882.0	1882.0	1882.0	1894.0	1894.0	1908.0	1908.0	1908.0	1902.0	1902.0	1865.0	1865.0	1865.0	1881.0	1881.0	1874.0	1874.0	1874.0	1890.0	1890.0	1896.0	1896.0	1896.0	1874.0	1874.0	1859.0	1859.0	1859.0	1875.0	1875.0	1876.0	1876.0	1876.0	1869.0	1869.0	1855.0	1855.0	1855.0	1852.0	1852.0	1874.0	1874.0	1874.0	1855.0	1855.0	1848.0	1848.0	1848.0	1852.0	1852.0	1867.0	1867.0	1867.0	1834.0	1834.0	1852.0	1852.0	1852.0	1853.0	1853.0	1843.0	1843.0	1843.0	1858.0	1858.0	1852.0	1852.0	1852.0	1829.0	1829.0	1815.0	1815.0	1815.0	1823.0	1823.0	1848.0	1848.0	1848.0	1847.0	1847.0	1830.0	1830.0	1830.0	1831.0	1831.0	1842.0	1842.0	1842.0	1836.0	1836.0	1815.0	1815.0	1815.0	1824.0	1824.0	1824.0	1824.0	1824.0	1810.0	1810.0	1817.0	1817.0	1817.0	1824.0	1824.0	1817.0	1817.0	1817.0	1803.0	1803.0	1795.0	1795.0	1795.0	1816.0	1816.0	1795.0	1795.0	1795.0	1807.0	1807.0	1817.0	1817.0	1817.0	1802.0	1802.0	1802.0	1802.0	1802.0	1804.0	1804.0	1796.0	1796.0	1796.0	1813.0	1813.0	1812.0	1812.0	1812.0	1807.0	1807.0	1802.0	1802.0	1802.0	1781.0	1781.0	1797.0	1797.0	1797.0	1791.0	1791.0	1794.0	1794.0	1794.0	1809.0	1809.0	1804.0	1804.0	1804.0	1787.0	1787.0	1797.0	1797.0	1797.0	1807.0	1807.0	1794.0	1794.0	1794.0	1801.0	1801.0	1802.0	1802.0	1802.0	1781.0	1781.0	1801.0	1801.0	1801.0	1805.0	1805.0	1813.0	1813.0	1813.0	1802.0	1802.0	1779.0	1779.0	1779.0	1783.0	1783.0	1814.0	1814.0	1814.0	1794.0	1794.0	1799.0	1799.0	1802.0	1802.0	1802.0	1800.0	1800.0	1795.0	1795.0	1795.0	1807.0	1807.0	1795.0	1795.0	1795.0	1803.0	1803.0	1800.0	1800.0	1800.0	1806.0	1806.0	1804.0	1804.0	1804.0	1808.0	1808.0	1800.0	1800.0	1800.0	1787.0	1787.0	1801.0	1801.0	1801.0	1794.0	1794.0	1785.0	1785.0	1785.0	1809.0	1809.0	1796.0	1796.0	1796.0	1776.0	1776.0	1776.0	1776.0	1776.0	1785.0	1785.0	1793.0	1793.0	1793.0	1784.0	1784.0	1776.0	1776.0	1776.0	1785.0	1785.0	1804.0	1804.0	1804.0	1771.0	1771.0	1772.0	1772.0	1772.0	1800.0	1800.0	1799.0	1799.0	1799.0	1786.0	1786.0	1781.0	1781.0	1781.0	1775.0	1775.0	1772.0	1772.0	1772.0	1777.0	1777.0	1780.0	1780.0	1780.0	1801.0	1801.0	1794.0	1794.0	1794.0	1780.0	1780.0	1766.0	1766.0	1766.0	1788.0	1788.0	1755.0	1755.0	1755.0	1762.0	1762.0	1777.0	1777.0	1777.0	1769.0	1769.0	1776.0	1776.0	1776.0	1782.0	1782.0	1751.0	1751.0	1751.0	1760.0	1760.0	1762.0	1762.0	1762.0	1779.0	1779.0	1781.0	1781.0	1781.0	1763.0	1763.0	1757.0	1757.0	1757.0	1776.0	1776.0	1773.0	1773.0	1773.0	1780.0	1780.0	1782.0	1782.0	1782.0	1758.0	1758.0	1743.0	1743.0	1743.0	1752.0	1752.0	1752.0	1752.0	1752.0	1762.0	1762.0	1751.0	1751.0	1751.0	1743.0	1743.0	1761.0	1761.0	1761.0	1768.0	1768.0	1763.0	1763.0	1763.0	1744.0	1744.0	1768.0	1768.0	1768.0	1756.0	1756.0	1740.0	1740.0	1740.0	1768.0	1768.0	1753.0	1753.0	1753.0	1743.0	1743.0	1747.0	1747.0	1747.0	1763.0	1763.0	1739.0	1739.0	1739.0	1761.0	1761.0	1771.0	1771.0	1771.0	1736.0	1736.0	1746.0	1746.0	1746.0	1756.0	1756.0	1753.0	1753.0	1769.0	1769.0	1769.0	1776.0	1776.0	1777.0	1777.0	1777.0	1769.0	1769.0	1780.0	1780.0	1780.0	1752.0	1752.0	1774.0	1774.0	1774.0	1799.0	1799.0	1811.0	1811.0	1811.0	1802.0	1802.0	1817.0	1817.0	1817.0	1839.0	1839.0	1824.0	1824.0	1824.0	1854.0	1854.0	1891.0	1891.0	1891.0	1882.0	1882.0	1906.0	1906.0	1906.0	1945.0	1945.0	1915.0	1915.0	1915.0	1951.0	1951.0	1965.0	1965.0	1965.0	2000.0	2000.0	2019.0	2019.0	2019.0	2008.0	2008.0	2061.0	2061.0	2061.0	2063.0	2063.0	2086.0	2086.0	2086.0	2095.0	2095.0	2101.0	2101.0	2101.0	2121.0	2121.0	2152.0	2152.0	2152.0	2147.0	2147.0	2159.0	2159.0	2159.0	2215.0	2215.0	2188.0	2188.0	2188.0	2199.0	2199.0	2223.0	2223.0	2223.0	2229.0	2229.0	2231.0	2231.0	2231.0	2255.0	2255.0	2274.0	2274.0	2274.0	2272.0	2272.0	2287.0	2287.0	2287.0	2287.0	2287.0	2330.0	2330.0	2330.0	2305.0	2305.0	2315.0	2315.0	2315.0	2303.0	2303.0	2308.0	2308.0	2308.0	2310.0	2310.0	2323.0	2323.0	2323.0	2336.0	2336.0	2328.0	2328.0	2328.0	2345.0	2345.0	2350.0	2350.0	2350.0	2369.0	2369.0	2364.0	2364.0	2364.0	2367.0	2367.0	2366.0	2366.0	2366.0	2372.0	2372.0	2363.0	2363.0	2363.0	2348.0	2348.0	2363.0	2363.0	2363.0	2348.0	2348.0	2366.0	2366.0	2366.0	2363.0	2363.0	2375.0	2375.0	2375.0	2352.0	2352.0	2370.0	2370.0	2370.0	2379.0	2379.0	2358.0	2358.0	2358.0	2372.0	2372.0	2357.0	2357.0	2357.0	2361.0	2361.0	2344.0	2344.0	2344.0	2364.0	2364.0	2379.0	2379.0	2379.0	2352.0	2352.0	2364.0	2364.0	2364.0	2357.0	2357.0	2385.0	2385.0	2363.0	2363.0	2363.0	2370.0	2370.0	2374.0	2374.0	2374.0	2365.0	2365.0	2383.0	2383.0	2383.0	2375.0	2375.0	2370.0	2370.0	2370.0	2367.0	2367.0	2356.0	2356.0	2356.0	2372.0	2372.0	2365.0	2365.0	2365.0	2375.0	2375.0	2370.0	2370.0	2370.0	2371.0	2371.0	2362.0	2362.0	2362.0	2377.0	2377.0	2355.0	2355.0	2355.0	2371.0	2371.0	2350.0	2350.0	2350.0	2347.0	2347.0	2344.0	2344.0	2344.0	2348.0	2348.0	2349.0	2349.0	2349.0	2358.0	2358.0	2335.0	2335.0	2335.0	2346.0	2346.0	2327.0	2327.0	2327.0	2339.0	2339.0	2310.0	2310.0	2310.0	2334.0	2334.0	2320.0	2320.0	2320.0	2305.0	2305.0	2314.0	2314.0	2314.0	2296.0	2296.0	2286.0	2286.0	2286.0	2304.0	2304.0	2298.0	2298.0	2298.0	2279.0	2279.0	2251.0	2251.0	2251.0	2260.0	2260.0	2267.0	2267.0	2267.0	2237.0	2237.0	2231.0	2231.0	2231.0	2227.0	2227.0	2219.0	2219.0	2219.0	2194.0	2194.0	2212.0	2212.0	2212.0	2207.0	2207.0	2175.0	2175.0	2175.0	2175.0	2175.0	2173.0	2173.0	2173.0	2168.0	2168.0	2167.0	2167.0	2167.0	2141.0	2141.0	2167.0	2167.0	2167.0	2136.0	2136.0	2141.0	2141.0	2141.0	2115.0	2115.0	2127.0	2127.0	2127.0	2110.0	2110.0	2099.0	2099.0	2099.0	2120.0	2120.0	2102.0	2102.0	2102.0	2093.0	2093.0	2098.0	2098.0	2098.0	2091.0	2091.0	2078.0	2078.0	2078.0	2082.0	2082.0	2086.0	2086.0	2086.0	2059.0	2059.0	2079.0	2079.0	2079.0	2061.0	2061.0	2085.0	2085.0	2085.0	2064.0	2064.0	2077.0	2077.0	2077.0	2062.0	2062.0	2049.0	2049.0	2049.0	2042.0	2042.0	2051.0	2051.0	2051.0	2042.0	2042.0	2031.0	2031.0	2031.0	2040.0	2040.0	2019.0	2019.0	2023.0	2023.0	2023.0	2043.0	2043.0	2027.0	2027.0	2027.0	2052.0	2052.0	2015.0	2015.0	2015.0	2027.0	2027.0	2022.0	2022.0	2022.0	2001.0	2001.0	2019.0	2019.0	2019.0	2010.0	2010.0	2019.0	2019.0	2019.0	2021.0	2021.0	2004.0	2004.0	2004.0	1998.0	1998.0	1979.0	1979.0	1979.0	1985.0	1985.0	2002.0	2002.0	2002.0	2005.0	2005.0	2005.0	2005.0	2005.0	1977.0	1977.0	1990.0	1990.0	1990.0	2003.0	2003.0	1986.0	1986.0	1986.0	2007.0	2007.0	1975.0	1975.0	1975.0	1968.0	1968.0	1992.0	1992.0	1992.0	1968.0	1968.0	1969.0	1969.0	1969.0	1974.0	1974.0	1955.0	1955.0	1955.0	1967.0	1967.0	1938.0	1938.0	1938.0	1942.0	1942.0	1964.0	1964.0	1964.0	1960.0	1960.0	1938.0	1938.0	1938.0	1934.0	1934.0	1958.0	1958.0	1958.0	1951.0	1951.0	1925.0	1925.0	1925.0	1933.0	1933.0	1927.0	1927.0	1927.0	1927.0	1927.0	1926.0	1926.0	1926.0	1931.0	1931.0	1924.0	1924.0	1924.0	1916.0	1916.0	1902.0	1902.0	1902.0	1925.0	1925.0	1915.0	1915.0	1915.0	1934.0	1934.0	1902.0	1902.0	1902.0	1901.0	1901.0	1917.0	1917.0	1917.0	1904.0	1904.0	1914.0	1914.0	1914.0	1907.0	1907.0	1883.0	1883.0	1883.0	1885.0	1885.0	1884.0	1884.0	1884.0	1886.0	1886.0	1897.0	1897.0	1897.0	1889.0	1889.0	1909.0	1909.0	1909.0	1902.0	1902.0	1895.0	1895.0	1895.0	1867.0	1867.0	1860.0	1860.0	1860.0	1863.0	1863.0	1882.0	1882.0	1882.0	1886.0	1886.0	1869.0	1869.0	1869.0	1902.0	1902.0	1868.0	1868.0	1868.0	1856.0	1856.0	1866.0	1866.0	1866.0	1869.0	1869.0	1857.0	1857.0	1857.0	1871.0	1871.0	1887.0	1887.0	1865.0	1865.0	1865.0	1841.0	1841.0	1867.0	1867.0	