1534.0	1492.0	1492.0	1436.0	1436.0	1436.0	1394.0	1394.0	1368.0	1368.0	1368.0	1366.0	1366.0	1323.0	1323.0	1323.0	1328.0	1328.0	1339.0	1339.0	1339.0	1326.0	1326.0	1299.0	1299.0	1299.0	1305.0	1305.0	1321.0	1321.0	1321.0	1327.0	1327.0	1305.0	1305.0	1305.0	1320.0	1320.0	1321.0	1321.0	1321.0	1333.0	1333.0	1331.0	1331.0	1331.0	1328.0	1328.0	1333.0	1333.0	1333.0	1351.0	1351.0	1373.0	1373.0	1373.0	1361.0	1361.0	1375.0	1375.0	1375.0	1399.0	1399.0	1395.0	1395.0	1395.0	1422.0	1422.0	1424.0	1424.0	1424.0	1456.0	1456.0	1457.0	1457.0	1457.0	1471.0	1471.0	1487.0	1487.0	1487.0	1515.0	1515.0	1525.0	1525.0	1525.0	1568.0	1568.0	1577.0	1577.0	1577.0	1608.0	1608.0	1634.0	1634.0	1634.0	1641.0	1641.0	1662.0	1662.0	1662.0	1706.0	1706.0	1714.0	1714.0	1714.0	1727.0	1727.0	1758.0	1758.0	1758.0	1798.0	1798.0	1808.0	1808.0	1808.0	1842.0	1842.0	1835.0	1835.0	1835.0	1852.0	1852.0	1876.0	1876.0	1876.0	1916.0	1916.0	1930.0	1930.0	1930.0	1947.0	1947.0	1944.0	1944.0	1944.0	1944.0	1944.0	1970.0	1970.0	1970.0	1975.0	1975.0	1995.0	1995.0	1995.0	2004.0	2004.0	2026.0	2026.0	2026.0	2051.0	2051.0	2080.0	2080.0	2080.0	2050.0	2050.0	2088.0	2088.0	2088.0	2084.0	2084.0	2098.0	2098.0	2092.0	2092.0	2092.0	2086.0	2086.0	2112.0	2112.0	2112.0	2090.0	2090.0	2132.0	2132.0	2132.0	2107.0	2107.0	2110.0	2110.0	2110.0	2132.0	2132.0	2123.0	2123.0	2123.0	2132.0	2132.0	2119.0	2119.0	2119.0	2144.0	2144.0	2142.0	2142.0	2142.0	2148.0	2148.0	2147.0	2147.0	2147.0	2163.0	2163.0	2164.0	2164.0	2164.0	2160.0	2160.0	2151.0	2151.0	2151.0	2184.0	2184.0	2157.0	2157.0	2157.0	2168.0	2168.0	2154.0	2154.0	2154.0	2171.0	2171.0	2159.0	2159.0	2159.0	2155.0	2155.0	2181.0	2181.0	2181.0	2194.0	2194.0	2185.0	2185.0	2185.0	2191.0	2191.0	2186.0	2186.0	2186.0	2174.0	2174.0	2197.0	2197.0	2197.0	2182.0	2182.0	2193.0	2193.0	2193.0	2183.0	2183.0	2177.0	2177.0	2177.0	2192.0	2192.0	2200.0	2200.0	2200.0	2189.0	2189.0	2183.0	2183.0	2183.0	2206.0	2206.0	2204.0	2204.0	2204.0	2185.0	2185.0	2199.0	2199.0	2199.0	2187.0	2187.0	2190.0	2190.0	2190.0	2201.0	2201.0	2203.0	2203.0	2203.0	2224.0	2224.0	2194.0	2194.0	2194.0	2187.0	2187.0	2190.0	2190.0	2190.0	2199.0	2199.0	2214.0	2214.0	2214.0	2187.0	2187.0	2189.0	2189.0	2189.0	2181.0	2181.0	2201.0	2201.0	2201.0	2185.0	2185.0	2169.0	2169.0	2169.0	2174.0	2174.0	2179.0	2179.0	2179.0	2186.0	2186.0	2179.0	2179.0	2179.0	2171.0	2171.0	2171.0	2171.0	2171.0	2167.0	2167.0	2171.0	2171.0	2171.0	2149.0	2149.0	2172.0	2172.0	2172.0	2125.0	2125.0	2148.0	2148.0	2148.0	2128.0	2128.0	2139.0	2139.0	2139.0	2109.0	2109.0	2090.0	2090.0	2090.0	2113.0	2113.0	2106.0	2106.0	2106.0	2103.0	2103.0	2084.0	2084.0	2087.0	2087.0	2087.0	2069.0	2069.0	2062.0	2062.0	2062.0	2051.0	2051.0	2029.0	2029.0	2029.0	2043.0	2043.0	2036.0	2036.0	2036.0	2046.0	2046.0	2000.0	2000.0	2000.0	2019.0	2019.0	2018.0	2018.0	2018.0	2007.0	2007.0	1992.0	1992.0	1992.0	2000.0	2000.0	1983.0	1983.0	1983.0	1984.0	1984.0	1996.0	1996.0	1996.0	1986.0	1986.0	1986.0	1986.0	1986.0	1978.0	1978.0	1954.0	1954.0	1954.0	1971.0	1971.0	1957.0	1957.0	1957.0	1967.0	1967.0	1967.0	1967.0	1967.0	1954.0	1954.0	1953.0	1953.0	1953.0	1954.0	1954.0	1954.0	1954.0	1954.0	1950.0	1950.0	1945.0	1945.0	1945.0	1934.0	1934.0	1944.0	1944.0	1944.0	1926.0	1926.0	1933.0	1933.0	1933.0	1930.0	1930.0	1919.0	1919.0	1919.0	1928.0	1928.0	1951.0	1951.0	1951.0	1931.0	1931.0	1950.0	1950.0	1950.0	1941.0	1941.0	1927.0	1927.0	1927.0	1948.0	1948.0	1938.0	1938.0	1938.0	1929.0	1929.0	1916.0	1916.0	1916.0	1926.0	1926.0	1937.0	1937.0	1937.0	1921.0	1921.0	1937.0	1937.0	1937.0	1915.0	1915.0	1932.0	1932.0	1932.0	1939.0	1939.0	1917.0	1917.0	1917.0	1938.0	1938.0	1902.0	1902.0	1902.0	1909.0	1909.0	1922.0	1922.0	1922.0	1937.0	1937.0	1910.0	1910.0	1910.0	1895.0	1895.0	1912.0	1912.0	1912.0	1889.0	1889.0	1914.0	1914.0	1914.0	1906.0	1906.0	1895.0	1895.0	1895.0	1881.0	1881.0	1897.0	1897.0	1897.0	1895.0	1895.0	1901.0	1901.0	1901.0	1921.0	1921.0	1898.0	1898.0	1898.0	1906.0	1906.0	1889.0	1889.0	1889.0	1889.0	1889.0	1900.0	1900.0	1900.0	1867.0	1867.0	1878.0	1878.0	1878.0	1878.0	1878.0	1888.0	1888.0	1888.0	1886.0	1886.0	1882.0	1882.0	1868.0	1868.0	1868.0	1876.0	1876.0	1866.0	1866.0	1866.0	1871.0	1871.0	1878.0	1878.0	1878.0	1877.0	1877.0	1883.0	1883.0	1883.0	1844.0	1844.0	1888.0	1888.0	1888.0	1857.0	1857.0	1850.0	1850.0	1850.0	1855.0	1855.0	1848.0	1848.0	1848.0	1845.0	1845.0	1847.0	1847.0	1847.0	1859.0	1859.0	1861.0	1861.0	1861.0	1847.0	1847.0	1843.0	1843.0	1843.0	1854.0	1854.0	1842.0	1842.0	1842.0	1833.0	1833.0	1822.0	1822.0	1822.0	1839.0	1839.0	1824.0	1824.0	1824.0	1828.0	1828.0	1819.0	1819.0	1819.0	1839.0	1839.0	1813.0	1813.0	1813.0	1820.0	1820.0	1824.0	1824.0	1824.0	1843.0	1843.0	1823.0	1823.0	1823.0	1828.0	1828.0	1811.0	1811.0	1811.0	1827.0	1827.0	1810.0	1810.0	1810.0	1828.0	1828.0	1838.0	1838.0	1838.0	1820.0	1820.0	1819.0	1819.0	1819.0	1810.0	1810.0	1810.0	1810.0	1810.0	1813.0	1813.0	1816.0	1816.0	1816.0	1805.0	1805.0	1789.0	1789.0	1789.0	1819.0	1819.0	1801.0	1801.0	1801.0	1804.0	1804.0	1826.0	1826.0	1826.0	1805.0	1805.0	1810.0	1810.0	1810.0	1824.0	1824.0	1809.0	1809.0	1809.0	1789.0	1789.0	1797.0	1797.0	1797.0	1801.0	1801.0	1810.0	1810.0	1810.0	1802.0	1802.0	1812.0	1812.0	1812.0	1797.0	1797.0	1778.0	1778.0	1778.0	1799.0	1799.0	1774.0	1774.0	1774.0	1806.0	1806.0	1778.0	1778.0	1778.0	1778.0	1778.0	1801.0	1801.0	1801.0	1793.0	1793.0	1773.0	1773.0	1773.0	1806.0	1806.0	1797.0	1797.0	1797.0	1765.0	1765.0	1770.0	1770.0	1770.0	1774.0	1774.0	1787.0	1787.0	1787.0	1787.0	1787.0	1782.0	1782.0	1782.0	1777.0	1777.0	1808.0	1808.0	1775.0	1775.0	1775.0	1780.0	1780.0	1796.0	1796.0	1796.0	1770.0	1770.0	1795.0	1795.0	1795.0	1791.0	1791.0	1783.0	1783.0	1783.0	1780.0	1780.0	1768.0	1768.0	1768.0	1767.0	1767.0	1783.0	1783.0	1783.0	1797.0	1797.0	1809.0	1809.0	1809.0	1792.0	1792.0	1774.0	1774.0	1774.0	1795.0	1795.0	1786.0	1786.0	1786.0	1781.0	1781.0	1780.0	1780.0	1780.0	1788.0	1788.0	1797.0	1797.0	1797.0	1772.0	1772.0	1784.0	1784.0	1784.0	1808.0	1808.0	1764.0	1764.0	1764.0	1786.0	1786.0	1796.0	1796.0	1796.0	1794.0	1794.0	1792.0	1792.0	1792.0	1778.0	1778.0	1808.0	1808.0	1808.0	1792.0	1792.0	1779.0	1779.0	1779.0	1799.0	1799.0	1784.0	1784.0	1784.0	1824.0	1824.0	1820.0	1820.0	1820.0	1804.0	1804.0	1828.0	1828.0	1828.0	1799.0	1799.0	1780.0	1780.0	1780.0	1788.0	1788.0	1811.0	1811.0	1811.0	1791.0	1791.0	1788.0	1788.0	1788.0	1810.0	1810.0	1790.0	1790.0	1790.0	1820.0	1820.0	1807.0	1807.0	1807.0	1785.0	1785.0	1775.0	1775.0	1775.0	1794.0	1794.0	1813.0	1813.0	1813.0	1816.0	1816.0	1801.0	1801.0	1801.0	1806.0	1806.0	1808.0	1808.0	1808.0	1786.0	1786.0	1814.0	1814.0	1814.0	1812.0	1812.0	1811.0	1811.0	1811.0	1809.0	1809.0	1825.0	1825.0	1825.0	1800.0	1800.0	1810.0	1810.0	1810.0	1837.0	1837.0	1816.0	1816.0	1816.0	1812.0	1812.0	1832.0	1832.0	1832.0	1801.0	1801.0	1820.0	1820.0	1820.0	1832.0	1832.0	1831.0	1831.0	1831.0	1835.0	1835.0	1812.0	1812.0	1812.0	1828.0	1828.0	1797.0	1797.0	1797.0	1788.0	1788.0	1807.0	1807.0	1807.0	1807.0	1807.0	1800.0	1800.0	1790.0	1790.0	1790.0	1822.0	1822.0	1802.0	1802.0	1802.0	1805.0	1805.0	1815.0	1815.0	1815.0	1811.0	1811.0	1807.0	1807.0	1807.0	1806.0	1806.0	1797.0	1797.0	1797.0	1828.0	1828.0	1808.0	1808.0	1808.0	1820.0	1820.0	1811.0	1811.0	1811.0	1827.0	1827.0	1808.0	1808.0	1808.0	1831.0	1831.0	1854.0	1854.0	1854.0	1835.0	1835.0	1835.0	1835.0	1835.0	1859.0	1859.0	1870.0	1870.0	1870.0	1903.0	1903.0	1900.0	1900.0	1900.0	1922.0	1922.0	1919.0	1919.0	1919.0	1949.0	1949.0	1971.0	1971.0	1971.0	1976.0	1976.0	1993.0	1993.0	1993.0	2013.0	2013.0	2025.0	2025.0	2025.0	2064.0	2064.0	2054.0	2054.0	2054.0	2092.0	2092.0	2097.0	2097.0	2097.0	2131.0	2131.0	2153.0	2153.0	2153.0	2175.0	2175.0	2181.0	2181.0	2181.0	2215.0	2215.0	2242.0	2242.0	2242.0	2226.0	2226.0	2250.0	2250.0	2250.0	2254.0	2254.0	2279.0	2279.0	2279.0	2277.0	2277.0	2281.0	2281.0	2281.0	2299.0	2299.0	2320.0	2320.0	2320.0	2325.0	2325.0	2315.0	2315.0	2315.0	2336.0	2336.0	2361.0	2361.0	2361.0	2359.0	2359.0	2350.0	2350.0	2350.0	2356.0	2356.0	2362.0	2362.0	2362.0	2390.0	2390.0	2382.0	2382.0	2382.0	2401.0	2401.0	2375.0	2375.0	2375.0	2408.0	2408.0	2413.0	2413.0	2413.0	2400.0	2400.0	2422.0	2422.0	2422.0	2396.0	2396.0	2394.0	2394.0	2394.0	2407.0	2407.0	2397.0	2397.0	2397.0	2408.0	2408.0	2398.0	2398.0	2398.0	2410.0	2410.0	2413.0	2413.0	2413.0	2411.0	2411.0	2415.0	2415.0	2415.0	2410.0	2410.0	2401.0	2401.0	2401.0	2404.0	2404.0	2416.0	2416.0	2416.0	2423.0	2423.0	2430.0	2430.0	2430.0	2421.0	2421.0	2426.0	2426.0	2412.0	2412.0	2412.0	2390.0	2390.0	2425.0	2425.0	2425.0	2421.0	2421.0	2421.0	2421.0	2421.0	2406.0	2406.0	2422.0	2422.0	2422.0	2423.0	2423.0	2420.0	2420.0	2420.0	2419.0	2419.0	2412.0	2412.0	2412.0	2416.0	2416.0	2405.0	2405.0	2405.0	2399.0	2399.0	2423.0	2423.0	2423.0	2398.0	2398.0	2418.0	2418.0	2418.0	2405.0	2405.0	2413.0	2413.0	2413.0	2405.0	2405.0	2411.0	2411.0	2411.0	2404.0	2404.0	2395.0	2395.0	2395.0	2408.0	2408.0	2390.0	2390.0	2390.0	2396.0	2396.0	2417.0	2417.0	2417.0	2399.0	2399.0	2422.0	2422.0	2422.0	2415.0	2415.0	2394.0	2394.0	2394.0	2386.0	2386.0	2372.0	2372.0	2372.0	2391.0	2391.0	2373.0	2373.0	2373.0	2370.0	2370.0	2381.0	2381.0	2381.0	2366.0	2366.0	2359.0	2359.0	2359.0	2372.0	2372.0	2335.0	2335.0	2335.0	2354.0	2354.0	2338.0	2338.0	2338.0	2344.0	2344.0	2305.0	2305.0	2305.0	2333.0	2333.0	2327.0	2327.0	2327.0	2306.0	2306.0	2292.0	2292.0	2292.0	2294.0	2294.0	2285.0	2285.0	2285.0	2279.0	2279.0	2289.0	2289.0	2289.0	2249.0	2249.0	2245.0	2245.0	2245.0	2236.0	2236.0	2225.0	2225.0	2225.0	2204.0	2204.0	2196.0	2196.0	2196.0	2216.0	2216.0	2198.0	2198.0	2198.0	2196.0	2196.0	2168.0	2168.0	2168.0	2183.0	2183.0	2142.0	2142.0	2142.0	2142.0	2142.0	2131.0	2131.0	2131.0	2145.0	2145.0	2147.0	2147.0	2147.0	2132.0	2132.0	2114.0	2114.0	2114.0	2092.0	2092.0	2097.0	2097.0	2097.0	2108.0	2108.0	2102.0	2102.0	2102.0	2099.0	2099.0	2098.0	2098.0	2098.0	2098.0	2098.0	2082.0	2082.0	2082.0	2077.0	2077.0	2058.0	2058.0	2055.0	2055.0	2055.0	2053.0	2053.0	2059.0	2059.0	2059.0	2067.0	2067.0	2032.0	2032.0	2032.0	2040.0	2040.0	2042.0	2042.0	2042.0	2058.0	2058.0	2040.0	2040.0	2040.0	2035.0	2035.0	2051.0	2051.0	2051.0	2049.0	2049.0	2027.0	2027.0	2027.0	2026.0	2026.0	2027.0	2027.0	2027.0	2029.0	2029.0	2050.0	2050.0	2050.0	2044.0	2044.0	2051.0	2051.0	2051.0	2034.0	2034.0	2043.0	2043.0	2043.0	2023.0	2023.0	2026.0	2026.0	2026.0	2027.0	2027.0	2017.0	2017.0	2017.0	2037.0	2037.0	2011.0	2011.0	2011.0	2008.0	2008.0	2027.0	2027.0	2027.0	1990.0	1990.0	1996.0	1996.0	1996.0	1994.0	1994.0	2014.0	2014.0	2014.0	2013.0	2013.0	2011.0	2011.0	2011.0	2005.0	2005.0	2006.0	2006.0	2006.0	2001.0	2001.0	1969.0	1969.0	1969.0	1976.0	1976.0	2000.0	2000.0	2000.0	1990.0	1990.0	1987.0	1987.0	1987.0	1991.0	1991.0	1975.0	1975.0	1975.0	1962.0	1962.0	1981.0	1981.0	1981.0	1973.0	1973.0	1994.0	1994.0	1994.0	1948.0	1948.0	1981.0	1981.0	1981.0	1972.0	1972.0	1959.0	1959.0	1959.0	1952.0	1952.0	1952.0	1952.0	1952.0	1950.0	1950.0	1953.0	1953.0	1953.0	1956.0	1956.0	1962.0	1962.0	1962.0	1959.0	1959.0	1944.0	1944.0	1944.0	1942.0	1942.0	1924.0	1924.0	1924.0	1960.0	1960.0	1928.0	1928.0	1928.0	1941.0	1941.0	1939.0	1939.0	1939.0	1914.0	1914.0	1938.0	1938.0	1938.0	1931.0	1931.0	1930.0	1930.0	1930.0	1917.0	1917.0	1936.0	1936.0	1936.0	1916.0	1916.0	1900.0	1900.0	1900.0	1910.0	1910.0	1905.0	1905.0	1905.0	1920.0	1920.0	1914.0	1914.0	1914.0	1931.0	1931.0	1923.0	1923.0	1923.0	1895.0	1895.0	1913.0	1913.0	1924.0	1924.0	1924.0	1919.0	1919.0	1903.0	1903.0	1903.0	1902.0	1902.0	1915.0	1915.0	1915.0	1904.0	1904.0	1897.0	1897.0	1897.0	1902.0	1902.0	1886.0	1886.0	1886.0	1909.0	1909.0	1886.0	1886.0	1886.0	1875.0	1875.0	1890.0	1890.0	1890.0	1884.0	1884.0	1888.0	1888.0	1888.0	1879.0	1879.0	1869.0	1869.0	1869.0	1876.0	1876.0	1867.0	1867.0	1867.0	1901.0	1901.0	1890.0	1890.0	1890.0	1875.0	1875.0	1862.0	1862.0	1862.0	1898.0	1898.0	1870.0	1870.0	1870.0	1878.0	1878.0	1863.0	1863.0	1863.0	1878.0	1878.0	1858.0	1858.0	1858.0	1864.0	1864.0	1864.0	1864.0	1864.0	1868.0	1868.0	1892.0	1892.0	1892.0	1855.0	1855.0	1888.0	1888.0	1888.0	1872.0	1872.0	1867.0	1867.0	1867.0	1872.0	1872.0	1884.0	1884.0	1884.0	1867.0	1867.0	1848.0	1848.0	1848.0	1886.0	1886.0	1855.0	1855.0	1855.0	1851.0	1851.0	1876.0	1876.0	1876.0	1870.0	1870.0	1853.0	1853.0	1853.0	1857.0	1857.0	1877.0	1877.0	1877.0	1863.0	1863.0	1847.0	1847.0	1847.0	1856.0	1856.0	1861.0	1861.0	1861.0	1858.0	1858.0	1869.0	1869.0	1869.0	1866.0	1866.0	1887.0	1887.0	1887.0	1885.0	1885.0	1864.0	1864.0	1864.0	1858.0	1858.0	1862.0	1862.0	1862.0	1853.0	1853.0	1844.0	1844.0	1844.0	1860.0	1860.0	1863.0	1863.0	1863.0	1833.0	1833.0	1874.0	1874.0	1874.0	1866.0	1866.0	1858.0	1858.0	1858.0	1860.0	1860.0	1863.0	1863.0	1863.0	1860.0	1860.0	1828.0	1828.0	1828.0	1875.0	1875.0	1872.0	1872.0	1872.0	1879.0	1879.0	1848.0	1848.0	1848.0	1862.0	1862.0	1844.0	1844.0	1844.0	1858.0	1858.0	1863.0	1863.0	1854.0	1854.0	1854.0	1876.0	1876.0	1851.0	1851.0	1851.0	1873.0	1873.0	1877.0	1877.0	1877.0	1858.0	1858.0	1863.0	1863.0	1863.0	1863.0	1863.0	1864.0	1864.0	1864.0	1878.0	1878.0	1861.0	1861.0	1861.0	1859.0	1859.0	1885.0	1885.0	1885.0	1846.0	1846.0	1872.0	1872.0	1872.0	1867.0	1867.0	1857.0	1857.0	1857.0	1883.0	1883.0	1888.0	1888.0	1888.0	1881.0	1881.0	1850.0	1850.0	1850.0	1853.0	1853.0	1875.0	1875.0	1875.0	1877.0	1877.0	1848.0	1848.0	1848.0	1872.0	1872.0	1847.0	1847.0	1847.0	1879.0	1879.0	1882.0	1882.0	1882.0	1867.0	1867.0	1876.0	1876.0	1876.0	1857.0	1857.0	1868.0	1868.0	1868.0	1868.0	1868.0	1838.0	1838.0	1838.0	1867.0	1867.0	1866.0	1866.0	1866.0	1880.0	1880.0	1867.0	1867.0	1867.0	1858.0	1858.0	1871.0	1871.0	1871.0	1878.0	1878.0	1844.0	1844.0	1844.0	1887.0	1887.0	1875.0	1875.0	1875.0	1859.0	1859.0	1845.0	1845.0	1845.0	1866.0	1866.0	1842.0	1842.0	1842.0	1856.0	1856.0	1847.0	1847.0	1847.0	1863.0	1863.0	1855.0	1855.0	1855.0	1829.0	1829.0	1882.0	1882.0	1882.0	1859.0	1859.0	1843.0	1843.0	1843.0	1843.0	1843.0	1872.0	1872.0	1872.0	1846.0	1846.0	1841.0	1841.0	1841.0	1834.0	1834.0	1862.0	1862.0	1862.0	1841.0	1841.0	1855.0	1855.0	1855.0	1842.0	1842.0	1823.0	1823.0	1823.0	1846.0	1846.0	1855.0	1855.0	1855.0	1850.0	1850.0	1831.0	1831.0	1831.0	1841.0	1841.0	1874.0	1874.0	1874.0	1855.0	1855.0	1866.0	1866.0	1866.0	1850.0	1850.0	1873.0	1873.0	1873.0	1848.0	1848.0	1871.0	1871.0	1871.0	1876.0	1876.0	1869.0	1869.0	1881.0	1881.0	1881.0	1908.0	1908.0	1907.0	1907.0	1907.0	1934.0	1934.0	1940.0	1940.0	1940.0	1950.0	1950.0	1960.0	1960.0	1960.0	1980.0	1980.0	1996.0	1996.0	1996.0	2027.0	2027.0	2032.0	2032.0	2032.0	2059.0	2059.0	2076.0	2076.0	2076.0	2089.0	2089.0	2104.0	2104.0	2104.0	2125.0	2125.0	2151.0	2151.0	2151.0	2157.0	2157.0	2157.0	2157.0	2157.0	2211.0	2211.0	2220.0	2220.0	2220.0	2237.0	2237.0	2246.0	2246.0	2246.0	2278.0	2278.0	2269.0	2269.0	2269.0	2288.0	2288.0	2286.0	2286.0	2286.0	2311.0	2311.0	2332.0	2332.0	2332.0	2347.0	2347.0	2334.0	2334.0	2334.0	2347.0	2347.0	2379.0	2379.0	2379.0	2369.0	2369.0	2361.0	2361.0	2361.0	2369.0	2369.0	2374.0	2374.0	2374.0	2370.0	2370.0	2383.0	2383.0	2383.0	2406.0	2406.0	2416.0	2416.0	