1666.0	1666.0	1599.0	1599.0	1599.0	1550.0	1550.0	1551.0	1551.0	1551.0	1500.0	1500.0	1476.0	1476.0	1476.0	1490.0	1490.0	1486.0	1486.0	1486.0	1443.0	1443.0	1436.0	1436.0	1436.0	1435.0	1435.0	1441.0	1441.0	1441.0	1459.0	1459.0	1464.0	1464.0	1464.0	1471.0	1471.0	1434.0	1434.0	1434.0	1480.0	1480.0	1456.0	1456.0	1456.0	1460.0	1460.0	1451.0	1451.0	1451.0	1456.0	1456.0	1452.0	1452.0	1452.0	1458.0	1458.0	1459.0	1459.0	1459.0	1484.0	1484.0	1492.0	1492.0	1492.0	1456.0	1456.0	1475.0	1475.0	1475.0	1471.0	1471.0	1482.0	1482.0	1482.0	1483.0	1483.0	1497.0	1497.0	1497.0	1498.0	1498.0	1497.0	1497.0	1497.0	1491.0	1491.0	1510.0	1510.0	1510.0	1505.0	1505.0	1517.0	1517.0	1517.0	1515.0	1515.0	1504.0	1504.0	1519.0	1519.0	1519.0	1507.0	1507.0	1532.0	1532.0	1532.0	1507.0	1507.0	1515.0	1515.0	1515.0	1510.0	1510.0	1542.0	1542.0	1542.0	1524.0	1524.0	1527.0	1527.0	1527.0	1529.0	1529.0	1541.0	1541.0	1541.0	1539.0	1539.0	1537.0	1537.0	1537.0	1563.0	1563.0	1548.0	1548.0	1548.0	1530.0	1530.0	1558.0	1558.0	1558.0	1532.0	1532.0	1548.0	1548.0	1548.0	1574.0	1574.0	1549.0	1549.0	1549.0	1566.0	1566.0	1553.0	1553.0	1553.0	1586.0	1586.0	1558.0	1558.0	1558.0	1563.0	1563.0	1548.0	1548.0	1548.0	1556.0	1556.0	1567.0	1567.0	1567.0	1579.0	1579.0	1572.0	1572.0	1572.0	1570.0	1570.0	1583.0	1583.0	1583.0	1577.0	1577.0	1588.0	1588.0	1588.0	1574.0	1574.0	1569.0	1569.0	1569.0	1576.0	1576.0	1582.0	1582.0	1582.0	1585.0	1585.0	1589.0	1589.0	1589.0	1613.0	1613.0	1580.0	1580.0	1580.0	1587.0	1587.0	1615.0	1615.0	1615.0	1621.0	1621.0	1615.0	1615.0	1615.0	1596.0	1596.0	1624.0	1624.0	1624.0	1619.0	1619.0	1634.0	1634.0	1634.0	1624.0	1624.0	1600.0	1600.0	1600.0	1632.0	1632.0	1633.0	1633.0	1633.0	1613.0	1613.0	1624.0	1624.0	1624.0	1635.0	1635.0	1621.0	1621.0	1621.0	1645.0	1645.0	1609.0	1609.0	1609.0	1615.0	1615.0	1621.0	1621.0	1621.0	1615.0	1615.0	1635.0	1635.0	1635.0	1634.0	1634.0	1627.0	1627.0	1627.0	1628.0	1628.0	1636.0	1636.0	1636.0	1631.0	1631.0	1628.0	1628.0	1628.0	1627.0	1627.0	1635.0	1635.0	1635.0	1637.0	1637.0	1650.0	1650.0	1650.0	1642.0	1642.0	1647.0	1647.0	1647.0	1633.0	1633.0	1646.0	1646.0	1646.0	1663.0	1663.0	1646.0	1646.0	1646.0	1657.0	1657.0	1663.0	1663.0	1670.0	1670.0	1670.0	1656.0	1656.0	1669.0	1669.0	1669.0	1667.0	1667.0	1653.0	1653.0	1653.0	1656.0	1656.0	1680.0	1680.0	1680.0	1664.0	1664.0	1663.0	1663.0	1663.0	1651.0	1651.0	1652.0	1652.0	1652.0	1668.0	1668.0	1666.0	1666.0	1666.0	1684.0	1684.0	1667.0	1667.0	1667.0	1652.0	1652.0	1688.0	1688.0	1688.0	1677.0	1677.0	1659.0	1659.0	1659.0	1669.0	1669.0	1691.0	1691.0	1691.0	1676.0	1676.0	1660.0	1660.0	1660.0	1683.0	1683.0	1684.0	1684.0	1684.0	1669.0	1669.0	1663.0	1663.0	1663.0	1650.0	1650.0	1675.0	1675.0	1675.0	1660.0	1660.0	1679.0	1679.0	1679.0	1644.0	1644.0	1671.0	1671.0	1671.0	1669.0	1669.0	1669.0	1669.0	1669.0	1667.0	1667.0	1673.0	1673.0	1673.0	1684.0	1684.0	1675.0	1675.0	1675.0	1668.0	1668.0	1685.0	1685.0	1685.0	1674.0	1674.0	1701.0	1701.0	1701.0	1678.0	1678.0	1689.0	1689.0	1689.0	1705.0	1705.0	1692.0	1692.0	1692.0	1671.0	1671.0	1707.0	1707.0	1707.0	1694.0	1694.0	1687.0	1687.0	1687.0	1723.0	1723.0	1730.0	1730.0	1730.0	1757.0	1757.0	1767.0	1767.0	1767.0	1768.0	1768.0	1770.0	1770.0	1770.0	1809.0	1809.0	1801.0	1801.0	1801.0	1839.0	1839.0	1860.0	1860.0	1860.0	1861.0	1861.0	1885.0	1885.0	1885.0	1883.0	1883.0	1929.0	1929.0	1929.0	1933.0	1933.0	1944.0	1944.0	1944.0	1968.0	1968.0	1979.0	1979.0	1979.0	1995.0	1995.0	2044.0	2044.0	2044.0	2054.0	2054.0	2077.0	2077.0	2077.0	2076.0	2076.0	2094.0	2094.0	2094.0	2121.0	2121.0	2125.0	2125.0	2125.0	2136.0	2136.0	2146.0	2146.0	2146.0	2150.0	2150.0	2157.0	2157.0	2192.0	2192.0	2192.0	2187.0	2187.0	2191.0	2191.0	2191.0	2233.0	2233.0	2222.0	2222.0	2222.0	2218.0	2218.0	2227.0	2227.0	2227.0	2245.0	2245.0	2252.0	2252.0	2252.0	2251.0	2251.0	2266.0	2266.0	2266.0	2279.0	2279.0	2259.0	2259.0	2259.0	2259.0	2259.0	2279.0	2279.0	2279.0	2284.0	2284.0	2299.0	2299.0	2299.0	2289.0	2289.0	2278.0	2278.0	2278.0	2278.0	2278.0	2303.0	2303.0	2303.0	2278.0	2278.0	2287.0	2287.0	2287.0	2279.0	2279.0	2308.0	2308.0	2308.0	2297.0	2297.0	2313.0	2313.0	2313.0	2279.0	2279.0	2280.0	2280.0	2280.0	2314.0	2314.0	2300.0	2300.0	2300.0	2289.0	2289.0	2299.0	2299.0	2299.0	2302.0	2302.0	2302.0	2302.0	2302.0	2290.0	2290.0	2294.0	2294.0	2294.0	2312.0	2312.0	2296.0	2296.0	2296.0	2294.0	2294.0	2298.0	2298.0	2298.0	2278.0	2278.0	2309.0	2309.0	2309.0	2297.0	2297.0	2299.0	2299.0	2299.0	2283.0	2283.0	2281.0	2281.0	2281.0	2287.0	2287.0	2287.0	2287.0	2287.0	2286.0	2286.0	2299.0	2299.0	2299.0	2288.0	2288.0	2298.0	2298.0	2298.0	2276.0	2276.0	2293.0	2293.0	2293.0	2299.0	2299.0	2291.0	2291.0	2291.0	2294.0	2294.0	2290.0	2290.0	2290.0	2294.0	2294.0	2294.0	2294.0	2294.0	2270.0	2270.0	2284.0	2284.0	2284.0	2276.0	2276.0	2301.0	2301.0	2301.0	2280.0	2280.0	2299.0	2299.0	2299.0	2286.0	2286.0	2285.0	2285.0	2285.0	2291.0	2291.0	2290.0	2290.0	2290.0	2252.0	2252.0	2280.0	2280.0	2280.0	2247.0	2247.0	2261.0	2261.0	2261.0	2230.0	2230.0	2249.0	2249.0	2249.0	2221.0	2221.0	2223.0	2223.0	2223.0	2235.0	2235.0	2230.0	2230.0	2210.0	2210.0	2210.0	2209.0	2209.0	2217.0	2217.0	2217.0	2191.0	2191.0	2205.0	2205.0	2205.0	2181.0	2181.0	2163.0	2163.0	2163.0	2158.0	2158.0	2142.0	2142.0	2142.0	2131.0	2131.0	2156.0	2156.0	2156.0	2144.0	2144.0	2130.0	2130.0	2130.0	2118.0	2118.0	2109.0	2109.0	2109.0	2104.0	2104.0	2099.0	2099.0	2099.0	2114.0	2114.0	2114.0	2114.0	2114.0	2096.0	2096.0	2087.0	2087.0	2087.0	2072.0	2072.0	2082.0	2082.0	2082.0	2057.0	2057.0	2078.0	2078.0	2078.0	2055.0	2055.0	2071.0	2071.0	2071.0	2064.0	2064.0	2036.0	2036.0	2036.0	2043.0	2043.0	2049.0	2049.0	2049.0	2038.0	2038.0	2055.0	2055.0	2055.0	2042.0	2042.0	2036.0	2036.0	2036.0	2050.0	2050.0	2032.0	2032.0	2032.0	2039.0	2039.0	2030.0	2030.0	2030.0	2019.0	2019.0	2039.0	2039.0	2039.0	2017.0	2017.0	2030.0	2030.0	2030.0	2011.0	2011.0	2002.0	2002.0	2002.0	2008.0	2008.0	2021.0	2021.0	2021.0	2016.0	2016.0	2008.0	2008.0	2008.0	2021.0	2021.0	1996.0	1996.0	1996.0	2012.0	2012.0	1996.0	1996.0	1996.0	2016.0	2016.0	2007.0	2007.0	2007.0	2005.0	2005.0	2026.0	2026.0	2026.0	1989.0	1989.0	2011.0	2011.0	2011.0	1982.0	1982.0	2005.0	2005.0	2005.0	1992.0	1992.0	1977.0	1977.0	1977.0	1969.0	1969.0	1970.0	1970.0	1970.0	1981.0	1981.0	1973.0	1973.0	1973.0	1971.0	1971.0	1966.0	1966.0	1966.0	1996.0	1996.0	1963.0	1963.0	1963.0	1958.0	1958.0	1963.0	1963.0	1963.0	1980.0	1980.0	1966.0	1966.0	1966.0	1959.0	1959.0	1968.0	1968.0	1968.0	1948.0	1948.0	1950.0	1950.0	1950.0	1944.0	1944.0	1968.0	1968.0	1968.0	1948.0	1948.0	1954.0	1954.0	1928.0	1928.0	1928.0	1942.0	1942.0	1966.0	1966.0	1966.0	1928.0	1928.0	1949.0	1949.0	1949.0	1952.0	1952.0	1935.0	1935.0	1935.0	1951.0	1951.0	1930.0	1930.0	1930.0	1925.0	1925.0	1934.0	1934.0	1934.0	1920.0	1920.0	1914.0	1914.0	1914.0	1895.0	1895.0	1931.0	1931.0	1931.0	1916.0	1916.0	1907.0	1907.0	1907.0	1905.0	1905.0	1894.0	1894.0	1894.0	1899.0	1899.0	1890.0	1890.0	1890.0	1902.0	1902.0	1889.0	1889.0	1889.0	1888.0	1888.0	1875.0	1875.0	1875.0	1869.0	1869.0	1880.0	1880.0	1880.0	1875.0	1875.0	1902.0	1902.0	1902.0	1883.0	1883.0	1892.0	1892.0	1892.0	1880.0	1880.0	1874.0	1874.0	1874.0	1878.0	1878.0	1857.0	1857.0	1857.0	1849.0	1849.0	1848.0	1848.0	1848.0	1858.0	1858.0	1859.0	1859.0	1859.0	1859.0	1859.0	1853.0	1853.0	1853.0	1866.0	1866.0	1860.0	1860.0	1860.0	1841.0	1841.0	1846.0	1846.0	1846.0	1848.0	1848.0	1830.0	1830.0	1830.0	1845.0	1845.0	1860.0	1860.0	1860.0	1851.0	1851.0	1819.0	1819.0	1819.0	1839.0	1839.0	1847.0	1847.0	1847.0	1831.0	1831.0	1834.0	1834.0	1834.0	1829.0	1829.0	1809.0	1809.0	1809.0	1836.0	1836.0	1847.0	1847.0	1847.0	1810.0	1810.0	1822.0	1822.0	1822.0	1827.0	1827.0	1846.0	1846.0	1846.0	1813.0	1813.0	1825.0	1825.0	1825.0	1834.0	1834.0	1825.0	1825.0	1825.0	1819.0	1819.0	1811.0	1811.0	1811.0	1811.0	1811.0	1826.0	1826.0	1826.0	1817.0	1817.0	1820.0	1820.0	1820.0	1836.0	1836.0	1827.0	1827.0	1827.0	1825.0	1825.0	1814.0	1814.0	1814.0	1804.0	1804.0	1800.0	1800.0	1800.0	1815.0	1815.0	1801.0	1801.0	1803.0	1803.0	1803.0	1831.0	1831.0	1817.0	1817.0	1817.0	1822.0	1822.0	1806.0	1806.0	1806.0	1808.0	1808.0	1816.0	1816.0	1816.0	1807.0	1807.0	1821.0	1821.0	1821.0	1819.0	1819.0	1810.0	1810.0	1810.0	1801.0	1801.0	1812.0	1812.0	1812.0	1789.0	1789.0	1829.0	1829.0	1829.0	1808.0	1808.0	1828.0	1828.0	1828.0	1825.0	1825.0	1825.0	1825.0	1825.0	1802.0	1802.0	1788.0	1788.0	1788.0	1820.0	1820.0	1794.0	1794.0	1794.0	1813.0	1813.0	1795.0	1795.0	1795.0	1810.0	1810.0	1833.0	1833.0	1833.0	1797.0	1797.0	1818.0	1818.0	1818.0	1812.0	1812.0	1820.0	1820.0	1820.0	1819.0	1819.0	1819.0	1819.0	1819.0	1816.0	1816.0	1803.0	1803.0	1803.0	1809.0	1809.0	1822.0	1822.0	1822.0	1818.0	1818.0	1801.0	1801.0	1801.0	1812.0	1812.0	1815.0	1815.0	1815.0	1828.0	1828.0	1803.0	1803.0	1803.0	1812.0	1812.0	1813.0	1813.0	1813.0	1828.0	1828.0	1828.0	1828.0	1828.0	1802.0	1802.0	1823.0	1823.0	1823.0	1807.0	1807.0	1806.0	1806.0	1806.0	1821.0	1821.0	1803.0	1803.0	1803.0	1818.0	1818.0	1825.0	1825.0	1825.0	1796.0	1796.0	1796.0	1796.0	1796.0	1821.0	1821.0	1793.0	1793.0	1793.0	1800.0	1800.0	1803.0	1803.0	1803.0	1805.0	1805.0	1810.0	1810.0	1810.0	1804.0	1804.0	1817.0	1817.0	1817.0	1808.0	1808.0	1800.0	1800.0	1800.0	1817.0	1817.0	1805.0	1805.0	1805.0	1812.0	1812.0	1816.0	1816.0	1816.0	1796.0	1796.0	1806.0	1806.0	1806.0	1820.0	1820.0	1817.0	1817.0	1817.0	1796.0	1796.0	1808.0	1808.0	1808.0	1816.0	1816.0	1815.0	1815.0	1815.0	1808.0	1808.0	1809.0	1809.0	1812.0	1812.0	1812.0	1804.0	1804.0	1794.0	1794.0	1794.0	1791.0	1791.0	1800.0	1800.0	1800.0	1796.0	1796.0	1817.0	1817.0	1817.0	1799.0	1799.0	1802.0	1802.0	1802.0	1782.0	1782.0	1791.0	1791.0	1791.0	1793.0	1793.0	1800.0	1800.0	1800.0	1819.0	1819.0	1809.0	1809.0	1809.0	1810.0	1810.0	1783.0	1783.0	1783.0	1802.0	1802.0	1802.0	1802.0	1802.0	1799.0	1799.0	1791.0	1791.0	1791.0	1813.0	1813.0	1795.0	1795.0	1795.0	1817.0	1817.0	1806.0	1806.0	1806.0	1833.0	1833.0	1822.0	1822.0	1822.0	1862.0	1862.0	1845.0	1845.0	1845.0	1846.0	1846.0	1873.0	1873.0	1873.0	1881.0	1881.0	1877.0	1877.0	1877.0	1924.0	1924.0	1927.0	1927.0	1927.0	1929.0	1929.0	1958.0	1958.0	1958.0	1959.0	1959.0	2019.0	2019.0	2019.0	2001.0	2001.0	2039.0	2039.0	2039.0	2044.0	2044.0	2072.0	2072.0	2072.0	2074.0	2074.0	2106.0	2106.0	2106.0	2100.0	2100.0	2129.0	2129.0	2129.0	2158.0	2158.0	2166.0	2166.0	2166.0	2172.0	2172.0	2194.0	2194.0	2194.0	2223.0	2223.0	2226.0	2226.0	2226.0	2230.0	2230.0	2255.0	2255.0	2255.0	2266.0	2266.0	2249.0	2249.0	2249.0	2290.0	2290.0	2278.0	2278.0	2278.0	2293.0	2293.0	2289.0	2289.0	2289.0	2314.0	2314.0	2323.0	2323.0	2323.0	2322.0	2322.0	2311.0	2311.0	2311.0	2332.0	2332.0	2351.0	2351.0	2351.0	2345.0	2345.0	2345.0	2345.0	2345.0	2350.0	2350.0	2365.0	2365.0	2365.0	2367.0	2367.0	2355.0	2355.0	2355.0	2372.0	2372.0	2364.0	2364.0	2364.0	2388.0	2388.0	2379.0	2379.0	2379.0	2395.0	2395.0	2387.0	2387.0	2387.0	2369.0	2369.0	2382.0	2382.0	2382.0	2383.0	2383.0	2363.0	2363.0	2366.0	2366.0	2366.0	2366.0	2366.0	2366.0	2366.0	2366.0	2371.0	2371.0	2370.0	2370.0	2370.0	2359.0	2359.0	2347.0	2347.0	2347.0	2386.0	2386.0	2377.0	2377.0	2377.0	2384.0	2384.0	2378.0	2378.0	2378.0	2356.0	2356.0	2382.0	2382.0	2382.0	2359.0	2359.0	2361.0	2361.0	2361.0	2364.0	2364.0	2369.0	2369.0	2369.0	2366.0	2366.0	2392.0	2392.0	2392.0	2354.0	2354.0	2381.0	2381.0	2381.0	2373.0	2373.0	2374.0	2374.0	2374.0	2360.0	2360.0	2372.0	2372.0	2372.0	2366.0	2366.0	2364.0	2364.0	2364.0	2379.0	2379.0	2360.0	2360.0	2360.0	2370.0	2370.0	2376.0	2376.0	2376.0	2348.0	2348.0	2366.0	2366.0	2366.0	2376.0	2376.0	2362.0	2362.0	2362.0	2345.0	2345.0	2373.0	2373.0	2373.0	2383.0	2383.0	2349.0	2349.0	2349.0	2347.0	2347.0	2339.0	2339.0	2339.0	2337.0	2337.0	2345.0	2345.0	2345.0	2347.0	2347.0	2346.0	2346.0	2346.0	2339.0	2339.0	2339.0	2339.0	2339.0	2342.0	2342.0	2346.0	2346.0	2346.0	2332.0	2332.0	2332.0	2332.0	2332.0	2324.0	2324.0	2315.0	2315.0	2315.0	2332.0	2332.0	2308.0	2308.0	2308.0	2317.0	2317.0	2293.0	2293.0	2293.0	2286.0	2286.0	2279.0	2279.0	2279.0	2255.0	2255.0	2245.0	2245.0	2245.0	2262.0	2262.0	2231.0	2231.0	2231.0	2247.0	2247.0	2239.0	2239.0	2239.0	2207.0	2207.0	2210.0	2210.0	2210.0	2207.0	2207.0	2200.0	2200.0	2200.0	2183.0	2183.0	2198.0	2198.0	2198.0	2166.0	2166.0	2168.0	2168.0	2168.0	2183.0	2183.0	2147.0	2147.0	2147.0	2156.0	2156.0	2139.0	2139.0	2139.0	2123.0	2123.0	2122.0	2122.0	2122.0	2118.0	2118.0	2128.0	2128.0	2122.0	2122.0	2122.0	2106.0	2106.0	2111.0	2111.0	2111.0	2105.0	2105.0	2072.0	2072.0	2072.0	2097.0	2097.0	2069.0	2069.0	2069.0	2080.0	2080.0	2059.0	2059.0	2059.0	2049.0	2049.0	2038.0	2038.0	2038.0	2061.0	2061.0	2036.0	2036.0	2036.0	2043.0	2043.0	2037.0	2037.0	2037.0	2047.0	2047.0	2062.0	2062.0	2062.0	2057.0	2057.0	2049.0	2049.0	2049.0	2049.0	2049.0	2033.0	2033.0	2033.0	2033.0	2033.0	2019.0	2019.0	2019.0	2019.0	2019.0	2034.0	2034.0	2034.0	2016.0	2016.0	2041.0	2041.0	2041.0	2022.0	2022.0	2016.0	2016.0	2016.0	2008.0	2008.0	2016.0	2016.0	2016.0	2011.0	2011.0	1987.0	1987.0	1987.0	1999.0	1999.0	1999.0	1999.0	1999.0	2000.0	2000.0	1987.0	1987.0	1987.0	2014.0	2014.0	1996.0	1996.0	1996.0	1990.0	1990.0	1987.0	1987.0	1987.0	1968.0	1968.0	1987.0	1987.0	1987.0	1990.0	1990.0	1960.0	1960.0	1960.0	1993.0	1993.0	1970.0	1970.0	1970.0	1980.0	1980.0	1963.0	1963.0	1963.0	1991.0	1991.0	1948.0	1948.0	1948.0	1972.0	1972.0	1979.0	1979.0	1979.0	1951.0	1951.0	1956.0	1956.0	1956.0	1958.0	1958.0	1948.0	1948.0	1948.0	1947.0	1947.0	1957.0	1957.0	1957.0	1945.0	1945.0	1930.0	1930.0	1930.0	1950.0	1950.0	1944.0	1944.0	1944.0	1937.0	1937.0	1919.0	1919.0	1919.0	1934.0	1934.0	1943.0	1943.0	1943.0	1918.0	1918.0	1928.0	1928.0	1928.0	1925.0	1925.0	1910.0	1910.0	1910.0	1895.0	1895.0	1919.0	1919.0	1919.0	1900.0	1900.0	1892.0	1892.0	1892.0	1900.0	1900.0	1894.0	1894.0	1894.0	1915.0	1915.0	1880.0	1880.0	1880.0	1900.0	1900.0	1888.0	1888.0	1888.0	1909.0	1909.0	1911.0	1911.0	1881.0	1881.0	1881.0	1893.0	1893.0	1891.0	1891.0	1891.0	1884.0	1884.0	1875.0	1875.0	1875.0	1890.0	1890.0	1885.0	1885.0	1885.0	1868.0	1868.0	1892.0	1892.0	1892.0	1862.0	1862.0	1872.0	1872.0	1872.0	1868.0	1868.0	1857.0	1857.0	1857.0	1865.0	1865.0	1877.0	1877.0	1877.0	1858.0	1858.0	1863.0	1863.0	1863.0	1875.0	1875.0	1872.0	1872.0	1872.0	1872.0	1872.0	1855.0	1855.0	1855.0	1863.0	1863.0	1869.0	1869.0	1869.0	1856.0	1856.0	1879.0	1879.0	1879.0	1857.0	1857.0	1849.0	1849.0	1849.0	1849.0	1849.0	1837.0	1837.0	1837.0	1862.0	1862.0	1840.0	1840.0	1840.0	1831.0	1831.0	1848.0	1848.0	1848.0	1823.0	1823.0	1840.0	1840.0	1840.0	1837.0	1837.0	1844.0	1844.0	1844.0	1844.0	1844.0	1830.0	1830.0	1830.0	1828.0	1828.0	1843.0	1843.0	1843.0	1831.0	1831.0	1826.0	1826.0	1826.0	1820.0	1820.0	1838.0	1838.0	1838.0	1828.0	1828.0	1823.0	1823.0	1823.0	1831.0	1831.0	1822.0	1822.0	1822.0	1824.0	1824.0	1825.0	1825.0	1825.0	1831.0	1831.0	1825.0	1825.0	1825.0	1803.0	1803.0	1801.0	1801.0	1801.0	1811.0	1811.0	1818.0	1818.0	1818.0	1838.0	1838.0	1807.0	1807.0	1807.0	1795.0	1795.0	1819.0	1819.0	1819.0	1816.0	1816.0	1813.0	1813.0	1813.0	1799.0	1799.0	1822.0	1822.0	1822.0	