1949.0	1917.0	1917.0	1917.0	1936.0	1936.0	1913.0	1913.0	1913.0	1957.0	1957.0	1910.0	1910.0	1910.0	1915.0	1915.0	1937.0	1937.0	1937.0	1902.0	1902.0	1910.0	1910.0	1910.0	1923.0	1923.0	1904.0	1904.0	1930.0	1930.0	1930.0	1916.0	1916.0	1899.0	1899.0	1899.0	1923.0	1923.0	1890.0	1890.0	1890.0	1901.0	1901.0	1889.0	1889.0	1889.0	1905.0	1905.0	1888.0	1888.0	1888.0	1882.0	1882.0	1871.0	1871.0	1871.0	1880.0	1880.0	1868.0	1868.0	1868.0	1929.0	1929.0	1879.0	1879.0	1879.0	1876.0	1876.0	1891.0	1891.0	1891.0	1903.0	1903.0	1906.0	1906.0	1906.0	1860.0	1860.0	1863.0	1863.0	1863.0	1872.0	1872.0	1892.0	1892.0	1892.0	1890.0	1890.0	1892.0	1892.0	1892.0	1884.0	1884.0	1860.0	1860.0	1860.0	1871.0	1871.0	1873.0	1873.0	1873.0	1840.0	1840.0	1826.0	1826.0	1826.0	1867.0	1867.0	1828.0	1828.0	1828.0	1827.0	1827.0	1844.0	1844.0	1844.0	1824.0	1824.0	1862.0	1862.0	1862.0	1846.0	1846.0	1790.0	1790.0	1790.0	1826.0	1826.0	1821.0	1821.0	1821.0	1841.0	1841.0	1809.0	1809.0	1809.0	1823.0	1823.0	1821.0	1821.0	1821.0	1799.0	1799.0	1814.0	1814.0	1814.0	1788.0	1788.0	1819.0	1819.0	1819.0	1785.0	1785.0	1806.0	1806.0	1806.0	1803.0	1803.0	1795.0	1795.0	1795.0	1763.0	1763.0	1756.0	1756.0	1756.0	1751.0	1751.0	1780.0	1780.0	1780.0	1762.0	1762.0	1795.0	1795.0	1795.0	1780.0	1780.0	1751.0	1751.0	1751.0	1745.0	1745.0	1767.0	1767.0	1767.0	1780.0	1780.0	1770.0	1770.0	1770.0	1751.0	1751.0	1748.0	1748.0	1748.0	1765.0	1765.0	1766.0	1766.0	1766.0	1762.0	1762.0	1762.0	1762.0	1762.0	1720.0	1720.0	1739.0	1739.0	1739.0	1730.0	1730.0	1724.0	1724.0	1724.0	1717.0	1717.0	1698.0	1698.0	1698.0	1710.0	1710.0	1704.0	1704.0	1704.0	1731.0	1731.0	1742.0	1742.0	1742.0	1748.0	1748.0	1711.0	1711.0	1760.0	1760.0	1760.0	1702.0	1702.0	1714.0	1714.0	1714.0	1752.0	1752.0	1715.0	1715.0	1715.0	1738.0	1738.0	1714.0	1714.0	1714.0	1750.0	1750.0	1704.0	1704.0	1704.0	1706.0	1706.0	1735.0	1735.0	1735.0	1725.0	1725.0	1709.0	1709.0	1709.0	1724.0	1724.0	1703.0	1703.0	1703.0	1707.0	1707.0	1693.0	1693.0	1693.0	1736.0	1736.0	1701.0	1701.0	1701.0	1710.0	1710.0	1742.0	1742.0	1742.0	1713.0	1713.0	1748.0	1748.0	1748.0	1706.0	1706.0	1698.0	1698.0	1698.0	1718.0	1718.0	1746.0	1746.0	1746.0	1741.0	1741.0	1695.0	1695.0	1695.0	1691.0	1691.0	1699.0	1699.0	1699.0	1715.0	1715.0	1738.0	1738.0	1738.0	1752.0	1752.0	1715.0	1715.0	1715.0	1688.0	1688.0	1712.0	1712.0	1712.0	1699.0	1699.0	1715.0	1715.0	1715.0	1711.0	1711.0	1688.0	1688.0	1688.0	1689.0	1689.0	1729.0	1729.0	1729.0	1725.0	1725.0	1687.0	1687.0	1687.0	1701.0	1701.0	1710.0	1710.0	1710.0	1681.0	1681.0	1722.0	1722.0	1722.0	1700.0	1700.0	1677.0	1677.0	1677.0	1667.0	1667.0	1701.0	1701.0	1701.0	1713.0	1713.0	1667.0	1667.0	1667.0	1724.0	1724.0	1727.0	1727.0	1727.0	1690.0	1690.0	1703.0	1703.0	1703.0	1701.0	1701.0	1660.0	1660.0	1660.0	1725.0	1725.0	1672.0	1672.0	1672.0	1665.0	1665.0	1715.0	1715.0	1715.0	1691.0	1691.0	1702.0	1702.0	1702.0	1684.0	1684.0	1684.0	1684.0	1684.0	1675.0	1675.0	1720.0	1720.0	1720.0	1741.0	1741.0	1752.0	1752.0	1752.0	1731.0	1731.0	1731.0	1731.0	1731.0	1782.0	1782.0	1803.0	1803.0	1803.0	1783.0	1783.0	1790.0	1790.0	1790.0	1834.0	1834.0	1838.0	1838.0	1914.0	1914.0	1914.0	1887.0	1887.0	1949.0	1949.0	1949.0	1953.0	1953.0	2000.0	2000.0	2000.0	2050.0	2050.0	2039.0	2039.0	2039.0	2060.0	2060.0	2133.0	2133.0	2133.0	2117.0	2117.0	2154.0	2154.0	2154.0	2209.0	2209.0	2240.0	2240.0	2240.0	2283.0	2283.0	2291.0	2291.0	2291.0	2318.0	2318.0	2332.0	2332.0	2332.0	2407.0	2407.0	2418.0	2418.0	2418.0	2466.0	2466.0	2463.0	2463.0	2463.0	2470.0	2470.0	2490.0	2490.0	2490.0	2550.0	2550.0	2545.0	2545.0	2545.0	2595.0	2595.0	2569.0	2569.0	2569.0	2583.0	2583.0	2598.0	2598.0	2598.0	2640.0	2640.0	2647.0	2647.0	2647.0	2632.0	2632.0	2654.0	2654.0	2654.0	2630.0	2630.0	2649.0	2649.0	2649.0	2654.0	2654.0	2645.0	2645.0	2645.0	2683.0	2683.0	2683.0	2683.0	2683.0	2690.0	2690.0	2641.0	2641.0	2641.0	2673.0	2673.0	2670.0	2670.0	2670.0	2681.0	2681.0	2683.0	2683.0	2683.0	2670.0	2670.0	2658.0	2658.0	2658.0	2663.0	2663.0	2629.0	2629.0	2629.0	2656.0	2656.0	2660.0	2660.0	2660.0	2659.0	2659.0	2600.0	2600.0	2600.0	2615.0	2615.0	2601.0	2601.0	2601.0	2596.0	2596.0	2598.0	2598.0	2598.0	2633.0	2633.0	2597.0	2597.0	2597.0	2614.0	2614.0	2597.0	2597.0	2597.0	2599.0	2599.0	2594.0	2594.0	2594.0	2553.0	2553.0	2563.0	2563.0	2563.0	2564.0	2564.0	2549.0	2549.0	2549.0	2543.0	2543.0	2539.0	2539.0	2539.0	2570.0	2570.0	2569.0	2569.0	2569.0	2524.0	2524.0	2499.0	2499.0	2499.0	2526.0	2526.0	2534.0	2534.0	2534.0	2503.0	2503.0	2491.0	2491.0	2491.0	2495.0	2495.0	2515.0	2515.0	2515.0	2484.0	2484.0	2457.0	2457.0	2461.0	2461.0	2461.0	2463.0	2463.0	2493.0	2493.0	2493.0	2451.0	2451.0	2469.0	2469.0	2469.0	2426.0	2426.0	2426.0	2426.0	2426.0	2460.0	2460.0	2437.0	2437.0	2437.0	2432.0	2432.0	2434.0	2434.0	2434.0	2381.0	2381.0	2417.0	2417.0	2417.0	2385.0	2385.0	2397.0	2397.0	2397.0	2397.0	2397.0	2340.0	2340.0	2340.0	2327.0	2327.0	2334.0	2334.0	2334.0	2336.0	2336.0	2329.0	2329.0	2329.0	2283.0	2283.0	2323.0	2323.0	2323.0	2256.0	2256.0	2266.0	2266.0	2266.0	2242.0	2242.0	2269.0	2269.0	2269.0	2243.0	2243.0	2223.0	2223.0	2223.0	2185.0	2185.0	2199.0	2199.0	2199.0	2190.0	2190.0	2191.0	2191.0	2191.0	2146.0	2146.0	2124.0	2124.0	2124.0	2121.0	2121.0	2091.0	2091.0	2091.0	2091.0	2091.0	2077.0	2077.0	2077.0	2111.0	2111.0	2054.0	2054.0	2054.0	2069.0	2069.0	2077.0	2077.0	2077.0	2053.0	2053.0	2039.0	2039.0	2039.0	2024.0	2024.0	2036.0	2036.0	2036.0	2017.0	2017.0	2065.0	2065.0	2065.0	2025.0	2025.0	1994.0	1994.0	1994.0	1982.0	1982.0	2035.0	2035.0	2035.0	1964.0	1964.0	2004.0	2004.0	2004.0	2009.0	2009.0	1967.0	1967.0	1967.0	1998.0	1998.0	1957.0	1957.0	1957.0	1971.0	1971.0	1998.0	1998.0	1998.0	2005.0	2005.0	1981.0	1981.0	1981.0	1977.0	1977.0	1958.0	1958.0	1958.0	1944.0	1944.0	1999.0	1999.0	1999.0	1967.0	1967.0	2003.0	2003.0	2003.0	1971.0	1971.0	1947.0	1947.0	1947.0	1948.0	1948.0	1943.0	1943.0	1943.0	1965.0	1965.0	1953.0	1953.0	1953.0	1952.0	1952.0	1948.0	1948.0	1948.0	1968.0	1968.0	1966.0	1966.0	1966.0	1975.0	1975.0	1985.0	1985.0	1985.0	1968.0	1968.0	1966.0	1966.0	1936.0	1936.0	1936.0	1956.0	1956.0	1972.0	1972.0	1972.0	1941.0	1941.0	1926.0	1926.0	1926.0	1927.0	1927.0	1950.0	1950.0	1950.0	1915.0	1915.0	1956.0	1956.0	1956.0	1911.0	1911.0	1921.0	1921.0	1921.0	1927.0	1927.0	1943.0	1943.0	1943.0	1911.0	1911.0	1924.0	1924.0	1924.0	1892.0	1892.0	1893.0	1893.0	1893.0	1895.0	1895.0	1877.0	1877.0	1877.0	1868.0	1868.0	1910.0	1910.0	1910.0	1908.0	1908.0	1871.0	1871.0	1871.0	1915.0	1915.0	1869.0	1869.0	1869.0	1854.0	1854.0	1887.0	1887.0	1887.0	1888.0	1888.0	1860.0	1860.0	1860.0	1893.0	1893.0	1836.0	1836.0	1836.0	1836.0	1836.0	1867.0	1867.0	1867.0	1860.0	1860.0	1834.0	1834.0	1834.0	1875.0	1875.0	1846.0	1846.0	1846.0	1844.0	1844.0	1799.0	1799.0	1799.0	1793.0	1793.0	1842.0	1842.0	1842.0	1835.0	1835.0	1847.0	1847.0	1847.0	1834.0	1834.0	1822.0	1822.0	1822.0	1800.0	1800.0	1777.0	1777.0	1777.0	1814.0	1814.0	1810.0	1810.0	1810.0	1803.0	1803.0	1761.0	1761.0	1761.0	1778.0	1778.0	1798.0	1798.0	1798.0	1753.0	1753.0	1764.0	1764.0	1764.0	1802.0	1802.0	1800.0	1800.0	1800.0	1787.0	1787.0	1752.0	1752.0	1752.0	1785.0	1785.0	1754.0	1754.0	1754.0	1783.0	1783.0	1763.0	1763.0	1763.0	1724.0	1724.0	1744.0	1744.0	1744.0	1735.0	1735.0	1719.0	1719.0	1719.0	1732.0	1732.0	1771.0	1771.0	1771.0	1716.0	1716.0	1754.0	1754.0	1754.0	1748.0	1748.0	1751.0	1751.0	1751.0	1695.0	1695.0	1747.0	1747.0	1747.0	1757.0	1757.0	1743.0	1743.0	1743.0	1706.0	1706.0	1712.0	1712.0	1712.0	1738.0	1738.0	1703.0	1703.0	1701.0	1701.0	1701.0	1686.0	1686.0	1722.0	1722.0	1722.0	1693.0	1693.0	1723.0	1723.0	1723.0	1679.0	1679.0	1715.0	1715.0	1715.0	1682.0	1682.0	1670.0	1670.0	1670.0	1711.0	1711.0	1688.0	1688.0	1688.0	1688.0	1688.0	1694.0	1694.0	1694.0	1679.0	1679.0	1697.0	1697.0	1697.0	1673.0	1673.0	1718.0	1718.0	1718.0	1707.0	1707.0	1667.0	1667.0	1667.0	1692.0	1692.0	1707.0	1707.0	1707.0	1717.0	1717.0	1691.0	1691.0	1691.0	1712.0	1712.0	1659.0	1659.0	1659.0	1667.0	1667.0	1710.0	1710.0	1710.0	1698.0	1698.0	1646.0	1646.0	1646.0	1662.0	1662.0	1656.0	1656.0	1656.0	1680.0	1680.0	1710.0	1710.0	1710.0	1718.0	1718.0	1655.0	1655.0	1655.0	1675.0	1675.0	1700.0	1700.0	1700.0	1712.0	1712.0	1662.0	1662.0	1662.0	1657.0	1657.0	1656.0	1656.0	1656.0	1672.0	1672.0	1704.0	1704.0	1704.0	1700.0	1700.0	1718.0	1718.0	1718.0	1674.0	1674.0	1684.0	1684.0	1684.0	1673.0	1673.0	1711.0	1711.0	1711.0	1659.0	1659.0	1655.0	1655.0	1655.0	1679.0	1679.0	1656.0	1656.0	1656.0	1695.0	1695.0	1672.0	1672.0	1672.0	1652.0	1652.0	1701.0	1701.0	1701.0	1706.0	1706.0	1704.0	1704.0	1704.0	1712.0	1712.0	1669.0	1669.0	1669.0	1675.0	1675.0	1709.0	1709.0	1709.0	1708.0	1708.0	1671.0	1671.0	1671.0	1668.0	1668.0	1704.0	1704.0	1704.0	1679.0	1679.0	1684.0	1684.0	1684.0	1707.0	1707.0	1678.0	1678.0	1678.0	1707.0	1707.0	1687.0	1687.0	1687.0	1696.0	1696.0	1711.0	1711.0	1711.0	1707.0	1707.0	1692.0	1692.0	1692.0	1706.0	1706.0	1700.0	1700.0	1700.0	1696.0	1696.0	1682.0	1682.0	1706.0	1706.0	1706.0	1671.0	1671.0	1694.0	1694.0	1694.0	1671.0	1671.0	1644.0	1644.0	1644.0	1668.0	1668.0	1680.0	1680.0	1680.0	1677.0	1677.0	1662.0	1662.0	1662.0	1644.0	1644.0	1682.0	1682.0	1682.0	1650.0	1650.0	1639.0	1639.0	1639.0	1634.0	1634.0	1645.0	1645.0	1645.0	1681.0	1681.0	1680.0	1680.0	1680.0	1656.0	1656.0	1656.0	1656.0	1656.0	1689.0	1689.0	1656.0	1656.0	1656.0	1677.0	1677.0	1685.0	1685.0	1685.0	1685.0	1685.0	1708.0	1708.0	1708.0	1732.0	1732.0	1712.0	1712.0	1712.0	1725.0	1725.0	1749.0	1749.0	1749.0	1763.0	1763.0	1822.0	1822.0	1822.0	1859.0	1859.0	1839.0	1839.0	1839.0	1844.0	1844.0	1912.0	1912.0	1912.0	1955.0	1955.0	1975.0	1975.0	1975.0	1969.0	1969.0	2034.0	2034.0	2034.0	2079.0	2079.0	2059.0	2059.0	2059.0	2115.0	2115.0	2131.0	2131.0	2131.0	2224.0	2224.0	2256.0	2256.0	2256.0	2252.0	2252.0	2259.0	2259.0	2259.0	2324.0	2324.0	2325.0	2325.0	2325.0	2387.0	2387.0	2425.0	2425.0	2425.0	2455.0	2455.0	2469.0	2469.0	2469.0	2504.0	2504.0	2500.0	2500.0	2500.0	2531.0	2531.0	2533.0	2533.0	2533.0	2584.0	2584.0	2613.0	2613.0	2613.0	2603.0	2603.0	2639.0	2639.0	2639.0	2656.0	2656.0	2628.0	2628.0	2628.0	2641.0	2641.0	2673.0	2673.0	2673.0	2659.0	2659.0	2700.0	2700.0	2700.0	2684.0	2684.0	2712.0	2712.0	2712.0	2715.0	2715.0	2680.0	2680.0	2680.0	2702.0	2702.0	2709.0	2709.0	2709.0	2704.0	2704.0	2672.0	2672.0	2672.0	2681.0	2681.0	2727.0	2727.0	2727.0	2689.0	2689.0	2703.0	2703.0	2703.0	2683.0	2683.0	2720.0	2720.0	2720.0	2699.0	2699.0	2690.0	2690.0	2692.0	2692.0	2692.0	2686.0	2686.0	2644.0	2644.0	2644.0	2649.0	2649.0	2631.0	2631.0	2631.0	2625.0	2625.0	2624.0	2624.0	2624.0	2662.0	2662.0	2624.0	2624.0	2624.0	2616.0	2616.0	2624.0	2624.0	2624.0	2634.0	2634.0	2647.0	2647.0	2647.0	2626.0	2626.0	2590.0	2590.0	2590.0	2612.0	2612.0	2584.0	2584.0	2584.0	2572.0	2572.0	2568.0	2568.0	2568.0	2564.0	2564.0	2554.0	2554.0	2554.0	2597.0	2597.0	2586.0	2586.0	2586.0	2584.0	2584.0	2575.0	2575.0	2575.0	2563.0	2563.0	2528.0	2528.0	2528.0	2540.0	2540.0	2520.0	2520.0	2520.0	2503.0	2503.0	2496.0	2496.0	2496.0	2510.0	2510.0	2488.0	2488.0	2488.0	2489.0	2489.0	2466.0	2466.0	2466.0	2492.0	2492.0	2480.0	2480.0	2480.0	2450.0	2450.0	2502.0	2502.0	2502.0	2469.0	2469.0	2476.0	2476.0	2476.0	2431.0	2431.0	2439.0	2439.0	2439.0	2417.0	2417.0	2457.0	2457.0	2457.0	2400.0	2400.0	2396.0	2396.0	2396.0	2417.0	2417.0	2380.0	2380.0	2380.0	2380.0	2380.0	2387.0	2387.0	2387.0	2366.0	2366.0	2381.0	2381.0	2381.0	2340.0	2340.0	2349.0	2349.0	2349.0	2303.0	2303.0	2310.0	2310.0	2310.0	2326.0	2326.0	2264.0	2264.0	2264.0	2293.0	2293.0	2263.0	2263.0	2263.0	2255.0	2255.0	2223.0	2223.0	2223.0	2249.0	2249.0	2183.0	2183.0	2183.0	2205.0	2205.0	2208.0	2208.0	2208.0	2144.0	2144.0	2143.0	2143.0	2143.0	2167.0	2167.0	2153.0	2153.0	2153.0	2112.0	2112.0	2119.0	2119.0	2119.0	2094.0	2094.0	2102.0	2102.0	2102.0	2122.0	2122.0	2082.0	2082.0	2082.0	2041.0	2041.0	2061.0	2061.0	2061.0	2059.0	2059.0	2051.0	2051.0	2026.0	2026.0	2026.0	2041.0	2041.0	2019.0	2019.0	2019.0	2033.0	2033.0	2012.0	2012.0	2012.0	2029.0	2029.0	1971.0	1971.0	1971.0	1979.0	1979.0	1968.0	1968.0	1968.0	2010.0	2010.0	1996.0	1996.0	1996.0	1996.0	1996.0	2016.0	2016.0	2016.0	2009.0	2009.0	1958.0	1958.0	1958.0	1967.0	1967.0	1994.0	1994.0	1994.0	1995.0	1995.0	1976.0	1976.0	1976.0	1945.0	1945.0	1988.0	1988.0	1988.0	1945.0	1945.0	1967.0	1967.0	1967.0	1969.0	1969.0	1973.0	1973.0	1973.0	1970.0	1970.0	1962.0	1962.0	1962.0	1992.0	1992.0	1973.0	1973.0	1973.0	1965.0	1965.0	1961.0	1961.0	1961.0	1952.0	1952.0	1983.0	1983.0	1983.0	1969.0	1969.0	1942.0	1942.0	1942.0	1951.0	1951.0	1920.0	1920.0	1920.0	1921.0	1921.0	1937.0	1937.0	1937.0	1924.0	1924.0	1958.0	1958.0	1958.0	1918.0	1918.0	1915.0	1915.0	1915.0	1947.0	1947.0	1935.0	1935.0	1935.0	1929.0	1929.0	1884.0	1884.0	1884.0	1899.0	1899.0	1908.0	1908.0	1908.0	1902.0	1902.0	1903.0	1903.0	1903.0	1895.0	1895.0	1923.0	1923.0	1923.0	1881.0	1881.0	1920.0	1920.0	1920.0	1886.0	1886.0	1918.0	1918.0	1918.0	1916.0	1916.0	1905.0	1905.0	1905.0	1900.0	1900.0	1884.0	1884.0	1884.0	1901.0	1901.0	1893.0	1893.0	1893.0	1886.0	1886.0	1852.0	1852.0	1852.0	1848.0	1848.0	1863.0	1863.0	1863.0	1844.0	1844.0	1872.0	1872.0	1872.0	1866.0	1866.0	1871.0	1871.0	1871.0	1849.0	1849.0	1846.0	1846.0	1846.0	1870.0	1870.0	1842.0	1842.0	1842.0	1851.0	1851.0	1827.0	1827.0	1827.0	1846.0	1846.0	1797.0	1797.0	1797.0	1801.0	1801.0	1806.0	1806.0	1806.0	1823.0	1823.0	1793.0	1793.0	1795.0	1795.0	1795.0	1776.0	1776.0	1781.0	1781.0	1781.0	1812.0	1812.0	1820.0	1820.0	1820.0	1820.0	1820.0	1753.0	1753.0	1753.0	1790.0	1790.0	1815.0	1815.0	1815.0	1765.0	1765.0	1770.0	1770.0	1770.0	1749.0	1749.0	1793.0	1793.0	1793.0	1736.0	1736.0	1776.0	1776.0	1776.0	1762.0	1762.0	1788.0	1788.0	1788.0	1772.0	1772.0	1731.0	1731.0	1731.0	1735.0	1735.0	1742.0	1742.0	1742.0	1710.0	1710.0	1713.0	1713.0	1713.0	1740.0	1740.0	1750.0	1750.0	1750.0	1730.0	1730.0	1699.0	1699.0	1699.0	1736.0	1736.0	1696.0	1696.0	1696.0	1699.0	1699.0	1743.0	1743.0	1743.0	1696.0	1696.0	1712.0	1712.0	1712.0	1690.0	1690.0	1679.0	1679.0	1679.0	1690.0	1690.0	1685.0	1685.0	1685.0	1679.0	1679.0	1731.0	1731.0	1731.0	1718.0	1718.0	1684.0	1684.0	1684.0	1680.0	1680.0	1692.0	1692.0	1692.0	1680.0	1680.0	1672.0	1672.0	1672.0	1696.0	1696.0	1660.0	1660.0	1660.0	1691.0	1691.0	1715.0	1715.0	1715.0	1685.0	1685.0	1712.0	1712.0	1712.0	1688.0	1688.0	1710.0	1710.0	1710.0	1675.0	1675.0	1690.0	1690.0	1690.0	1709.0	1709.0	1665.0	1665.0	1665.0	1667.0	1667.0	1683.0	1683.0	1683.0	1647.0	1647.0	1687.0	1687.0	1687.0	1660.0	1660.0	1655.0	1655.0	1655.0	1677.0	1677.0	1654.0	1654.0	1654.0	1655.0	1655.0	1679.0	1679.0	1679.0	1674.0	1674.0	1668.0	1668.0	1668.0	1691.0	1691.0	1700.0	1700.0	1700.0	1647.0	1647.0	1651.0	1651.0	1651.0	1679.0	1679.0	1699.0	1699.0	1699.0	1657.0	1657.0	1649.0	1649.0	1649.0	1677.0	1677.0	1654.0	1654.0	1654.0	1661.0	1661.0	1646.0	1646.0	1696.0	1696.0	1696.0	1686.0	1686.0	1675.0	1675.0	1675.0	1640.0	1640.0	1689.0	1689.0	1689.0	1679.0	1679.0	1685.0	1685.0	1685.0	1674.0	1674.0	1690.0	1690.0	1690.0	1686.0	1686.0	1654.0	1654.0	1654.0	1689.0	1689.0	1655.0	1655.0	