1951.0	1873.0	1873.0	1873.0	1844.0	1844.0	1808.0	1808.0	1808.0	1781.0	1781.0	1752.0	1752.0	1752.0	1760.0	1760.0	1730.0	1730.0	1730.0	1730.0	1730.0	1742.0	1742.0	1742.0	1688.0	1688.0	1700.0	1700.0	1700.0	1703.0	1703.0	1690.0	1690.0	1690.0	1701.0	1701.0	1702.0	1702.0	1702.0	1699.0	1699.0	1672.0	1672.0	1672.0	1672.0	1672.0	1664.0	1664.0	1664.0	1680.0	1680.0	1663.0	1663.0	1663.0	1703.0	1703.0	1680.0	1680.0	1680.0	1670.0	1670.0	1670.0	1670.0	1670.0	1672.0	1672.0	1683.0	1683.0	1683.0	1662.0	1662.0	1690.0	1690.0	1690.0	1686.0	1686.0	1665.0	1665.0	1665.0	1662.0	1662.0	1661.0	1661.0	1675.0	1675.0	1675.0	1685.0	1685.0	1671.0	1671.0	1671.0	1676.0	1676.0	1683.0	1683.0	1683.0	1687.0	1687.0	1694.0	1694.0	1694.0	1703.0	1703.0	1668.0	1668.0	1668.0	1667.0	1667.0	1682.0	1682.0	1682.0	1685.0	1685.0	1682.0	1682.0	1682.0	1675.0	1675.0	1677.0	1677.0	1677.0	1692.0	1692.0	1707.0	1707.0	1707.0	1694.0	1694.0	1694.0	1694.0	1694.0	1719.0	1719.0	1717.0	1717.0	1717.0	1705.0	1705.0	1703.0	1703.0	1703.0	1712.0	1712.0	1708.0	1708.0	1708.0	1727.0	1727.0	1726.0	1726.0	1726.0	1727.0	1727.0	1745.0	1745.0	1745.0	1723.0	1723.0	1733.0	1733.0	1733.0	1741.0	1741.0	1740.0	1740.0	1740.0	1740.0	1740.0	1726.0	1726.0	1726.0	1730.0	1730.0	1734.0	1734.0	1734.0	1753.0	1753.0	1754.0	1754.0	1754.0	1739.0	1739.0	1731.0	1731.0	1731.0	1723.0	1723.0	1729.0	1729.0	1729.0	1719.0	1719.0	1733.0	1733.0	1733.0	1731.0	1731.0	1726.0	1726.0	1726.0	1718.0	1718.0	1748.0	1748.0	1748.0	1740.0	1740.0	1742.0	1742.0	1742.0	1753.0	1753.0	1746.0	1746.0	1746.0	1740.0	1740.0	1756.0	1756.0	1756.0	1746.0	1746.0	1743.0	1743.0	1743.0	1732.0	1732.0	1738.0	1738.0	1738.0	1764.0	1764.0	1737.0	1737.0	1737.0	1735.0	1735.0	1765.0	1765.0	1765.0	1749.0	1749.0	1747.0	1747.0	1747.0	1738.0	1738.0	1763.0	1763.0	1763.0	1739.0	1739.0	1733.0	1733.0	1733.0	1770.0	1770.0	1767.0	1767.0	1767.0	1741.0	1741.0	1747.0	1747.0	1747.0	1738.0	1738.0	1742.0	1742.0	1742.0	1765.0	1765.0	1758.0	1758.0	1758.0	1745.0	1745.0	1747.0	1747.0	1747.0	1758.0	1758.0	1748.0	1748.0	1748.0	1731.0	1731.0	1742.0	1742.0	1754.0	1754.0	1754.0	1753.0	1753.0	1754.0	1754.0	1754.0	1751.0	1751.0	1751.0	1751.0	1751.0	1755.0	1755.0	1731.0	1731.0	1731.0	1763.0	1763.0	1742.0	1742.0	1742.0	1752.0	1752.0	1748.0	1748.0	1748.0	1744.0	1744.0	1740.0	1740.0	1740.0	1768.0	1768.0	1759.0	1759.0	1759.0	1760.0	1760.0	1755.0	1755.0	1755.0	1748.0	1748.0	1749.0	1749.0	1749.0	1744.0	1744.0	1760.0	1760.0	1760.0	1749.0	1749.0	1752.0	1752.0	1752.0	1777.0	1777.0	1768.0	1768.0	1768.0	1753.0	1753.0	1767.0	1767.0	1767.0	1786.0	1786.0	1762.0	1762.0	1762.0	1757.0	1757.0	1777.0	1777.0	1777.0	1775.0	1775.0	1783.0	1783.0	1783.0	1766.0	1766.0	1773.0	1773.0	1773.0	1747.0	1747.0	1756.0	1756.0	1756.0	1780.0	1780.0	1777.0	1777.0	1777.0	1758.0	1758.0	1803.0	1803.0	1803.0	1782.0	1782.0	1759.0	1759.0	1759.0	1767.0	1767.0	1782.0	1782.0	1782.0	1769.0	1769.0	1767.0	1767.0	1767.0	1779.0	1779.0	1775.0	1775.0	1775.0	1791.0	1791.0	1766.0	1766.0	1766.0	1776.0	1776.0	1768.0	1768.0	1768.0	1790.0	1790.0	1788.0	1788.0	1788.0	1791.0	1791.0	1772.0	1772.0	1772.0	1782.0	1782.0	1772.0	1772.0	1772.0	1793.0	1793.0	1796.0	1796.0	1796.0	1788.0	1788.0	1813.0	1813.0	1813.0	1800.0	1800.0	1796.0	1796.0	1796.0	1772.0	1772.0	1807.0	1807.0	1807.0	1789.0	1789.0	1786.0	1786.0	1786.0	1809.0	1809.0	1804.0	1804.0	1804.0	1778.0	1778.0	1811.0	1811.0	1811.0	1797.0	1797.0	1801.0	1801.0	1801.0	1818.0	1818.0	1789.0	1789.0	1789.0	1810.0	1810.0	1820.0	1820.0	1820.0	1805.0	1805.0	1798.0	1798.0	1827.0	1827.0	1827.0	1787.0	1787.0	1808.0	1808.0	1808.0	1797.0	1797.0	1804.0	1804.0	1804.0	1783.0	1783.0	1813.0	1813.0	1813.0	1793.0	1793.0	1790.0	1790.0	1790.0	1836.0	1836.0	1805.0	1805.0	1805.0	1802.0	1802.0	1791.0	1791.0	1791.0	1804.0	1804.0	1790.0	1790.0	1790.0	1793.0	1793.0	1797.0	1797.0	1797.0	1801.0	1801.0	1803.0	1803.0	1803.0	1823.0	1823.0	1808.0	1808.0	1808.0	1794.0	1794.0	1803.0	1803.0	1803.0	1821.0	1821.0	1813.0	1813.0	1813.0	1823.0	1823.0	1821.0	1821.0	1821.0	1820.0	1820.0	1817.0	1817.0	1817.0	1819.0	1819.0	1831.0	1831.0	1831.0	1798.0	1798.0	1807.0	1807.0	1807.0	1835.0	1835.0	1818.0	1818.0	1818.0	1808.0	1808.0	1830.0	1830.0	1830.0	1794.0	1794.0	1811.0	1811.0	1811.0	1796.0	1796.0	1810.0	1810.0	1810.0	1815.0	1815.0	1824.0	1824.0	1824.0	1815.0	1815.0	1825.0	1825.0	1825.0	1823.0	1823.0	1834.0	1834.0	1834.0	1820.0	1820.0	1830.0	1830.0	1830.0	1848.0	1848.0	1850.0	1850.0	1850.0	1844.0	1844.0	1856.0	1856.0	1856.0	1856.0	1856.0	1859.0	1859.0	1859.0	1907.0	1907.0	1915.0	1915.0	1915.0	1910.0	1910.0	1941.0	1941.0	1941.0	1923.0	1923.0	1954.0	1954.0	1954.0	1945.0	1945.0	1970.0	1970.0	1970.0	1975.0	1975.0	1998.0	1998.0	1998.0	2011.0	2011.0	2040.0	2040.0	2040.0	2050.0	2050.0	2040.0	2040.0	2040.0	2056.0	2056.0	2080.0	2080.0	2080.0	2071.0	2071.0	2103.0	2103.0	2103.0	2092.0	2092.0	2095.0	2095.0	2095.0	2105.0	2105.0	2130.0	2130.0	2130.0	2123.0	2123.0	2157.0	2157.0	2157.0	2159.0	2159.0	2142.0	2142.0	2142.0	2164.0	2164.0	2153.0	2153.0	2176.0	2176.0	2176.0	2170.0	2170.0	2182.0	2182.0	2182.0	2173.0	2173.0	2193.0	2193.0	2193.0	2198.0	2198.0	2205.0	2205.0	2205.0	2206.0	2206.0	2217.0	2217.0	2217.0	2216.0	2216.0	2206.0	2206.0	2206.0	2216.0	2216.0	2220.0	2220.0	2220.0	2204.0	2204.0	2212.0	2212.0	2212.0	2218.0	2218.0	2212.0	2212.0	2212.0	2203.0	2203.0	2218.0	2218.0	2218.0	2210.0	2210.0	2230.0	2230.0	2230.0	2211.0	2211.0	2217.0	2217.0	2217.0	2223.0	2223.0	2208.0	2208.0	2208.0	2217.0	2217.0	2226.0	2226.0	2226.0	2219.0	2219.0	2221.0	2221.0	2221.0	2210.0	2210.0	2231.0	2231.0	2231.0	2220.0	2220.0	2198.0	2198.0	2198.0	2205.0	2205.0	2199.0	2199.0	2199.0	2231.0	2231.0	2216.0	2216.0	2216.0	2206.0	2206.0	2199.0	2199.0	2199.0	2221.0	2221.0	2239.0	2239.0	2239.0	2222.0	2222.0	2213.0	2213.0	2213.0	2221.0	2221.0	2226.0	2226.0	2226.0	2208.0	2208.0	2225.0	2225.0	2225.0	2209.0	2209.0	2221.0	2221.0	2221.0	2200.0	2200.0	2199.0	2199.0	2199.0	2205.0	2205.0	2211.0	2211.0	2211.0	2203.0	2203.0	2232.0	2232.0	2232.0	2211.0	2211.0	2220.0	2220.0	2220.0	2212.0	2212.0	2224.0	2224.0	2224.0	2201.0	2201.0	2197.0	2197.0	2197.0	2175.0	2175.0	2194.0	2194.0	2194.0	2197.0	2197.0	2194.0	2194.0	2194.0	2200.0	2200.0	2175.0	2175.0	2175.0	2211.0	2211.0	2201.0	2201.0	2201.0	2166.0	2166.0	2185.0	2185.0	2185.0	2171.0	2171.0	2152.0	2152.0	2152.0	2177.0	2177.0	2168.0	2168.0	2168.0	2176.0	2176.0	2187.0	2187.0	2187.0	2160.0	2160.0	2161.0	2161.0	2161.0	2111.0	2111.0	2133.0	2133.0	2128.0	2128.0	2128.0	2143.0	2143.0	2114.0	2114.0	2114.0	2119.0	2119.0	2095.0	2095.0	2095.0	2131.0	2131.0	2099.0	2099.0	2099.0	2074.0	2074.0	2074.0	2074.0	2074.0	2105.0	2105.0	2091.0	2091.0	2091.0	2073.0	2073.0	2079.0	2079.0	2079.0	2067.0	2067.0	2042.0	2042.0	2042.0	2040.0	2040.0	2066.0	2066.0	2066.0	2047.0	2047.0	2035.0	2035.0	2035.0	2031.0	2031.0	2035.0	2035.0	2035.0	2039.0	2039.0	2030.0	2030.0	2030.0	2001.0	2001.0	2035.0	2035.0	2035.0	2012.0	2012.0	2017.0	2017.0	2017.0	2015.0	2015.0	2030.0	2030.0	2030.0	2013.0	2013.0	1996.0	1996.0	1996.0	2013.0	2013.0	2007.0	2007.0	2007.0	2020.0	2020.0	2015.0	2015.0	2015.0	2021.0	2021.0	2018.0	2018.0	2018.0	1995.0	1995.0	1980.0	1980.0	1980.0	1996.0	1996.0	1974.0	1974.0	1974.0	2008.0	2008.0	1991.0	1991.0	1991.0	1998.0	1998.0	1982.0	1982.0	1982.0	2008.0	2008.0	1992.0	1992.0	1992.0	1996.0	1996.0	1969.0	1969.0	1969.0	1978.0	1978.0	1982.0	1982.0	1982.0	1997.0	1997.0	1994.0	1994.0	1994.0	1976.0	1976.0	1972.0	1972.0	1972.0	1992.0	1992.0	1954.0	1954.0	1954.0	1987.0	1987.0	1994.0	1994.0	1994.0	1958.0	1958.0	1977.0	1977.0	1977.0	1973.0	1973.0	1962.0	1962.0	1962.0	1958.0	1958.0	1949.0	1949.0	1949.0	1951.0	1951.0	1956.0	1956.0	1956.0	1982.0	1982.0	1961.0	1961.0	1961.0	1959.0	1959.0	1955.0	1955.0	1955.0	1955.0	1955.0	1968.0	1968.0	1968.0	1938.0	1938.0	1945.0	1945.0	1945.0	1945.0	1945.0	1949.0	1949.0	1949.0	1933.0	1933.0	1962.0	1962.0	1962.0	1936.0	1936.0	1963.0	1963.0	1945.0	1945.0	1945.0	1959.0	1959.0	1962.0	1962.0	1962.0	1928.0	1928.0	1966.0	1966.0	1966.0	1924.0	1924.0	1948.0	1948.0	1948.0	1905.0	1905.0	1928.0	1928.0	1928.0	1938.0	1938.0	1958.0	1958.0	1958.0	1912.0	1912.0	1909.0	1909.0	1909.0	1913.0	1913.0	1945.0	1945.0	1945.0	1914.0	1914.0	1938.0	1938.0	1938.0	1911.0	1911.0	1911.0	1911.0	1911.0	1936.0	1936.0	1918.0	1918.0	1918.0	1915.0	1915.0	1911.0	1911.0	1911.0	1909.0	1909.0	1907.0	1907.0	1907.0	1895.0	1895.0	1912.0	1912.0	1912.0	1898.0	1898.0	1900.0	1900.0	1900.0	1918.0	1918.0	1914.0	1914.0	1914.0	1904.0	1904.0	1909.0	1909.0	1909.0	1899.0	1899.0	1913.0	1913.0	1913.0	1903.0	1903.0	1891.0	1891.0	1891.0	1900.0	1900.0	1911.0	1911.0	1911.0	1912.0	1912.0	1893.0	1893.0	1893.0	1887.0	1887.0	1927.0	1927.0	1927.0	1892.0	1892.0	1902.0	1902.0	1902.0	1912.0	1912.0	1870.0	1870.0	1870.0	1902.0	1902.0	1898.0	1898.0	1898.0	1883.0	1883.0	1877.0	1877.0	1877.0	1893.0	1893.0	1876.0	1876.0	1876.0	1881.0	1881.0	1906.0	1906.0	1906.0	1881.0	1881.0	1870.0	1870.0	1870.0	1880.0	1880.0	1878.0	1878.0	1878.0	1896.0	1896.0	1896.0	1896.0	1896.0	1865.0	1865.0	1885.0	1885.0	1885.0	1859.0	1859.0	1899.0	1899.0	1899.0	1876.0	1876.0	1896.0	1896.0	1896.0	1863.0	1863.0	1879.0	1879.0	1879.0	1885.0	1885.0	1869.0	1869.0	1869.0	1878.0	1878.0	1881.0	1881.0	1881.0	1881.0	1881.0	1858.0	1858.0	1858.0	1847.0	1847.0	1869.0	1869.0	1869.0	1867.0	1867.0	1866.0	1866.0	1866.0	1864.0	1864.0	1887.0	1887.0	1887.0	1868.0	1868.0	1888.0	1888.0	1887.0	1887.0	1887.0	1853.0	1853.0	1885.0	1885.0	1885.0	1881.0	1881.0	1881.0	1881.0	1881.0	1879.0	1879.0	1859.0	1859.0	1859.0	1874.0	1874.0	1866.0	1866.0	1866.0	1871.0	1871.0	1863.0	1863.0	1863.0	1863.0	1863.0	1859.0	1859.0	1859.0	1862.0	1862.0	1885.0	1885.0	1885.0	1838.0	1838.0	1863.0	1863.0	1863.0	1871.0	1871.0	1856.0	1856.0	1856.0	1866.0	1866.0	1895.0	1895.0	1895.0	1870.0	1870.0	1888.0	1888.0	1888.0	1861.0	1861.0	1870.0	1870.0	1870.0	1885.0	1885.0	1842.0	1842.0	1842.0	1884.0	1884.0	1885.0	1885.0	1885.0	1905.0	1905.0	1862.0	1862.0	1862.0	1886.0	1886.0	1862.0	1862.0	1862.0	1852.0	1852.0	1888.0	1888.0	1888.0	1876.0	1876.0	1860.0	1860.0	1860.0	1860.0	1860.0	1857.0	1857.0	1857.0	1893.0	1893.0	1855.0	1855.0	1855.0	1873.0	1873.0	1889.0	1889.0	1889.0	1863.0	1863.0	1870.0	1870.0	1870.0	1863.0	1863.0	1883.0	1883.0	1883.0	1861.0	1861.0	1888.0	1888.0	1888.0	1866.0	1866.0	1877.0	1877.0	1877.0	1883.0	1883.0	1863.0	1863.0	1863.0	1889.0	1889.0	1865.0	1865.0	1865.0	1891.0	1891.0	1883.0	1883.0	1883.0	1868.0	1868.0	1852.0	1852.0	1852.0	1861.0	1861.0	1873.0	1873.0	1873.0	1866.0	1866.0	1869.0	1869.0	1869.0	1862.0	1862.0	1878.0	1878.0	1878.0	1876.0	1876.0	1878.0	1878.0	1878.0	1856.0	1856.0	1887.0	1887.0	1887.0	1854.0	1854.0	1886.0	1886.0	1886.0	1871.0	1871.0	1861.0	1861.0	1861.0	1883.0	1883.0	1859.0	1859.0	1859.0	1897.0	1897.0	1865.0	1865.0	1865.0	1874.0	1874.0	1901.0	1901.0	1901.0	1893.0	1893.0	1906.0	1906.0	1911.0	1911.0	1911.0	1931.0	1931.0	1922.0	1922.0	1922.0	1956.0	1956.0	1952.0	1952.0	1952.0	1990.0	1990.0	1955.0	1955.0	1955.0	2004.0	2004.0	2022.0	2022.0	2022.0	1996.0	1996.0	2005.0	2005.0	2005.0	2031.0	2031.0	2045.0	2045.0	2045.0	2076.0	2076.0	2071.0	2071.0	2071.0	2081.0	2081.0	2110.0	2110.0	2110.0	2094.0	2094.0	2112.0	2112.0	2112.0	2126.0	2126.0	2151.0	2151.0	2151.0	2168.0	2168.0	2182.0	2182.0	2182.0	2175.0	2175.0	2166.0	2166.0	2166.0	2172.0	2172.0	2191.0	2191.0	2191.0	2210.0	2210.0	2189.0	2189.0	2189.0	2191.0	2191.0	2218.0	2218.0	2218.0	2211.0	2211.0	2210.0	2210.0	2210.0	2246.0	2246.0	2217.0	2217.0	2217.0	2254.0	2254.0	2238.0	2238.0	2238.0	2230.0	2230.0	2252.0	2252.0	2252.0	2253.0	2253.0	2236.0	2236.0	2236.0	2271.0	2271.0	2249.0	2249.0	2249.0	2253.0	2253.0	2239.0	2239.0	2239.0	2254.0	2254.0	2265.0	2265.0	2265.0	2227.0	2227.0	2274.0	2274.0	2274.0	2269.0	2269.0	2272.0	2272.0	2272.0	2257.0	2257.0	2234.0	2234.0	2234.0	2251.0	2251.0	2262.0	2262.0	2262.0	2257.0	2257.0	2260.0	2260.0	2260.0	2243.0	2243.0	2228.0	2228.0	2228.0	2240.0	2240.0	2247.0	2247.0	2247.0	2246.0	2246.0	2266.0	2266.0	2266.0	2242.0	2242.0	2242.0	2242.0	2242.0	2276.0	2276.0	2239.0	2239.0	2239.0	2273.0	2273.0	2273.0	2273.0	2273.0	2239.0	2239.0	2264.0	2264.0	2264.0	2251.0	2251.0	2249.0	2249.0	2249.0	2264.0	2264.0	2248.0	2248.0	2248.0	2232.0	2232.0	2237.0	2237.0	2237.0	2239.0	2239.0	2261.0	2261.0	2261.0	2241.0	2241.0	2244.0	2244.0	2246.0	2246.0	2246.0	2241.0	2241.0	2223.0	2223.0	2223.0	2230.0	2230.0	2235.0	2235.0	2235.0	2235.0	2235.0	2228.0	2228.0	2228.0	2233.0	2233.0	2220.0	2220.0	2220.0	2231.0	2231.0	2212.0	2212.0	2212.0	2240.0	2240.0	2220.0	2220.0	2220.0	2215.0	2215.0	2218.0	2218.0	2218.0	2227.0	2227.0	2227.0	2227.0	2227.0	2212.0	2212.0	2212.0	2212.0	2212.0	2218.0	2218.0	2205.0	2205.0	2205.0	2226.0	2226.0	2194.0	2194.0	2194.0	2190.0	2190.0	2219.0	2219.0	2219.0	2203.0	2203.0	2178.0	2178.0	2178.0	2174.0	2174.0	2160.0	2160.0	2160.0	2167.0	2167.0	2170.0	2170.0	2170.0	2160.0	2160.0	2170.0	2170.0	2170.0	2140.0	2140.0	2166.0	2166.0	2166.0	2155.0	2155.0	2132.0	2132.0	2132.0	2116.0	2116.0	2111.0	2111.0	2111.0	2110.0	2110.0	2134.0	2134.0	2134.0	2115.0	2115.0	2100.0	2100.0	2100.0	2108.0	2108.0	2086.0	2086.0	2086.0	2077.0	2077.0	2066.0	2066.0	2066.0	2067.0	2067.0	2091.0	2091.0	2091.0	2042.0	2042.0	2060.0	2060.0	2060.0	2069.0	2069.0	2055.0	2055.0	2055.0	2050.0	2050.0	2056.0	2056.0	2056.0	2027.0	2027.0	2036.0	2036.0	2036.0	2030.0	2030.0	2036.0	2036.0	2036.0	2024.0	2024.0	2045.0	2045.0	2045.0	2031.0	2031.0	2025.0	2025.0	2025.0	2024.0	2024.0	2031.0	2031.0	2031.0	2019.0	2019.0	2015.0	2015.0	2015.0	1999.0	1999.0	2007.0	2007.0	2007.0	2016.0	2016.0	1995.0	1995.0	1995.0	1993.0	1993.0	2015.0	2015.0	2015.0	1987.0	1987.0	1980.0	1980.0	1980.0	1977.0	1977.0	1990.0	1990.0	1990.0	1998.0	1998.0	1989.0	1989.0	1989.0	2007.0	2007.0	2017.0	2017.0	2017.0	1995.0	1995.0	2014.0	2014.0	1996.0	1996.0	1996.0	1990.0	1990.0	1999.0	1999.0	1999.0	2007.0	2007.0	1981.0	1981.0	1981.0	1983.0	1983.0	1993.0	1993.0	1993.0	1990.0	1990.0	1993.0	1993.0	1993.0	1999.0	1999.0	1964.0	1964.0	1964.0	1990.0	1990.0	1983.0	1983.0	1983.0	1971.0	1971.0	1960.0	1960.0	1960.0	1992.0	1992.0	1973.0	1973.0	1973.0	1978.0	1978.0	1958.0	1958.0	1958.0	1975.0	1975.0	1988.0	1988.0	1988.0	1982.0	1982.0	1967.0	1967.0	1967.0	1969.0	1969.0	1964.0	1964.0	1964.0	1974.0	1974.0	1940.0	1940.0	1940.0	1966.0	1966.0	1953.0	1953.0	1953.0	1934.0	1934.0	1958.0	1958.0	1958.0	1954.0	1954.0	1945.0	1945.0	1945.0	1940.0	1940.0	1939.0	1939.0	1939.0	1955.0	1955.0	1934.0	1934.0	1934.0	1952.0	1952.0	1926.0	1926.0	1926.0	1950.0	1950.0	1942.0	1942.0	1942.0	1945.0	1945.0	1926.0	1926.0	1926.0	1938.0	1938.0	1919.0	1919.0	1919.0	1907.0	1907.0	1908.0	1908.0	1908.0	1914.0	1914.0	1939.0	1939.0	1939.0	1927.0	1927.0	1924.0	1924.0	1924.0	1918.0	1918.0	1928.0	1928.0	1928.0	1919.0	1919.0	1910.0	1910.0	1910.0	1923.0	1923.0	1914.0	1914.0	1914.0	1910.0	1910.0	1921.0	1921.0	1921.0	1901.0	1901.0	1894.0	1894.0	1894.0	1899.0	1899.0	1913.0	1913.0	1913.0	1913.0	1913.0	1897.0	1897.0	1897.0	1907.0	1907.0	1909.0	1909.0	1909.0	1909.0	1909.0	1882.0	1882.0	1882.0	1887.0	1887.0	1908.0	1908.0	1908.0	1907.0	