1804.0	1804.0	1804.0	1784.0	1784.0	1791.0	1791.0	1791.0	1827.0	1827.0	1790.0	1790.0	1790.0	1802.0	1802.0	1826.0	1826.0	1826.0	1794.0	1794.0	1810.0	1810.0	1810.0	1810.0	1810.0	1812.0	1812.0	1812.0	1813.0	1813.0	1796.0	1796.0	1796.0	1791.0	1791.0	1809.0	1809.0	1809.0	1822.0	1822.0	1810.0	1810.0	1810.0	1809.0	1809.0	1832.0	1832.0	1832.0	1820.0	1820.0	1850.0	1850.0	1850.0	1845.0	1845.0	1821.0	1821.0	1821.0	1835.0	1835.0	1883.0	1883.0	1883.0	1841.0	1841.0	1912.0	1912.0	1909.0	1909.0	1909.0	1915.0	1915.0	1930.0	1930.0	1930.0	1915.0	1915.0	1948.0	1948.0	1948.0	1971.0	1971.0	1975.0	1975.0	1975.0	1968.0	1968.0	1973.0	1973.0	1973.0	1973.0	1973.0	2004.0	2004.0	2004.0	2002.0	2002.0	2013.0	2013.0	2013.0	2051.0	2051.0	2050.0	2050.0	2050.0	2054.0	2054.0	2065.0	2065.0	2065.0	2090.0	2090.0	2094.0	2094.0	2094.0	2087.0	2087.0	2086.0	2086.0	2086.0	2114.0	2114.0	2121.0	2121.0	2121.0	2103.0	2103.0	2123.0	2123.0	2123.0	2115.0	2115.0	2110.0	2110.0	2110.0	2125.0	2125.0	2129.0	2129.0	2129.0	2127.0	2127.0	2150.0	2150.0	2150.0	2154.0	2154.0	2152.0	2152.0	2152.0	2154.0	2154.0	2133.0	2133.0	2133.0	2171.0	2171.0	2157.0	2157.0	2157.0	2147.0	2147.0	2145.0	2145.0	2145.0	2162.0	2162.0	2153.0	2153.0	2153.0	2151.0	2151.0	2155.0	2155.0	2155.0	2189.0	2189.0	2166.0	2166.0	2166.0	2181.0	2181.0	2156.0	2156.0	2156.0	2169.0	2169.0	2169.0	2169.0	2169.0	2155.0	2155.0	2151.0	2151.0	2151.0	2165.0	2165.0	2164.0	2164.0	2164.0	2144.0	2144.0	2161.0	2161.0	2161.0	2178.0	2178.0	2168.0	2168.0	2168.0	2154.0	2154.0	2146.0	2146.0	2146.0	2182.0	2182.0	2186.0	2186.0	2186.0	2142.0	2142.0	2153.0	2153.0	2153.0	2150.0	2150.0	2145.0	2145.0	2145.0	2144.0	2144.0	2142.0	2142.0	2142.0	2162.0	2162.0	2155.0	2155.0	2155.0	2168.0	2168.0	2151.0	2151.0	2151.0	2153.0	2153.0	2165.0	2165.0	2165.0	2150.0	2150.0	2143.0	2143.0	2143.0	2157.0	2157.0	2161.0	2161.0	2161.0	2150.0	2150.0	2162.0	2162.0	2162.0	2156.0	2156.0	2158.0	2158.0	2152.0	2152.0	2152.0	2127.0	2127.0	2142.0	2142.0	2142.0	2144.0	2144.0	2132.0	2132.0	2132.0	2158.0	2158.0	2160.0	2160.0	2160.0	2128.0	2128.0	2121.0	2121.0	2121.0	2119.0	2119.0	2134.0	2134.0	2134.0	2140.0	2140.0	2135.0	2135.0	2135.0	2104.0	2104.0	2132.0	2132.0	2132.0	2138.0	2138.0	2131.0	2131.0	2131.0	2106.0	2106.0	2106.0	2106.0	2106.0	2100.0	2100.0	2123.0	2123.0	2123.0	2092.0	2092.0	2109.0	2109.0	2109.0	2091.0	2091.0	2088.0	2088.0	2088.0	2096.0	2096.0	2092.0	2092.0	2092.0	2083.0	2083.0	2056.0	2056.0	2056.0	2058.0	2058.0	2057.0	2057.0	2057.0	2063.0	2063.0	2063.0	2063.0	2063.0	2052.0	2052.0	2044.0	2044.0	2044.0	2019.0	2019.0	2033.0	2033.0	2033.0	2021.0	2021.0	2016.0	2016.0	2016.0	2040.0	2040.0	2010.0	2010.0	2010.0	1986.0	1986.0	2028.0	2028.0	2028.0	2022.0	2022.0	2013.0	2013.0	2013.0	1981.0	1981.0	1970.0	1970.0	1970.0	1971.0	1971.0	1980.0	1980.0	1980.0	1994.0	1994.0	1990.0	1990.0	1990.0	1953.0	1953.0	1959.0	1959.0	1959.0	1974.0	1974.0	1967.0	1967.0	1967.0	1960.0	1960.0	1953.0	1953.0	1953.0	1958.0	1958.0	1968.0	1968.0	1968.0	1949.0	1949.0	1959.0	1959.0	1959.0	1935.0	1935.0	1964.0	1964.0	1964.0	1948.0	1948.0	1922.0	1922.0	1922.0	1940.0	1940.0	1942.0	1942.0	1942.0	1971.0	1971.0	1940.0	1940.0	1940.0	1949.0	1949.0	1924.0	1924.0	1924.0	1957.0	1957.0	1951.0	1951.0	1951.0	1955.0	1955.0	1943.0	1943.0	1943.0	1926.0	1926.0	1942.0	1942.0	1942.0	1949.0	1949.0	1940.0	1940.0	1940.0	1959.0	1959.0	1947.0	1947.0	1951.0	1951.0	1951.0	1922.0	1922.0	1928.0	1928.0	1928.0	1952.0	1952.0	1961.0	1961.0	1961.0	1936.0	1936.0	1962.0	1962.0	1962.0	1945.0	1945.0	1954.0	1954.0	1954.0	1958.0	1958.0	1947.0	1947.0	1947.0	1935.0	1935.0	1925.0	1925.0	1925.0	1935.0	1935.0	1923.0	1923.0	1923.0	1921.0	1921.0	1952.0	1952.0	1952.0	1916.0	1916.0	1947.0	1947.0	1947.0	1910.0	1910.0	1940.0	1940.0	1940.0	1907.0	1907.0	1918.0	1918.0	1918.0	1927.0	1927.0	1911.0	1911.0	1911.0	1899.0	1899.0	1904.0	1904.0	1904.0	1916.0	1916.0	1901.0	1901.0	1901.0	1919.0	1919.0	1937.0	1937.0	1937.0	1913.0	1913.0	1913.0	1913.0	1913.0	1912.0	1912.0	1920.0	1920.0	1920.0	1890.0	1890.0	1921.0	1921.0	1921.0	1905.0	1905.0	1914.0	1914.0	1914.0	1907.0	1907.0	1887.0	1887.0	1887.0	1895.0	1895.0	1885.0	1885.0	1885.0	1887.0	1887.0	1890.0	1890.0	1890.0	1898.0	1898.0	1905.0	1905.0	1905.0	1906.0	1906.0	1883.0	1883.0	1883.0	1887.0	1887.0	1880.0	1880.0	1880.0	1875.0	1875.0	1887.0	1887.0	1887.0	1884.0	1884.0	1885.0	1885.0	1885.0	1908.0	1908.0	1897.0	1897.0	1897.0	1875.0	1875.0	1895.0	1895.0	1895.0	1886.0	1886.0	1870.0	1870.0	1870.0	1884.0	1884.0	1865.0	1865.0	1865.0	1896.0	1896.0	1867.0	1867.0	1867.0	1883.0	1883.0	1884.0	1884.0	1884.0	1876.0	1876.0	1899.0	1899.0	1899.0	1891.0	1891.0	1871.0	1871.0	1871.0	1884.0	1884.0	1881.0	1881.0	1881.0	1868.0	1868.0	1902.0	1902.0	1902.0	1862.0	1862.0	1861.0	1861.0	1861.0	1906.0	1906.0	1886.0	1886.0	1886.0	1864.0	1864.0	1878.0	1878.0	1878.0	1865.0	1865.0	1888.0	1888.0	1884.0	1884.0	1884.0	1878.0	1878.0	1853.0	1853.0	1853.0	1889.0	1889.0	1888.0	1888.0	1888.0	1857.0	1857.0	1869.0	1869.0	1869.0	1896.0	1896.0	1892.0	1892.0	1892.0	1872.0	1872.0	1870.0	1870.0	1870.0	1857.0	1857.0	1871.0	1871.0	1871.0	1864.0	1864.0	1852.0	1852.0	1852.0	1868.0	1868.0	1855.0	1855.0	1855.0	1868.0	1868.0	1879.0	1879.0	1879.0	1869.0	1869.0	1881.0	1881.0	1881.0	1865.0	1865.0	1887.0	1887.0	1887.0	1874.0	1874.0	1859.0	1859.0	1859.0	1884.0	1884.0	1863.0	1863.0	1863.0	1864.0	1864.0	1871.0	1871.0	1871.0	1894.0	1894.0	1882.0	1882.0	1882.0	1889.0	1889.0	1860.0	1860.0	1860.0	1864.0	1864.0	1887.0	1887.0	1887.0	1888.0	1888.0	1894.0	1894.0	1894.0	1871.0	1871.0	1865.0	1865.0	1865.0	1878.0	1878.0	1884.0	1884.0	1884.0	1868.0	1868.0	1877.0	1877.0	1877.0	1877.0	1877.0	1886.0	1886.0	1886.0	1879.0	1879.0	1882.0	1882.0	1882.0	1879.0	1879.0	1863.0	1863.0	1863.0	1875.0	1875.0	1873.0	1873.0	1873.0	1880.0	1880.0	1875.0	1875.0	1875.0	1888.0	1888.0	1889.0	1889.0	1889.0	1900.0	1900.0	1892.0	1892.0	1892.0	1863.0	1863.0	1906.0	1906.0	1906.0	1865.0	1865.0	1893.0	1893.0	1893.0	1886.0	1886.0	1891.0	1891.0	1891.0	1890.0	1890.0	1868.0	1868.0	1868.0	1874.0	1874.0	1890.0	1890.0	1890.0	1866.0	1866.0	1897.0	1897.0	1897.0	1888.0	1888.0	1881.0	1881.0	1881.0	1872.0	1872.0	1855.0	1855.0	1855.0	1859.0	1859.0	1869.0	1869.0	1869.0	1885.0	1885.0	1859.0	1859.0	1859.0	1881.0	1881.0	1862.0	1862.0	1862.0	1835.0	1835.0	1875.0	1875.0	1864.0	1864.0	1864.0	1867.0	1867.0	1872.0	1872.0	1872.0	1859.0	1859.0	1855.0	1855.0	1855.0	1858.0	1858.0	1854.0	1854.0	1854.0	1864.0	1864.0	1849.0	1849.0	1849.0	1874.0	1874.0	1863.0	1863.0	1863.0	1842.0	1842.0	1841.0	1841.0	1841.0	1854.0	1854.0	1849.0	1849.0	1849.0	1871.0	1871.0	1852.0	1852.0	1852.0	1889.0	1889.0	1866.0	1866.0	1866.0	1873.0	1873.0	1854.0	1854.0	1854.0	1883.0	1883.0	1885.0	1885.0	1885.0	1897.0	1897.0	1899.0	1899.0	1899.0	1895.0	1895.0	1916.0	1916.0	1916.0	1903.0	1903.0	1943.0	1943.0	1943.0	1942.0	1942.0	1944.0	1944.0	1944.0	1943.0	1943.0	1949.0	1949.0	1949.0	1980.0	1980.0	1985.0	1985.0	1985.0	1976.0	1976.0	2004.0	2004.0	2004.0	2033.0	2033.0	2032.0	2032.0	2032.0	2052.0	2052.0	2044.0	2044.0	2044.0	2078.0	2078.0	2081.0	2081.0	2081.0	2097.0	2097.0	2115.0	2115.0	2115.0	2116.0	2116.0	2123.0	2123.0	2123.0	2115.0	2115.0	2144.0	2144.0	2144.0	2134.0	2134.0	2161.0	2161.0	2161.0	2166.0	2166.0	2185.0	2185.0	2185.0	2178.0	2178.0	2181.0	2181.0	2181.0	2155.0	2155.0	2178.0	2178.0	2178.0	2177.0	2177.0	2176.0	2176.0	2176.0	2184.0	2184.0	2184.0	2184.0	2184.0	2204.0	2204.0	2196.0	2196.0	2196.0	2186.0	2186.0	2182.0	2182.0	2182.0	2199.0	2199.0	2202.0	2202.0	2202.0	2192.0	2192.0	2199.0	2199.0	2199.0	2203.0	2203.0	2202.0	2202.0	2202.0	2215.0	2215.0	2201.0	2201.0	2201.0	2217.0	2217.0	2210.0	2210.0	2210.0	2199.0	2199.0	2206.0	2206.0	2206.0	2204.0	2204.0	2223.0	2223.0	2223.0	2209.0	2209.0	2213.0	2213.0	2223.0	2223.0	2223.0	2209.0	2209.0	2196.0	2196.0	2196.0	2223.0	2223.0	2220.0	2220.0	2220.0	2201.0	2201.0	2195.0	2195.0	2195.0	2212.0	2212.0	2203.0	2203.0	2203.0	2183.0	2183.0	2209.0	2209.0	2209.0	2210.0	2210.0	2206.0	2206.0	2206.0	2196.0	2196.0	2218.0	2218.0	2218.0	2199.0	2199.0	2191.0	2191.0	2191.0	2200.0	2200.0	2200.0	2200.0	2200.0	2190.0	2190.0	2210.0	2210.0	2210.0	2193.0	2193.0	2199.0	2199.0	2199.0	2188.0	2188.0	2196.0	2196.0	2196.0	2221.0	2221.0	2183.0	2183.0	2183.0	2188.0	2188.0	2202.0	2202.0	2202.0	2195.0	2195.0	2210.0	2210.0	2210.0	2170.0	2170.0	2212.0	2212.0	2212.0	2184.0	2184.0	2210.0	2210.0	2210.0	2203.0	2203.0	2191.0	2191.0	2191.0	2186.0	2186.0	2177.0	2177.0	2177.0	2189.0	2189.0	2154.0	2154.0	2154.0	2177.0	2177.0	2169.0	2169.0	2169.0	2190.0	2190.0	2156.0	2156.0	2156.0	2153.0	2153.0	2145.0	2145.0	2145.0	2158.0	2158.0	2168.0	2168.0	2168.0	2151.0	2151.0	2141.0	2141.0	2141.0	2142.0	2142.0	2121.0	2121.0	2121.0	2129.0	2129.0	2094.0	2094.0	2094.0	2124.0	2124.0	2113.0	2113.0	2113.0	2121.0	2121.0	2124.0	2124.0	2124.0	2104.0	2104.0	2086.0	2086.0	2086.0	2102.0	2102.0	2105.0	2105.0	2105.0	2099.0	2099.0	2087.0	2087.0	2087.0	2086.0	2086.0	2056.0	2056.0	2056.0	2069.0	2069.0	2060.0	2060.0	2060.0	2058.0	2058.0	2035.0	2035.0	2035.0	2033.0	2033.0	2027.0	2027.0	2027.0	2022.0	2022.0	2060.0	2060.0	2060.0	2046.0	2046.0	2019.0	2019.0	2019.0	2018.0	2018.0	1999.0	1999.0	1999.0	2007.0	2007.0	1991.0	1991.0	1991.0	2013.0	2013.0	1987.0	1987.0	2011.0	2011.0	2011.0	1998.0	1998.0	1986.0	1986.0	1986.0	1970.0	1970.0	1977.0	1977.0	1977.0	1964.0	1964.0	1962.0	1962.0	1962.0	2003.0	2003.0	1980.0	1980.0	1980.0	1969.0	1969.0	1974.0	1974.0	1974.0	1954.0	1954.0	1993.0	1993.0	1993.0	1970.0	1970.0	1964.0	1964.0	1964.0	1976.0	1976.0	1954.0	1954.0	1954.0	1945.0	1945.0	1974.0	1974.0	1974.0	1956.0	1956.0	1959.0	1959.0	1959.0	1972.0	1972.0	1959.0	1959.0	1959.0	1965.0	1965.0	1947.0	1947.0	1947.0	1958.0	1958.0	1978.0	1978.0	1978.0	1970.0	1970.0	1953.0	1953.0	1953.0	1953.0	1953.0	1979.0	1979.0	1979.0	1968.0	1968.0	1969.0	1969.0	1969.0	1950.0	1950.0	1972.0	1972.0	1972.0	1975.0	1975.0	1955.0	1955.0	1955.0	1949.0	1949.0	1966.0	1966.0	1966.0	1965.0	1965.0	1942.0	1942.0	1942.0	1947.0	1947.0	1947.0	1947.0	1947.0	1951.0	1951.0	1924.0	1924.0	1924.0	1940.0	1940.0	1954.0	1954.0	1954.0	1933.0	1933.0	1942.0	1942.0	1942.0	1954.0	1954.0	1943.0	1943.0	1943.0	1923.0	1923.0	1960.0	1960.0	1960.0	1937.0	1937.0	1934.0	1934.0	1934.0	1911.0	1911.0	1935.0	1935.0	1935.0	1948.0	1948.0	1949.0	1949.0	1949.0	1926.0	1926.0	1917.0	1917.0	1917.0	1928.0	1928.0	1909.0	1909.0	1909.0	1892.0	1892.0	1928.0	1928.0	1928.0	1923.0	1923.0	1912.0	1912.0	1912.0	1931.0	1931.0	1898.0	1898.0	1898.0	1907.0	1907.0	1898.0	1898.0	1898.0	1904.0	1904.0	1881.0	1881.0	1881.0	1895.0	1895.0	1919.0	1919.0	1919.0	1891.0	1891.0	1895.0	1895.0	1895.0	1904.0	1904.0	1908.0	1908.0	1908.0	1903.0	1903.0	1898.0	1898.0	1912.0	1912.0	1912.0	1902.0	1902.0	1884.0	1884.0	1884.0	1906.0	1906.0	1910.0	1910.0	1910.0	1899.0	1899.0	1897.0	1897.0	1897.0	1898.0	1898.0	1895.0	1895.0	1895.0	1905.0	1905.0	1910.0	1910.0	1910.0	1892.0	1892.0	1882.0	1882.0	1882.0	1897.0	1897.0	1899.0	1899.0	1899.0	1894.0	1894.0	1878.0	1878.0	1878.0	1891.0	1891.0	1887.0	1887.0	1887.0	1884.0	1884.0	1904.0	1904.0	1904.0	1885.0	1885.0	1897.0	1897.0	1897.0	1878.0	1878.0	1901.0	1901.0	1901.0	1891.0	1891.0	1884.0	1884.0	1884.0	1891.0	1891.0	1917.0	1917.0	1917.0	1880.0	1880.0	1903.0	1903.0	1903.0	1906.0	1906.0	1866.0	1866.0	1866.0	1862.0	1862.0	1862.0	1862.0	1862.0	1877.0	1877.0	1874.0	1874.0	1874.0	1904.0	1904.0	1894.0	1894.0	1894.0	1885.0	1885.0	1890.0	1890.0	1890.0	1909.0	1909.0	1902.0	1902.0	1902.0	1863.0	1863.0	1880.0	1880.0	1880.0	1882.0	1882.0	1897.0	1897.0	1897.0	1873.0	1873.0	1882.0	1882.0	1882.0	1881.0	1881.0	1902.0	1902.0	1902.0	1894.0	1894.0	1886.0	1886.0	1886.0	1878.0	1878.0	1876.0	1876.0	1876.0	1916.0	1916.0	1874.0	1874.0	1874.0	1889.0	1889.0	1876.0	1876.0	1876.0	1891.0	1891.0	1893.0	1893.0	1893.0	1894.0	1894.0	1881.0	1881.0	1881.0	1891.0	1891.0	1892.0	1892.0	1892.0	1902.0	1902.0	1888.0	1888.0	1888.0	1910.0	1910.0	1891.0	1891.0	1891.0	1877.0	1877.0	1871.0	1871.0	1871.0	1857.0	1857.0	1910.0	1910.0	1910.0	1899.0	1899.0	1891.0	1891.0	1891.0	1874.0	1874.0	1897.0	1897.0	1897.0	1885.0	1885.0	1882.0	1882.0	1882.0	1882.0	1882.0	1869.0	1869.0	1869.0	1891.0	1891.0	1894.0	1894.0	1863.0	1863.0	1863.0	1897.0	1897.0	1860.0	1860.0	1860.0	1885.0	1885.0	1865.0	1865.0	1865.0	1886.0	1886.0	1864.0	1864.0	1864.0	1888.0	1888.0	1862.0	1862.0	1862.0	1869.0	1869.0	1884.0	1884.0	1884.0	1864.0	1864.0	1861.0	1861.0	1861.0	1859.0	1859.0	1864.0	1864.0	1864.0	1859.0	1859.0	1856.0	1856.0	1856.0	1865.0	1865.0	1885.0	1885.0	1885.0	1887.0	1887.0	1873.0	1873.0	1873.0	1863.0	1863.0	1876.0	1876.0	1876.0	1870.0	1870.0	1863.0	1863.0	1863.0	1851.0	1851.0	1860.0	1860.0	1860.0	1864.0	1864.0	1889.0	1889.0	1889.0	1863.0	1863.0	1868.0	1868.0	1868.0	1847.0	1847.0	1868.0	1868.0	1868.0	1896.0	1896.0	1858.0	1858.0	1858.0	1845.0	1845.0	1885.0	1885.0	1885.0	1861.0	1861.0	1858.0	1858.0	1858.0	1847.0	1847.0	1863.0	1863.0	1863.0	1876.0	1876.0	1847.0	1847.0	1847.0	1857.0	1857.0	1886.0	1886.0	1886.0	1857.0	1857.0	1864.0	1864.0	1864.0	1893.0	1893.0	1889.0	1889.0	1889.0	1862.0	1862.0	1884.0	1884.0	1884.0	1918.0	1918.0	1914.0	1914.0	1914.0	1904.0	1904.0	1907.0	1907.0	1907.0	1941.0	1941.0	1953.0	1953.0	1953.0	1963.0	1963.0	1956.0	1956.0	1956.0	1959.0	1959.0	1957.0	1957.0	1957.0	1981.0	1981.0	2030.0	2030.0	2030.0	2034.0	2034.0	2042.0	2042.0	2042.0	2059.0	2059.0	2058.0	2058.0	2058.0	2088.0	2088.0	2083.0	2083.0	2083.0	2102.0	2102.0	2118.0	2118.0	2118.0	2093.0	2093.0	2119.0	2119.0	2119.0	2145.0	2145.0	2127.0	2127.0	2127.0	2151.0	2151.0	2146.0	2146.0	2146.0	2151.0	2151.0	2148.0	2148.0	2148.0	2173.0	2173.0	2171.0	2171.0	2171.0	2171.0	2171.0	2204.0	2204.0	2180.0	2180.0	2180.0	2191.0	2191.0	2189.0	2189.0	2189.0	2221.0	2221.0	2200.0	2200.0	2200.0	2215.0	2215.0	2200.0	2200.0	2200.0	2208.0	2208.0	2211.0	2211.0	2211.0	2206.0	2206.0	2208.0	2208.0	2208.0	2215.0	2215.0	2228.0	2228.0	2228.0	2234.0	2234.0	2207.0	2207.0	2207.0	2211.0	2211.0	2229.0	2229.0	2229.0	2250.0	2250.0	2231.0	2231.0	2231.0	2229.0	2229.0	2236.0	2236.0	2236.0	2219.0	2219.0	2237.0	2237.0	2237.0	2235.0	2235.0	2232.0	2232.0	2232.0	2217.0	2217.0	2247.0	2247.0	2247.0	2225.0	2225.0	2217.0	2217.0	2217.0	2243.0	2243.0	2215.0	2215.0	2215.0	2239.0	2239.0	2228.0	2228.0	2228.0	2237.0	2237.0	2240.0	2240.0	2240.0	2221.0	2221.0	2216.0	2216.0	2216.0	2236.0	2236.0	2226.0	2226.0	2226.0	2212.0	2212.0	2209.0	2209.0	2209.0	2243.0	2243.0	2224.0	2224.0	2224.0	2206.0	2206.0	2238.0	2238.0	2238.0	2243.0	2243.0	2232.0	2232.0	2232.0	2209.0	2209.0	2214.0	2214.0	2214.0	2210.0	2210.0	2214.0	2214.0	2214.0	2219.0	2219.0	2209.0	2209.0	2209.0	2210.0	2210.0	2208.0	2208.0	2208.0	2223.0	2223.0	2209.0	2209.0	2209.0	2209.0	2209.0	2230.0	2230.0	2230.0	2197.0	2197.0	2201.0	2201.0	2201.0	2207.0	2207.0	2216.0	2216.0	2216.0	2207.0	2207.0	2182.0	2182.0	2182.0	2206.0	2206.0	2191.0	2191.0	2191.0	2182.0	2182.0	2190.0	2190.0	2190.0	2189.0	2189.0	2162.0	2162.0	2162.0	2180.0	2180.0	2185.0	2185.0	2185.0	2171.0	2171.0	2162.0	2162.0	2162.0	2144.0	2144.0	2166.0	2166.0	2166.0	2156.0	2156.0	