1978.0	1978.0	1977.0	1977.0	1966.0	1966.0	1966.0	2005.0	2005.0	1986.0	1986.0	1986.0	1981.0	1981.0	1963.0	1963.0	1963.0	1969.0	1969.0	1979.0	1979.0	1979.0	1979.0	1979.0	1970.0	1970.0	1970.0	1979.0	1979.0	1963.0	1963.0	1963.0	1976.0	1976.0	1956.0	1956.0	1955.0	1955.0	1955.0	1940.0	1940.0	1970.0	1970.0	1970.0	1983.0	1983.0	1968.0	1968.0	1968.0	1959.0	1959.0	1956.0	1956.0	1956.0	1971.0	1971.0	1971.0	1971.0	1971.0	1953.0	1953.0	1964.0	1964.0	1964.0	1945.0	1945.0	1958.0	1958.0	1958.0	1950.0	1950.0	1936.0	1936.0	1936.0	1940.0	1940.0	1924.0	1924.0	1924.0	1953.0	1953.0	1940.0	1940.0	1940.0	1941.0	1941.0	1939.0	1939.0	1939.0	1924.0	1924.0	1946.0	1946.0	1946.0	1931.0	1931.0	1934.0	1934.0	1934.0	1934.0	1934.0	1949.0	1949.0	1949.0	1946.0	1946.0	1932.0	1932.0	1932.0	1912.0	1912.0	1938.0	1938.0	1938.0	1930.0	1930.0	1906.0	1906.0	1906.0	1917.0	1917.0	1922.0	1922.0	1922.0	1940.0	1940.0	1941.0	1941.0	1941.0	1941.0	1941.0	1917.0	1917.0	1917.0	1935.0	1935.0	1904.0	1904.0	1904.0	1928.0	1928.0	1900.0	1900.0	1900.0	1894.0	1894.0	1903.0	1903.0	1903.0	1909.0	1909.0	1918.0	1918.0	1918.0	1927.0	1927.0	1901.0	1901.0	1901.0	1914.0	1914.0	1912.0	1912.0	1912.0	1925.0	1925.0	1915.0	1915.0	1915.0	1883.0	1883.0	1892.0	1892.0	1892.0	1924.0	1924.0	1915.0	1915.0	1915.0	1897.0	1897.0	1928.0	1928.0	1928.0	1897.0	1897.0	1893.0	1893.0	1893.0	1891.0	1891.0	1896.0	1896.0	1896.0	1899.0	1899.0	1888.0	1888.0	1888.0	1903.0	1903.0	1876.0	1876.0	1876.0	1887.0	1887.0	1917.0	1917.0	1917.0	1883.0	1883.0	1899.0	1899.0	1899.0	1903.0	1903.0	1881.0	1881.0	1881.0	1897.0	1897.0	1897.0	1897.0	1897.0	1870.0	1870.0	1876.0	1876.0	1876.0	1876.0	1876.0	1887.0	1887.0	1887.0	1894.0	1894.0	1890.0	1890.0	1896.0	1896.0	1896.0	1884.0	1884.0	1891.0	1891.0	1891.0	1868.0	1868.0	1862.0	1862.0	1862.0	1891.0	1891.0	1865.0	1865.0	1865.0	1856.0	1856.0	1873.0	1873.0	1873.0	1879.0	1879.0	1864.0	1864.0	1864.0	1867.0	1867.0	1857.0	1857.0	1857.0	1875.0	1875.0	1895.0	1895.0	1895.0	1875.0	1875.0	1902.0	1902.0	1902.0	1876.0	1876.0	1876.0	1876.0	1876.0	1891.0	1891.0	1857.0	1857.0	1857.0	1869.0	1869.0	1883.0	1883.0	1883.0	1870.0	1870.0	1900.0	1900.0	1900.0	1883.0	1883.0	1859.0	1859.0	1859.0	1860.0	1860.0	1867.0	1867.0	1867.0	1882.0	1882.0	1866.0	1866.0	1866.0	1885.0	1885.0	1847.0	1847.0	1847.0	1857.0	1857.0	1869.0	1869.0	1869.0	1877.0	1877.0	1855.0	1855.0	1855.0	1869.0	1869.0	1879.0	1879.0	1879.0	1880.0	1880.0	1878.0	1878.0	1878.0	1878.0	1878.0	1845.0	1845.0	1845.0	1880.0	1880.0	1867.0	1867.0	1867.0	1866.0	1866.0	1886.0	1886.0	1886.0	1875.0	1875.0	1854.0	1854.0	1854.0	1877.0	1877.0	1856.0	1856.0	1856.0	1884.0	1884.0	1859.0	1859.0	1859.0	1887.0	1887.0	1857.0	1857.0	1857.0	1847.0	1847.0	1853.0	1853.0	1853.0	1866.0	1866.0	1878.0	1878.0	1878.0	1866.0	1866.0	1877.0	1877.0	1877.0	1871.0	1871.0	1863.0	1863.0	1863.0	1874.0	1874.0	1870.0	1870.0	1870.0	1863.0	1863.0	1870.0	1870.0	1870.0	1864.0	1864.0	1881.0	1881.0	1881.0	1893.0	1893.0	1855.0	1855.0	1855.0	1884.0	1884.0	1891.0	1891.0	1891.0	1908.0	1908.0	1916.0	1916.0	1916.0	1912.0	1912.0	1917.0	1917.0	1917.0	1922.0	1922.0	1941.0	1941.0	1941.0	1947.0	1947.0	1954.0	1954.0	1954.0	1959.0	1959.0	1991.0	1991.0	1958.0	1958.0	1958.0	1998.0	1998.0	1999.0	1999.0	1999.0	2026.0	2026.0	1993.0	1993.0	1993.0	2022.0	2022.0	2050.0	2050.0	2050.0	2040.0	2040.0	2043.0	2043.0	2043.0	2067.0	2067.0	2085.0	2085.0	2085.0	2093.0	2093.0	2083.0	2083.0	2083.0	2093.0	2093.0	2113.0	2113.0	2113.0	2103.0	2103.0	2122.0	2122.0	2122.0	2138.0	2138.0	2150.0	2150.0	2150.0	2139.0	2139.0	2176.0	2176.0	2176.0	2186.0	2186.0	2174.0	2174.0	2174.0	2173.0	2173.0	2190.0	2190.0	2190.0	2186.0	2186.0	2224.0	2224.0	2224.0	2222.0	2222.0	2208.0	2208.0	2208.0	2206.0	2206.0	2225.0	2225.0	2225.0	2237.0	2237.0	2237.0	2237.0	2237.0	2229.0	2229.0	2224.0	2224.0	2224.0	2239.0	2239.0	2265.0	2265.0	2265.0	2240.0	2240.0	2252.0	2252.0	2252.0	2283.0	2283.0	2269.0	2269.0	2269.0	2300.0	2300.0	2269.0	2269.0	2269.0	2306.0	2306.0	2290.0	2290.0	2290.0	2285.0	2285.0	2315.0	2315.0	2315.0	2303.0	2303.0	2287.0	2287.0	2287.0	2322.0	2322.0	2307.0	2307.0	2307.0	2316.0	2316.0	2327.0	2327.0	2327.0	2323.0	2323.0	2326.0	2326.0	2326.0	2319.0	2319.0	2306.0	2306.0	2306.0	2299.0	2299.0	2323.0	2323.0	2323.0	2346.0	2346.0	2325.0	2325.0	2325.0	2331.0	2331.0	2317.0	2317.0	2317.0	2323.0	2323.0	2315.0	2315.0	2315.0	2308.0	2308.0	2316.0	2316.0	2316.0	2329.0	2329.0	2316.0	2316.0	2316.0	2323.0	2323.0	2314.0	2314.0	2314.0	2337.0	2337.0	2315.0	2315.0	2315.0	2290.0	2290.0	2294.0	2294.0	2294.0	2308.0	2308.0	2301.0	2301.0	2301.0	2294.0	2294.0	2293.0	2293.0	2293.0	2294.0	2294.0	2295.0	2295.0	2279.0	2279.0	2279.0	2268.0	2268.0	2261.0	2261.0	2261.0	2278.0	2278.0	2279.0	2279.0	2279.0	2276.0	2276.0	2264.0	2264.0	2264.0	2269.0	2269.0	2247.0	2247.0	2247.0	2242.0	2242.0	2239.0	2239.0	2239.0	2227.0	2227.0	2227.0	2227.0	2227.0	2244.0	2244.0	2225.0	2225.0	2225.0	2232.0	2232.0	2207.0	2207.0	2207.0	2232.0	2232.0	2188.0	2188.0	2188.0	2207.0	2207.0	2189.0	2189.0	2189.0	2200.0	2200.0	2185.0	2185.0	2185.0	2183.0	2183.0	2192.0	2192.0	2192.0	2175.0	2175.0	2182.0	2182.0	2182.0	2172.0	2172.0	2164.0	2164.0	2164.0	2174.0	2174.0	2159.0	2159.0	2159.0	2149.0	2149.0	2143.0	2143.0	2143.0	2157.0	2157.0	2122.0	2122.0	2122.0	2127.0	2127.0	2128.0	2128.0	2128.0	2112.0	2112.0	2139.0	2139.0	2139.0	2147.0	2147.0	2123.0	2123.0	2123.0	2113.0	2113.0	2121.0	2121.0	2121.0	2109.0	2109.0	2102.0	2102.0	2102.0	2126.0	2126.0	2090.0	2090.0	2090.0	2097.0	2097.0	2114.0	2114.0	2114.0	2098.0	2098.0	2076.0	2076.0	2076.0	2104.0	2104.0	2106.0	2106.0	2106.0	2091.0	2091.0	2091.0	2091.0	2091.0	2092.0	2092.0	2071.0	2071.0	2071.0	2080.0	2080.0	2063.0	2063.0	2063.0	2066.0	2066.0	2059.0	2059.0	2059.0	2066.0	2066.0	2073.0	2073.0	2073.0	2055.0	2055.0	2068.0	2068.0	2068.0	2048.0	2048.0	2064.0	2064.0	2064.0	2053.0	2053.0	2055.0	2055.0	2055.0	2060.0	2060.0	2048.0	2048.0	2048.0	2060.0	2060.0	2067.0	2067.0	2067.0	2038.0	2038.0	2041.0	2041.0	2041.0	2029.0	2029.0	2037.0	2037.0	2037.0	2024.0	2024.0	2035.0	2035.0	2035.0	2018.0	2018.0	2028.0	2028.0	2028.0	2039.0	2039.0	2028.0	2028.0	2008.0	2008.0	2008.0	2028.0	2028.0	2035.0	2035.0	2035.0	2002.0	2002.0	2006.0	2006.0	2006.0	1998.0	1998.0	2006.0	2006.0	2006.0	2023.0	2023.0	2003.0	2003.0	2003.0	2011.0	2011.0	1987.0	1987.0	1987.0	1995.0	1995.0	2006.0	2006.0	2006.0	1981.0	1981.0	1998.0	1998.0	1998.0	1987.0	1987.0	1996.0	1996.0	1996.0	1971.0	1971.0	1970.0	1970.0	1970.0	1958.0	1958.0	1997.0	1997.0	1997.0	1982.0	1982.0	1946.0	1946.0	1946.0	1965.0	1965.0	1967.0	1967.0	1967.0	1987.0	1987.0	1976.0	1976.0	1976.0	1985.0	1985.0	1957.0	1957.0	1957.0	1983.0	1983.0	1952.0	1952.0	1952.0	1950.0	1950.0	1957.0	1957.0	1957.0	1942.0	1942.0	1972.0	1972.0	1972.0	1947.0	1947.0	1962.0	1962.0	1962.0	1947.0	1947.0	1942.0	1942.0	1942.0	1953.0	1953.0	1945.0	1945.0	1945.0	1946.0	1946.0	1930.0	1930.0	1930.0	1936.0	1936.0	1972.0	1972.0	1972.0	1919.0	1919.0	1950.0	1950.0	1950.0	1954.0	1954.0	1929.0	1929.0	1929.0	1943.0	1943.0	1941.0	1941.0	1941.0	1935.0	1935.0	1950.0	1950.0	1950.0	1927.0	1927.0	1950.0	1950.0	1950.0	1938.0	1938.0	1944.0	1944.0	1944.0	1915.0	1915.0	1913.0	1913.0	1913.0	1918.0	1918.0	1893.0	1893.0	1893.0	1927.0	1927.0	1906.0	1906.0	1906.0	1930.0	1930.0	1932.0	1932.0	1932.0	1914.0	1914.0	1930.0	1930.0	1930.0	1923.0	1923.0	1911.0	1911.0	1911.0	1903.0	1903.0	1934.0	1934.0	1934.0	1902.0	1902.0	1913.0	1913.0	1913.0	1903.0	1903.0	1925.0	1925.0	1925.0	1904.0	1904.0	1929.0	1929.0	1929.0	1920.0	1920.0	1922.0	1922.0	1922.0	1903.0	1903.0	1895.0	1895.0	1911.0	1911.0	1911.0	1889.0	1889.0	1882.0	1882.0	1882.0	1910.0	1910.0	1890.0	1890.0	1890.0	1890.0	1890.0	1920.0	1920.0	1920.0	1907.0	1907.0	1908.0	1908.0	1908.0	1899.0	1899.0	1893.0	1893.0	1893.0	1886.0	1886.0	1883.0	1883.0	1883.0	1903.0	1903.0	1899.0	1899.0	1899.0	1880.0	1880.0	1877.0	1877.0	1877.0	1895.0	1895.0	1888.0	1888.0	1888.0	1902.0	1902.0	1894.0	1894.0	1894.0	1884.0	1884.0	1905.0	1905.0	1905.0	1876.0	1876.0	1913.0	1913.0	1913.0	1911.0	1911.0	1886.0	1886.0	1886.0	1880.0	1880.0	1859.0	1859.0	1859.0	1905.0	1905.0	1904.0	1904.0	1904.0	1876.0	1876.0	1867.0	1867.0	1867.0	1871.0	1871.0	1882.0	1882.0	1882.0	1891.0	1891.0	1872.0	1872.0	1872.0	1879.0	1879.0	1888.0	1888.0	1888.0	1863.0	1863.0	1897.0	1897.0	1897.0	1885.0	1885.0	1890.0	1890.0	1890.0	1867.0	1867.0	1896.0	1896.0	1896.0	1877.0	1877.0	1901.0	1901.0	1901.0	1881.0	1881.0	1852.0	1852.0	1852.0	1906.0	1906.0	1869.0	1869.0	1869.0	1853.0	1853.0	1877.0	1877.0	1877.0	1884.0	1884.0	1877.0	1877.0	1877.0	1877.0	1877.0	1859.0	1859.0	1859.0	1891.0	1891.0	1867.0	1867.0	1867.0	1868.0	1868.0	1858.0	1858.0	1858.0	1904.0	1904.0	1859.0	1859.0	1859.0	1897.0	1897.0	1896.0	1896.0	1896.0	1870.0	1870.0	1865.0	1865.0	1865.0	1880.0	1880.0	1868.0	1868.0	1868.0	1868.0	1868.0	1885.0	1885.0	1885.0	1892.0	1892.0	1863.0	1863.0	1863.0	1859.0	1859.0	1894.0	1894.0	1894.0	1865.0	1865.0	1881.0	1881.0	1881.0	1871.0	1871.0	1888.0	1888.0	1888.0	1863.0	1863.0	1879.0	1879.0	1858.0	1858.0	1858.0	1884.0	1884.0	1874.0	1874.0	1874.0	1875.0	1875.0	1869.0	1869.0	1869.0	1871.0	1871.0	1881.0	1881.0	1881.0	1884.0	1884.0	1899.0	1899.0	1899.0	1848.0	1848.0	1862.0	1862.0	1862.0	1859.0	1859.0	1890.0	1890.0	1890.0	1892.0	1892.0	1879.0	1879.0	1879.0	1898.0	1898.0	1906.0	1906.0	1906.0	1860.0	1860.0	1860.0	1860.0	1860.0	1881.0	1881.0	1880.0	1880.0	1880.0	1900.0	1900.0	1909.0	1909.0	1909.0	1936.0	1936.0	1946.0	1946.0	1946.0	1951.0	1951.0	1953.0	1953.0	1953.0	1955.0	1955.0	1950.0	1950.0	1950.0	1979.0	1979.0	1988.0	1988.0	1988.0	1994.0	1994.0	2012.0	2012.0	2012.0	1998.0	1998.0	2022.0	2022.0	2022.0	2048.0	2048.0	2032.0	2032.0	2032.0	2069.0	2069.0	2083.0	2083.0	2083.0	2067.0	2067.0	2104.0	2104.0	2104.0	2096.0	2096.0	2091.0	2091.0	2091.0	2104.0	2104.0	2111.0	2111.0	2111.0	2131.0	2131.0	2122.0	2122.0	2122.0	2149.0	2149.0	2170.0	2170.0	2170.0	2157.0	2157.0	2165.0	2165.0	2165.0	2190.0	2190.0	2215.0	2215.0	2215.0	2217.0	2217.0	2204.0	2204.0	2204.0	2207.0	2207.0	2213.0	2213.0	2213.0	2236.0	2236.0	2242.0	2242.0	2242.0	2255.0	2255.0	2234.0	2234.0	2234.0	2280.0	2280.0	2285.0	2285.0	2285.0	2250.0	2250.0	2300.0	2300.0	2300.0	2262.0	2262.0	2315.0	2315.0	2315.0	2280.0	2280.0	2288.0	2288.0	2288.0	2310.0	2310.0	2300.0	2300.0	2300.0	2314.0	2314.0	2307.0	2307.0	2307.0	2295.0	2295.0	2318.0	2318.0	2318.0	2341.0	2341.0	2322.0	2322.0	2322.0	2323.0	2323.0	2324.0	2324.0	2324.0	2347.0	2347.0	2337.0	2337.0	2337.0	2349.0	2349.0	2348.0	2348.0	2340.0	2340.0	2340.0	2361.0	2361.0	2351.0	2351.0	2351.0	2350.0	2350.0	2340.0	2340.0	2340.0	2364.0	2364.0	2369.0	2369.0	2369.0	2349.0	2349.0	2357.0	2357.0	2357.0	2357.0	2357.0	2340.0	2340.0	2340.0	2373.0	2373.0	2356.0	2356.0	2356.0	2345.0	2345.0	2377.0	2377.0	2377.0	2355.0	2355.0	2335.0	2335.0	2335.0	2348.0	2348.0	2359.0	2359.0	2359.0	2345.0	2345.0	2352.0	2352.0	2352.0	2356.0	2356.0	2331.0	2331.0	2331.0	2355.0	2355.0	2332.0	2332.0	2332.0	2321.0	2321.0	2306.0	2306.0	2306.0	2300.0	2300.0	2303.0	2303.0	2303.0	2331.0	2331.0	2323.0	2323.0	2323.0	2305.0	2305.0	2295.0	2295.0	2295.0	2286.0	2286.0	2288.0	2288.0	2288.0	2314.0	2314.0	2273.0	2273.0	2273.0	2290.0	2290.0	2275.0	2275.0	2275.0	2254.0	2254.0	2255.0	2255.0	2255.0	2249.0	2249.0	2270.0	2270.0	2270.0	2233.0	2233.0	2227.0	2227.0	2227.0	2247.0	2247.0	2242.0	2242.0	2242.0	2223.0	2223.0	2239.0	2239.0	2239.0	2206.0	2206.0	2228.0	2228.0	2228.0	2190.0	2190.0	2222.0	2222.0	2222.0	2179.0	2179.0	2212.0	2212.0	2212.0	2204.0	2204.0	2188.0	2188.0	2188.0	2166.0	2166.0	2183.0	2183.0	2183.0	2152.0	2152.0	2159.0	2159.0	2159.0	2167.0	2167.0	2157.0	2157.0	2157.0	2157.0	2157.0	2158.0	2158.0	2158.0	2157.0	2157.0	2146.0	2146.0	2146.0	2132.0	2132.0	2137.0	2137.0	2137.0	2134.0	2134.0	2118.0	2118.0	2118.0	2121.0	2121.0	2144.0	2144.0	2144.0	2126.0	2126.0	2127.0	2127.0	2127.0	2137.0	2137.0	2114.0	2114.0	2114.0	2108.0	2108.0	2108.0	2108.0	2108.0	2107.0	2107.0	2108.0	2108.0	2074.0	2074.0	2074.0	2113.0	2113.0	2076.0	2076.0	2076.0	2100.0	2100.0	2100.0	2100.0	2100.0	2082.0	2082.0	2099.0	2099.0	2099.0	2086.0	2086.0	2077.0	2077.0	2077.0	2079.0	2079.0	2094.0	2094.0	2094.0	2062.0	2062.0	2054.0	2054.0	2054.0	2054.0	2054.0	2074.0	2074.0	2074.0	2029.0	2029.0	2052.0	2052.0	2052.0	2061.0	2061.0	2059.0	2059.0	2059.0	2060.0	2060.0	2045.0	2045.0	2045.0	2056.0	2056.0	2054.0	2054.0	2054.0	2055.0	2055.0	2028.0	2028.0	2028.0	2016.0	2016.0	2012.0	2012.0	2012.0	2022.0	2022.0	2017.0	2017.0	2017.0	2027.0	2027.0	2041.0	2041.0	2041.0	2017.0	2017.0	2027.0	2027.0	2027.0	2006.0	2006.0	2002.0	2002.0	2002.0	2008.0	2008.0	2013.0	2013.0	2013.0	2000.0	2000.0	2020.0	2020.0	2020.0	2002.0	2002.0	2014.0	2014.0	2014.0	1984.0	1984.0	2013.0	2013.0	2013.0	1979.0	1979.0	2008.0	2008.0	2008.0	1995.0	1995.0	2017.0	2017.0	2017.0	1975.0	1975.0	1991.0	1991.0	1991.0	2002.0	2002.0	1964.0	1964.0	1964.0	1985.0	1985.0	1991.0	1991.0	1991.0	1975.0	1975.0	1983.0	1983.0	1983.0	1955.0	1955.0	1969.0	1969.0	1969.0	1964.0	1964.0	1964.0	1964.0	1964.0	1961.0	1961.0	1959.0	1959.0	1959.0	1973.0	1973.0	1943.0	1943.0	1943.0	1950.0	1950.0	1939.0	1939.0	1939.0	1950.0	1950.0	1978.0	1978.0	1978.0	1966.0	1966.0	1943.0	1943.0	1943.0	1940.0	1940.0	1945.0	1945.0	1945.0	1934.0	1934.0	1939.0	1939.0	1939.0	1922.0	1922.0	1940.0	1940.0	1940.0	1955.0	1955.0	1929.0	1929.0	1929.0	1924.0	1924.0	1942.0	1942.0	1942.0	1934.0	1934.0	1938.0	1938.0	1932.0	1932.0	1932.0	1914.0	1914.0	1916.0	1916.0	1916.0	1916.0	1916.0	1933.0	1933.0	1933.0	1928.0	1928.0	1927.0	1927.0	1927.0	1936.0	1936.0	1927.0	1927.0	1927.0	1910.0	1910.0	1907.0	1907.0	1907.0	1911.0	1911.0	1921.0	1921.0	1921.0	1927.0	1927.0	1911.0	1911.0	1911.0	1923.0	1923.0	1909.0	1909.0	1909.0	1924.0	1924.0	1924.0	1924.0	1924.0	1916.0	1916.0	1910.0	1910.0	1910.0	1915.0	1915.0	1920.0	1920.0	1920.0	1927.0	1927.0	1907.0	1907.0	1907.0	1903.0	1903.0	1881.0	1881.0	1881.0	1916.0	1916.0	1916.0	1916.0	1916.0	1889.0	1889.0	1890.0	1890.0	1890.0	1888.0	1888.0	1901.0	1901.0	1901.0	1890.0	1890.0	1892.0	1892.0	1892.0	1900.0	1900.0	1883.0	1883.0	1883.0	1914.0	1914.0	1895.0	1895.0	1895.0	1882.0	1882.0	1899.0	1899.0	1899.0	1883.0	1883.0	1904.0	1904.0	1904.0	1891.0	1891.0	1896.0	1896.0	1896.0	1915.0	1915.0	1888.0	1888.0	1888.0	1899.0	1899.0	1870.0	1870.0	1870.0	1868.0	1868.0	1878.0	1878.0	1878.0	1889.0	1889.0	1891.0	1891.0	1891.0	1890.0	1890.0	1877.0	1877.0	1877.0	1864.0	1864.0	1867.0	1867.0	1867.0	1869.0	1869.0	1895.0	1895.0	1895.0	1871.0	1871.0	1882.0	1882.0	1882.0	1869.0	1869.0	1899.0	1899.0	1899.0	1895.0	1895.0	1863.0	1863.0	1863.0	1882.0	1882.0	1867.0	1867.0	1867.0	1890.0	1890.0	1859.0	1859.0	1859.0	1871.0	1871.0	1876.0	1876.0	1876.0	1885.0	1885.0	1863.0	1863.0	1863.0	1884.0	1884.0	1865.0	1865.0	1865.0	1865.0	1865.0	1879.0	1879.0	1879.0	1881.0	1881.0	1881.0	1881.0	1881.0	1875.0	1875.0	1862.0	1862.0	1862.0	1875.0	1875.0	1871.0	1871.0	1853.0	1853.0	1853.0	1872.0	1872.0	1856.0	1856.0	1856.0	1877.0	1877.0	1892.0	1892.0	1892.0	1892.0	1892.0	1893.0	1893.0	1893.0	1862.0	1862.0	1858.0	1858.0	1858.0	1876.0	