1735.0	1735.0	1718.0	1718.0	1702.0	1702.0	1702.0	1723.0	1723.0	1724.0	1724.0	1702.0	1702.0	1702.0	1735.0	1735.0	1748.0	1748.0	1748.0	1692.0	1692.0	1698.0	1698.0	1698.0	1725.0	1725.0	1720.0	1720.0	1720.0	1688.0	1688.0	1730.0	1730.0	1730.0	1692.0	1692.0	1727.0	1727.0	1727.0	1708.0	1708.0	1700.0	1700.0	1700.0	1698.0	1698.0	1679.0	1679.0	1679.0	1712.0	1712.0	1719.0	1719.0	1719.0	1695.0	1695.0	1734.0	1734.0	1734.0	1696.0	1696.0	1673.0	1673.0	1673.0	1735.0	1735.0	1729.0	1729.0	1729.0	1669.0	1669.0	1708.0	1708.0	1708.0	1663.0	1663.0	1710.0	1710.0	1710.0	1676.0	1676.0	1677.0	1677.0	1677.0	1730.0	1730.0	1728.0	1728.0	1728.0	1680.0	1680.0	1680.0	1680.0	1680.0	1673.0	1673.0	1685.0	1685.0	1685.0	1676.0	1676.0	1658.0	1658.0	1658.0	1674.0	1674.0	1657.0	1657.0	1657.0	1720.0	1720.0	1695.0	1695.0	1695.0	1696.0	1696.0	1673.0	1673.0	1673.0	1709.0	1709.0	1665.0	1665.0	1665.0	1714.0	1714.0	1654.0	1654.0	1654.0	1699.0	1699.0	1647.0	1647.0	1647.0	1691.0	1691.0	1689.0	1689.0	1689.0	1699.0	1699.0	1710.0	1710.0	1710.0	1648.0	1648.0	1641.0	1641.0	1641.0	1669.0	1669.0	1653.0	1653.0	1653.0	1634.0	1634.0	1683.0	1683.0	1683.0	1684.0	1684.0	1644.0	1644.0	1644.0	1662.0	1662.0	1646.0	1646.0	1646.0	1640.0	1640.0	1642.0	1642.0	1642.0	1654.0	1654.0	1681.0	1681.0	1681.0	1617.0	1617.0	1693.0	1693.0	1693.0	1691.0	1691.0	1654.0	1654.0	1654.0	1651.0	1651.0	1659.0	1659.0	1659.0	1682.0	1682.0	1695.0	1695.0	1695.0	1697.0	1697.0	1643.0	1643.0	1643.0	1647.0	1647.0	1691.0	1691.0	1691.0	1688.0	1688.0	1692.0	1692.0	1692.0	1721.0	1721.0	1695.0	1695.0	1743.0	1743.0	1743.0	1768.0	1768.0	1767.0	1767.0	1767.0	1788.0	1788.0	1776.0	1776.0	1776.0	1838.0	1838.0	1816.0	1816.0	1816.0	1840.0	1840.0	1831.0	1831.0	1831.0	1889.0	1889.0	1909.0	1909.0	1909.0	1906.0	1906.0	1971.0	1971.0	1971.0	1924.0	1924.0	2006.0	2006.0	2006.0	1998.0	1998.0	2049.0	2049.0	2049.0	2011.0	2011.0	2039.0	2039.0	2039.0	2085.0	2085.0	2070.0	2070.0	2070.0	2086.0	2086.0	2114.0	2114.0	2114.0	2144.0	2144.0	2124.0	2124.0	2124.0	2184.0	2184.0	2160.0	2160.0	2160.0	2163.0	2163.0	2215.0	2215.0	2215.0	2209.0	2209.0	2252.0	2252.0	2252.0	2270.0	2270.0	2290.0	2290.0	2290.0	2256.0	2256.0	2285.0	2285.0	2285.0	2317.0	2317.0	2324.0	2324.0	2324.0	2355.0	2355.0	2325.0	2325.0	2325.0	2334.0	2334.0	2362.0	2362.0	2362.0	2367.0	2367.0	2375.0	2375.0	2375.0	2417.0	2417.0	2414.0	2414.0	2414.0	2395.0	2395.0	2384.0	2384.0	2384.0	2416.0	2416.0	2424.0	2424.0	2424.0	2404.0	2404.0	2451.0	2451.0	2451.0	2446.0	2446.0	2433.0	2433.0	2433.0	2469.0	2469.0	2483.0	2483.0	2483.0	2480.0	2480.0	2459.0	2459.0	2459.0	2444.0	2444.0	2495.0	2495.0	2495.0	2470.0	2470.0	2477.0	2477.0	2477.0	2483.0	2483.0	2459.0	2459.0	2459.0	2512.0	2512.0	2503.0	2503.0	2503.0	2506.0	2506.0	2512.0	2512.0	2512.0	2492.0	2492.0	2498.0	2498.0	2498.0	2532.0	2532.0	2535.0	2535.0	2535.0	2498.0	2498.0	2498.0	2498.0	2498.0	2538.0	2538.0	2508.0	2508.0	2508.0	2486.0	2486.0	2523.0	2523.0	2523.0	2492.0	2492.0	2487.0	2487.0	2487.0	2510.0	2510.0	2483.0	2483.0	2490.0	2490.0	2490.0	2472.0	2472.0	2459.0	2459.0	2459.0	2486.0	2486.0	2498.0	2498.0	2498.0	2503.0	2503.0	2460.0	2460.0	2460.0	2431.0	2431.0	2439.0	2439.0	2439.0	2441.0	2441.0	2428.0	2428.0	2428.0	2417.0	2417.0	2410.0	2410.0	2410.0	2408.0	2408.0	2392.0	2392.0	2392.0	2430.0	2430.0	2393.0	2393.0	2393.0	2423.0	2423.0	2410.0	2410.0	2410.0	2346.0	2346.0	2347.0	2347.0	2347.0	2374.0	2374.0	2363.0	2363.0	2363.0	2315.0	2315.0	2320.0	2320.0	2320.0	2324.0	2324.0	2338.0	2338.0	2338.0	2297.0	2297.0	2309.0	2309.0	2309.0	2274.0	2274.0	2248.0	2248.0	2248.0	2275.0	2275.0	2251.0	2251.0	2251.0	2254.0	2254.0	2232.0	2232.0	2232.0	2268.0	2268.0	2235.0	2235.0	2235.0	2225.0	2225.0	2214.0	2214.0	2214.0	2179.0	2179.0	2246.0	2246.0	2246.0	2185.0	2185.0	2164.0	2164.0	2164.0	2212.0	2212.0	2142.0	2142.0	2142.0	2186.0	2186.0	2189.0	2189.0	2189.0	2191.0	2191.0	2192.0	2192.0	2192.0	2189.0	2189.0	2138.0	2138.0	2138.0	2113.0	2113.0	2160.0	2160.0	2160.0	2157.0	2157.0	2121.0	2121.0	2121.0	2098.0	2098.0	2112.0	2112.0	2112.0	2083.0	2083.0	2099.0	2099.0	2099.0	2139.0	2139.0	2125.0	2125.0	2125.0	2068.0	2068.0	2101.0	2101.0	2101.0	2067.0	2067.0	2114.0	2114.0	2114.0	2068.0	2068.0	2098.0	2098.0	2098.0	2100.0	2100.0	2042.0	2042.0	2042.0	2054.0	2054.0	2057.0	2057.0	2057.0	2044.0	2044.0	2081.0	2081.0	2081.0	2079.0	2079.0	2061.0	2061.0	2061.0	2062.0	2062.0	2060.0	2060.0	2060.0	2025.0	2025.0	2017.0	2017.0	2017.0	2045.0	2045.0	1997.0	1997.0	2011.0	2011.0	2011.0	2041.0	2041.0	2006.0	2006.0	2006.0	2019.0	2019.0	1974.0	1974.0	1974.0	2020.0	2020.0	2003.0	2003.0	2003.0	1999.0	1999.0	1968.0	1968.0	1968.0	1980.0	1980.0	1994.0	1994.0	1994.0	1992.0	1992.0	1942.0	1942.0	1942.0	1987.0	1987.0	1983.0	1983.0	1983.0	1934.0	1934.0	1953.0	1953.0	1953.0	1929.0	1929.0	1929.0	1929.0	1929.0	1975.0	1975.0	1946.0	1946.0	1946.0	1963.0	1963.0	1951.0	1951.0	1951.0	1909.0	1909.0	1905.0	1905.0	1905.0	1945.0	1945.0	1887.0	1887.0	1887.0	1923.0	1923.0	1881.0	1881.0	1881.0	1876.0	1876.0	1916.0	1916.0	1916.0	1880.0	1880.0	1908.0	1908.0	1908.0	1884.0	1884.0	1926.0	1926.0	1926.0	1895.0	1895.0	1884.0	1884.0	1884.0	1887.0	1887.0	1879.0	1879.0	1879.0	1841.0	1841.0	1884.0	1884.0	1884.0	1833.0	1833.0	1888.0	1888.0	1888.0	1837.0	1837.0	1829.0	1829.0	1829.0	1860.0	1860.0	1841.0	1841.0	1841.0	1827.0	1827.0	1838.0	1838.0	1838.0	1812.0	1812.0	1818.0	1818.0	1818.0	1864.0	1864.0	1819.0	1819.0	1819.0	1811.0	1811.0	1840.0	1840.0	1840.0	1860.0	1860.0	1818.0	1818.0	1818.0	1808.0	1808.0	1814.0	1814.0	1814.0	1809.0	1809.0	1845.0	1845.0	1845.0	1833.0	1833.0	1847.0	1847.0	1847.0	1804.0	1804.0	1778.0	1778.0	1778.0	1818.0	1818.0	1813.0	1813.0	1813.0	1809.0	1809.0	1789.0	1789.0	1789.0	1795.0	1795.0	1780.0	1780.0	1780.0	1800.0	1800.0	1776.0	1776.0	1776.0	1773.0	1773.0	1801.0	1801.0	1801.0	1770.0	1770.0	1764.0	1764.0	1764.0	1818.0	1818.0	1748.0	1748.0	1748.0	1758.0	1758.0	1774.0	1774.0	1774.0	1771.0	1771.0	1793.0	1793.0	1749.0	1749.0	1749.0	1733.0	1733.0	1748.0	1748.0	1748.0	1737.0	1737.0	1782.0	1782.0	1782.0	1766.0	1766.0	1789.0	1789.0	1789.0	1740.0	1740.0	1726.0	1726.0	1726.0	1790.0	1790.0	1781.0	1781.0	1781.0	1788.0	1788.0	1729.0	1729.0	1729.0	1732.0	1732.0	1763.0	1763.0	1763.0	1750.0	1750.0	1745.0	1745.0	1745.0	1716.0	1716.0	1758.0	1758.0	1758.0	1758.0	1758.0	1759.0	1759.0	1759.0	1732.0	1732.0	1760.0	1760.0	1760.0	1705.0	1705.0	1710.0	1710.0	1710.0	1702.0	1702.0	1732.0	1732.0	1732.0	1731.0	1731.0	1707.0	1707.0	1707.0	1725.0	1725.0	1746.0	1746.0	1746.0	1728.0	1728.0	1700.0	1700.0	1700.0	1733.0	1733.0	1699.0	1699.0	1699.0	1700.0	1700.0	1745.0	1745.0	1745.0	1720.0	1720.0	1737.0	1737.0	1737.0	1734.0	1734.0	1709.0	1709.0	1709.0	1735.0	1735.0	1682.0	1682.0	1682.0	1694.0	1694.0	1689.0	1689.0	1689.0	1723.0	1723.0	1688.0	1688.0	1688.0	1729.0	1729.0	1711.0	1711.0	1711.0	1675.0	1675.0	1679.0	1679.0	1679.0	1684.0	1684.0	1723.0	1723.0	1723.0	1676.0	1676.0	1662.0	1662.0	1662.0	1669.0	1669.0	1727.0	1727.0	1727.0	1688.0	1688.0	1670.0	1670.0	1670.0	1675.0	1675.0	1673.0	1673.0	1673.0	1736.0	1736.0	1660.0	1660.0	1660.0	1679.0	1679.0	1710.0	1710.0	1710.0	1658.0	1658.0	1684.0	1684.0	1684.0	1667.0	1667.0	1711.0	1711.0	1711.0	1724.0	1724.0	1660.0	1660.0	1660.0	1711.0	1711.0	1666.0	1666.0	1666.0	1655.0	1655.0	1655.0	1655.0	1655.0	1721.0	1721.0	1655.0	1655.0	1655.0	1671.0	1671.0	1660.0	1660.0	1660.0	1684.0	1684.0	1699.0	1699.0	1679.0	1679.0	1679.0	1687.0	1687.0	1694.0	1694.0	1694.0	1708.0	1708.0	1703.0	1703.0	1703.0	1685.0	1685.0	1695.0	1695.0	1695.0	1663.0	1663.0	1683.0	1683.0	1683.0	1679.0	1679.0	1699.0	1699.0	1699.0	1676.0	1676.0	1698.0	1698.0	1698.0	1661.0	1661.0	1649.0	1649.0	1649.0	1707.0	1707.0	1710.0	1710.0	1710.0	1721.0	1721.0	1666.0	1666.0	1666.0	1697.0	1697.0	1693.0	1693.0	1693.0	1733.0	1733.0	1760.0	1760.0	1760.0	1758.0	1758.0	1780.0	1780.0	1780.0	1798.0	1798.0	1764.0	1764.0	1764.0	1790.0	1790.0	1808.0	1808.0	1808.0	1829.0	1829.0	1889.0	1889.0	1889.0	1857.0	1857.0	1926.0	1926.0	1926.0	1903.0	1903.0	1917.0	1917.0	1917.0	1982.0	1982.0	2015.0	2015.0	2015.0	1985.0	1985.0	2012.0	2012.0	2012.0	2017.0	2017.0	2042.0	2042.0	2042.0	2053.0	2053.0	2113.0	2113.0	2113.0	2097.0	2097.0	2119.0	2119.0	2119.0	2150.0	2150.0	2200.0	2200.0	2200.0	2204.0	2204.0	2179.0	2179.0	2179.0	2200.0	2200.0	2280.0	2280.0	2280.0	2236.0	2236.0	2297.0	2297.0	2297.0	2298.0	2298.0	2316.0	2316.0	2316.0	2328.0	2328.0	2336.0	2336.0	2336.0	2359.0	2359.0	2328.0	2328.0	2328.0	2327.0	2327.0	2337.0	2337.0	2337.0	2405.0	2405.0	2374.0	2374.0	2374.0	2424.0	2424.0	2422.0	2422.0	2422.0	2408.0	2408.0	2430.0	2430.0	2430.0	2449.0	2449.0	2422.0	2422.0	2422.0	2427.0	2427.0	2437.0	2437.0	2437.0	2467.0	2467.0	2503.0	2503.0	2503.0	2480.0	2480.0	2496.0	2496.0	2496.0	2478.0	2478.0	2494.0	2494.0	2494.0	2524.0	2524.0	2505.0	2505.0	2505.0	2543.0	2543.0	2520.0	2520.0	2520.0	2559.0	2559.0	2521.0	2521.0	2543.0	2543.0	2543.0	2560.0	2560.0	2539.0	2539.0	2539.0	2539.0	2539.0	2524.0	2524.0	2524.0	2580.0	2580.0	2578.0	2578.0	2578.0	2568.0	2568.0	2533.0	2533.0	2533.0	2578.0	2578.0	2547.0	2547.0	2547.0	2575.0	2575.0	2531.0	2531.0	2531.0	2560.0	2560.0	2591.0	2591.0	2591.0	2543.0	2543.0	2563.0	2563.0	2563.0	2562.0	2562.0	2533.0	2533.0	2533.0	2519.0	2519.0	2525.0	2525.0	2525.0	2561.0	2561.0	2522.0	2522.0	2522.0	2506.0	2506.0	2560.0	2560.0	2560.0	2540.0	2540.0	2519.0	2519.0	2519.0	2486.0	2486.0	2493.0	2493.0	2493.0	2479.0	2479.0	2511.0	2511.0	2511.0	2503.0	2503.0	2473.0	2473.0	2473.0	2478.0	2478.0	2467.0	2467.0	2467.0	2468.0	2468.0	2459.0	2459.0	2459.0	2446.0	2446.0	2448.0	2448.0	2448.0	2414.0	2414.0	2406.0	2406.0	2406.0	2439.0	2439.0	2420.0	2420.0	2420.0	2411.0	2411.0	2391.0	2391.0	2391.0	2393.0	2393.0	2355.0	2355.0	2355.0	2366.0	2366.0	2345.0	2345.0	2345.0	2336.0	2336.0	2338.0	2338.0	2338.0	2312.0	2312.0	2329.0	2329.0	2329.0	2310.0	2310.0	2269.0	2269.0	2269.0	2285.0	2285.0	2308.0	2308.0	2308.0	2301.0	2301.0	2293.0	2293.0	2293.0	2266.0	2266.0	2244.0	2244.0	2244.0	2235.0	2235.0	2237.0	2237.0	2237.0	2233.0	2233.0	2191.0	2191.0	2191.0	2228.0	2228.0	2216.0	2216.0	2216.0	2205.0	2205.0	2213.0	2213.0	2213.0	2187.0	2187.0	2155.0	2155.0	2155.0	2154.0	2154.0	2186.0	2186.0	2186.0	2187.0	2187.0	2131.0	2131.0	2131.0	2175.0	2175.0	2170.0	2170.0	2170.0	2165.0	2165.0	2154.0	2154.0	2154.0	2106.0	2106.0	2100.0	2100.0	2133.0	2133.0	2133.0	2131.0	2131.0	2105.0	2105.0	2105.0	2087.0	2087.0	2070.0	2070.0	2070.0	2078.0	2078.0	2103.0	2103.0	2103.0	2107.0	2107.0	2059.0	2059.0	2059.0	2095.0	2095.0	2095.0	2095.0	2095.0	2093.0	2093.0	2083.0	2083.0	2083.0	2071.0	2071.0	2055.0	2055.0	2055.0	2062.0	2062.0	2084.0	2084.0	2084.0	2016.0	2016.0	2035.0	2035.0	2035.0	2006.0	2006.0	2052.0	2052.0	2052.0	2002.0	2002.0	2013.0	2013.0	2013.0	2040.0	2040.0	2033.0	2033.0	2033.0	2030.0	2030.0	1973.0	1973.0	1973.0	2006.0	2006.0	2009.0	2009.0	2009.0	1996.0	1996.0	2015.0	2015.0	2015.0	2010.0	2010.0	1976.0	1976.0	1976.0	1983.0	1983.0	1942.0	1942.0	1942.0	1947.0	1947.0	1952.0	1952.0	1952.0	1930.0	1930.0	1950.0	1950.0	1950.0	1971.0	1971.0	1930.0	1930.0	1930.0	1907.0	1907.0	1959.0	1959.0	1959.0	1914.0	1914.0	1928.0	1928.0	1928.0	1915.0	1915.0	1893.0	1893.0	1893.0	1930.0	1930.0	1934.0	1934.0	1934.0	1909.0	1909.0	1888.0	1888.0	1888.0	1915.0	1915.0	1877.0	1877.0	1877.0	1881.0	1881.0	1904.0	1904.0	1904.0	1857.0	1857.0	1911.0	1911.0	1911.0	1887.0	1887.0	1886.0	1886.0	1886.0	1847.0	1847.0	1855.0	1855.0	1855.0	1846.0	1846.0	1884.0	1884.0	1884.0	1871.0	1871.0	1831.0	1831.0	1831.0	1827.0	1827.0	1866.0	1866.0	1866.0	1878.0	1878.0	1842.0	1842.0	1842.0	1856.0	1856.0	1831.0	1831.0	1831.0	1870.0	1870.0	1835.0	1835.0	1835.0	1843.0	1843.0	1820.0	1820.0	1820.0	1808.0	1808.0	1858.0	1858.0	1858.0	1823.0	1823.0	1830.0	1830.0	1830.0	1839.0	1839.0	1812.0	1812.0	1811.0	1811.0	1811.0	1828.0	1828.0	1818.0	1818.0	1818.0	1780.0	1780.0	1838.0	1838.0	1838.0	1822.0	1822.0	1821.0	1821.0	1821.0	1818.0	1818.0	1774.0	1774.0	1774.0	1767.0	1767.0	1780.0	1780.0	1780.0	1796.0	1796.0	1809.0	1809.0	1809.0	1790.0	1790.0	1782.0	1782.0	1782.0	1803.0	1803.0	1754.0	1754.0	1754.0	1755.0	1755.0	1755.0	1755.0	1755.0	1743.0	1743.0	1789.0	1789.0	1789.0	1774.0	1774.0	1769.0	1769.0	1769.0	1742.0	1742.0	1737.0	1737.0	1737.0	1772.0	1772.0	1748.0	1748.0	1748.0	1788.0	1788.0	1761.0	1761.0	1761.0	1782.0	1782.0	1752.0	1752.0	1752.0	1764.0	1764.0	1744.0	1744.0	1744.0	1758.0	1758.0	1773.0	1773.0	1773.0	1720.0	1720.0	1767.0	1767.0	1767.0	1768.0	1768.0	1765.0	1765.0	1765.0	1761.0	1761.0	1738.0	1738.0	1738.0	1751.0	1751.0	1710.0	1710.0	1710.0	1705.0	1705.0	1701.0	1701.0	1701.0	1698.0	1698.0	1705.0	1705.0	1705.0	1701.0	1701.0	1703.0	1703.0	1703.0	1726.0	1726.0	1697.0	1697.0	1697.0	1710.0	1710.0	1683.0	1683.0	1683.0	1719.0	1719.0	1729.0	1729.0	1729.0	1708.0	1708.0	1743.0	1743.0	1743.0	1719.0	1719.0	1684.0	1684.0	1684.0	1719.0	1719.0	1679.0	1679.0	1679.0	1736.0	1736.0	1712.0	1712.0	1712.0	1706.0	1706.0	1681.0	1681.0	1681.0	1730.0	1730.0	1693.0	1693.0	1693.0	1719.0	1719.0	1663.0	1663.0	1663.0	1722.0	1722.0	1698.0	1698.0	1698.0	1671.0	1671.0	1717.0	1717.0	1717.0	1675.0	1675.0	1656.0	1656.0	1656.0	1660.0	1660.0	1654.0	1654.0	1654.0	1704.0	1704.0	1698.0	1698.0	1698.0	1682.0	1682.0	1683.0	1683.0	1683.0	1703.0	1703.0	1695.0	1695.0	1671.0	1671.0	1671.0	1715.0	1715.0	1668.0	1668.0	1668.0	1662.0	1662.0	1655.0	1655.0	1655.0	1685.0	1685.0	1691.0	1691.0	1691.0	1692.0	1692.0	1660.0	1660.0	1660.0	1647.0	1647.0	1674.0	1674.0	1674.0	1655.0	1655.0	1652.0	1652.0	1652.0	1667.0	1667.0	1685.0	1685.0	1685.0	1682.0	1682.0	1683.0	1683.0	1683.0	1652.0	1652.0	1667.0	1667.0	1667.0	1676.0	1676.0	1638.0	1638.0	1638.0	1639.0	1639.0	1697.0	1697.0	1697.0	1686.0	1686.0	1631.0	1631.0	1631.0	1680.0	1680.0	1638.0	1638.0	1638.0	1664.0	1664.0	1629.0	1629.0	1629.0	1622.0	1622.0	1629.0	1629.0	1629.0	1680.0	1680.0	1626.0	1626.0	1626.0	1667.0	1667.0	1695.0	1695.0	1695.0	1688.0	1688.0	1640.0	1640.0	1640.0	1652.0	1652.0	1632.0	1632.0	1632.0	1687.0	1687.0	1651.0	1651.0	1651.0	1657.0	1657.0	1659.0	1659.0	1659.0	1671.0	1671.0	1711.0	1711.0	1711.0	1753.0	1753.0	1729.0	1729.0	1729.0	1751.0	1751.0	1758.0	1758.0	1758.0	1805.0	1805.0	1777.0	1777.0	1777.0	1817.0	1817.0	1855.0	1855.0	1855.0	1862.0	1862.0	1892.0	1892.0	1892.0	1865.0	1865.0	1906.0	1906.0	1906.0	1912.0	1912.0	1948.0	1948.0	1948.0	1999.0	1999.0	1986.0	1986.0	1986.0	1997.0	1997.0	2037.0	2037.0	2037.0	2030.0	2030.0	2096.0	2096.0	2096.0	2055.0	2055.0	2092.0	2092.0	2092.0	2098.0	2098.0	2172.0	2172.0	2172.0	2140.0	2140.0	2176.0	2176.0	2176.0	2205.0	2205.0	2176.0	2176.0	2176.0	2191.0	2191.0	2218.0	2218.0	2218.0	2227.0	2227.0	2261.0	2261.0	2261.0	2265.0	2265.0	2280.0	2280.0	2280.0	2308.0	2308.0	2350.0	2350.0	2336.0	2336.0	2336.0	2359.0	2359.0	2329.0	2329.0	2329.0	2363.0	2363.0	2341.0	2341.0	2341.0	2372.0	2372.0	2368.0	2368.0	2368.0	2399.0	2399.0	2410.0	2410.0	2410.0	2399.0	2399.0	2444.0	2444.0	2444.0	2441.0	2441.0	2433.0	2433.0	2433.0	2449.0	2449.0	2427.0	2427.0	2427.0	2421.0	2421.0	2469.0	2469.0	2469.0	2487.0	2487.0	2439.0	2439.0	2439.0	2506.0	