2040.0	2040.0	2040.0	2031.0	2031.0	2017.0	2017.0	2017.0	2022.0	2022.0	2041.0	2041.0	2041.0	2014.0	2014.0	1984.0	1984.0	1984.0	2025.0	2025.0	2008.0	2008.0	2008.0	2006.0	2006.0	1998.0	1998.0	1998.0	2013.0	2013.0	1974.0	1974.0	1974.0	1959.0	1959.0	1975.0	1975.0	1975.0	1971.0	1971.0	1991.0	1991.0	1991.0	1985.0	1985.0	1966.0	1966.0	1966.0	1961.0	1961.0	1961.0	1961.0	1961.0	1939.0	1939.0	1975.0	1975.0	1975.0	1964.0	1964.0	1916.0	1916.0	1916.0	1959.0	1959.0	1958.0	1958.0	1958.0	1909.0	1909.0	1960.0	1960.0	1960.0	1901.0	1901.0	1922.0	1922.0	1922.0	1912.0	1912.0	1918.0	1918.0	1918.0	1921.0	1921.0	1878.0	1878.0	1878.0	1909.0	1909.0	1900.0	1900.0	1900.0	1898.0	1898.0	1860.0	1860.0	1860.0	1923.0	1923.0	1871.0	1871.0	1871.0	1851.0	1851.0	1906.0	1906.0	1906.0	1858.0	1858.0	1868.0	1868.0	1868.0	1882.0	1882.0	1853.0	1853.0	1853.0	1880.0	1880.0	1831.0	1831.0	1831.0	1863.0	1863.0	1827.0	1827.0	1827.0	1824.0	1824.0	1837.0	1837.0	1837.0	1836.0	1836.0	1800.0	1800.0	1800.0	1860.0	1860.0	1808.0	1808.0	1808.0	1842.0	1842.0	1856.0	1856.0	1856.0	1831.0	1831.0	1820.0	1820.0	1820.0	1827.0	1827.0	1776.0	1776.0	1776.0	1799.0	1799.0	1839.0	1839.0	1839.0	1787.0	1787.0	1818.0	1818.0	1818.0	1766.0	1766.0	1803.0	1803.0	1803.0	1773.0	1773.0	1758.0	1758.0	1758.0	1787.0	1787.0	1780.0	1780.0	1780.0	1795.0	1795.0	1794.0	1794.0	1781.0	1781.0	1781.0	1788.0	1788.0	1784.0	1784.0	1784.0	1730.0	1730.0	1765.0	1765.0	1765.0	1736.0	1736.0	1755.0	1755.0	1755.0	1745.0	1745.0	1758.0	1758.0	1758.0	1712.0	1712.0	1755.0	1755.0	1755.0	1714.0	1714.0	1737.0	1737.0	1737.0	1756.0	1756.0	1741.0	1741.0	1741.0	1741.0	1741.0	1743.0	1743.0	1743.0	1709.0	1709.0	1761.0	1761.0	1761.0	1763.0	1763.0	1702.0	1702.0	1702.0	1704.0	1704.0	1746.0	1746.0	1746.0	1720.0	1720.0	1699.0	1699.0	1699.0	1699.0	1699.0	1761.0	1761.0	1761.0	1698.0	1698.0	1696.0	1696.0	1696.0	1744.0	1744.0	1719.0	1719.0	1719.0	1719.0	1719.0	1732.0	1732.0	1732.0	1744.0	1744.0	1741.0	1741.0	1741.0	1724.0	1724.0	1710.0	1710.0	1710.0	1733.0	1733.0	1682.0	1682.0	1682.0	1687.0	1687.0	1706.0	1706.0	1706.0	1712.0	1712.0	1679.0	1679.0	1679.0	1708.0	1708.0	1703.0	1703.0	1703.0	1687.0	1687.0	1662.0	1662.0	1662.0	1729.0	1729.0	1689.0	1689.0	1689.0	1707.0	1707.0	1690.0	1690.0	1690.0	1741.0	1741.0	1695.0	1695.0	1695.0	1680.0	1680.0	1728.0	1728.0	1728.0	1730.0	1730.0	1704.0	1704.0	1704.0	1708.0	1708.0	1683.0	1683.0	1683.0	1676.0	1676.0	1714.0	1714.0	1714.0	1698.0	1698.0	1675.0	1675.0	1675.0	1693.0	1693.0	1697.0	1697.0	1697.0	1679.0	1679.0	1656.0	1656.0	1656.0	1686.0	1686.0	1663.0	1663.0	1663.0	1658.0	1658.0	1688.0	1688.0	1688.0	1710.0	1710.0	1694.0	1694.0	1694.0	1681.0	1681.0	1667.0	1667.0	1667.0	1691.0	1691.0	1692.0	1692.0	1692.0	1666.0	1666.0	1668.0	1668.0	1668.0	1657.0	1657.0	1675.0	1675.0	1675.0	1694.0	1694.0	1717.0	1717.0	1686.0	1686.0	1686.0	1666.0	1666.0	1701.0	1701.0	1701.0	1684.0	1684.0	1704.0	1704.0	1704.0	1699.0	1699.0	1717.0	1717.0	1717.0	1714.0	1714.0	1702.0	1702.0	1702.0	1726.0	1726.0	1754.0	1754.0	1754.0	1771.0	1771.0	1745.0	1745.0	1745.0	1748.0	1748.0	1775.0	1775.0	1775.0	1824.0	1824.0	1819.0	1819.0	1819.0	1800.0	1800.0	1825.0	1825.0	1825.0	1901.0	1901.0	1876.0	1876.0	1876.0	1915.0	1915.0	1912.0	1912.0	1912.0	1975.0	1975.0	1979.0	1979.0	1979.0	2037.0	2037.0	2021.0	2021.0	2021.0	2038.0	2038.0	2071.0	2071.0	2071.0	2100.0	2100.0	2148.0	2148.0	2148.0	2144.0	2144.0	2172.0	2172.0	2172.0	2200.0	2200.0	2199.0	2199.0	2199.0	2237.0	2237.0	2237.0	2237.0	2237.0	2257.0	2257.0	2266.0	2266.0	2266.0	2304.0	2304.0	2314.0	2314.0	2314.0	2368.0	2368.0	2375.0	2375.0	2375.0	2416.0	2416.0	2394.0	2394.0	2394.0	2412.0	2412.0	2413.0	2413.0	2413.0	2477.0	2477.0	2438.0	2438.0	2438.0	2473.0	2473.0	2504.0	2504.0	2504.0	2470.0	2470.0	2492.0	2492.0	2492.0	2517.0	2517.0	2553.0	2553.0	2553.0	2521.0	2521.0	2544.0	2544.0	2544.0	2520.0	2520.0	2542.0	2542.0	2542.0	2581.0	2581.0	2559.0	2559.0	2559.0	2545.0	2545.0	2601.0	2601.0	2601.0	2568.0	2568.0	2578.0	2578.0	2578.0	2574.0	2574.0	2587.0	2587.0	2587.0	2605.0	2605.0	2563.0	2563.0	2563.0	2608.0	2608.0	2598.0	2598.0	2598.0	2594.0	2594.0	2590.0	2590.0	2590.0	2623.0	2623.0	2622.0	2622.0	2622.0	2592.0	2592.0	2630.0	2630.0	2630.0	2630.0	2630.0	2605.0	2605.0	2605.0	2620.0	2620.0	2595.0	2595.0	2585.0	2585.0	2585.0	2604.0	2604.0	2625.0	2625.0	2625.0	2573.0	2573.0	2621.0	2621.0	2621.0	2616.0	2616.0	2628.0	2628.0	2628.0	2576.0	2576.0	2594.0	2594.0	2594.0	2574.0	2574.0	2593.0	2593.0	2593.0	2575.0	2575.0	2560.0	2560.0	2560.0	2589.0	2589.0	2559.0	2559.0	2559.0	2588.0	2588.0	2560.0	2560.0	2560.0	2568.0	2568.0	2592.0	2592.0	2592.0	2539.0	2539.0	2586.0	2586.0	2586.0	2575.0	2575.0	2587.0	2587.0	2587.0	2534.0	2534.0	2558.0	2558.0	2558.0	2529.0	2529.0	2515.0	2515.0	2515.0	2546.0	2546.0	2552.0	2552.0	2552.0	2524.0	2524.0	2503.0	2503.0	2503.0	2490.0	2490.0	2522.0	2522.0	2522.0	2509.0	2509.0	2484.0	2484.0	2484.0	2514.0	2514.0	2474.0	2474.0	2474.0	2474.0	2474.0	2463.0	2463.0	2463.0	2427.0	2427.0	2422.0	2422.0	2422.0	2448.0	2448.0	2425.0	2425.0	2425.0	2401.0	2401.0	2390.0	2390.0	2390.0	2418.0	2418.0	2376.0	2376.0	2376.0	2349.0	2349.0	2370.0	2370.0	2370.0	2333.0	2333.0	2358.0	2358.0	2358.0	2306.0	2306.0	2339.0	2339.0	2339.0	2295.0	2295.0	2325.0	2325.0	2325.0	2270.0	2270.0	2254.0	2254.0	2254.0	2248.0	2248.0	2274.0	2274.0	2274.0	2232.0	2232.0	2238.0	2238.0	2238.0	2239.0	2239.0	2195.0	2195.0	2195.0	2176.0	2176.0	2204.0	2204.0	2204.0	2218.0	2218.0	2207.0	2207.0	2207.0	2166.0	2166.0	2190.0	2190.0	2190.0	2207.0	2207.0	2156.0	2156.0	2156.0	2145.0	2145.0	2169.0	2169.0	2169.0	2174.0	2174.0	2153.0	2153.0	2153.0	2109.0	2109.0	2126.0	2126.0	2126.0	2116.0	2116.0	2109.0	2109.0	2109.0	2098.0	2098.0	2116.0	2116.0	2111.0	2111.0	2111.0	2081.0	2081.0	2087.0	2087.0	2087.0	2088.0	2088.0	2118.0	2118.0	2118.0	2108.0	2108.0	2075.0	2075.0	2075.0	2091.0	2091.0	2072.0	2072.0	2072.0	2098.0	2098.0	2086.0	2086.0	2086.0	2085.0	2085.0	2098.0	2098.0	2098.0	2075.0	2075.0	2039.0	2039.0	2039.0	2075.0	2075.0	2047.0	2047.0	2047.0	2037.0	2037.0	2037.0	2037.0	2037.0	2019.0	2019.0	2019.0	2019.0	2019.0	2063.0	2063.0	2043.0	2043.0	2043.0	2005.0	2005.0	2040.0	2040.0	2040.0	2000.0	2000.0	1999.0	1999.0	1999.0	2002.0	2002.0	1998.0	1998.0	1998.0	1978.0	1978.0	1974.0	1974.0	1974.0	1990.0	1990.0	2010.0	2010.0	2010.0	2007.0	2007.0	1987.0	1987.0	1987.0	1962.0	1962.0	1966.0	1966.0	1966.0	1986.0	1986.0	1989.0	1989.0	1989.0	1954.0	1954.0	1962.0	1962.0	1962.0	1967.0	1967.0	1962.0	1962.0	1962.0	1913.0	1913.0	1958.0	1958.0	1958.0	1929.0	1929.0	1948.0	1948.0	1948.0	1898.0	1898.0	1939.0	1939.0	1939.0	1875.0	1875.0	1939.0	1939.0	1939.0	1915.0	1915.0	1930.0	1930.0	1930.0	1920.0	1920.0	1874.0	1874.0	1874.0	1867.0	1867.0	1907.0	1907.0	1907.0	1855.0	1855.0	1879.0	1879.0	1879.0	1879.0	1879.0	1903.0	1903.0	1903.0	1877.0	1877.0	1863.0	1863.0	1863.0	1833.0	1833.0	1880.0	1880.0	1880.0	1843.0	1843.0	1845.0	1845.0	1845.0	1831.0	1831.0	1860.0	1860.0	1860.0	1851.0	1851.0	1821.0	1821.0	1821.0	1834.0	1834.0	1821.0	1821.0	1821.0	1839.0	1839.0	1807.0	1807.0	1807.0	1817.0	1817.0	1792.0	1792.0	1792.0	1815.0	1815.0	1814.0	1814.0	1814.0	1823.0	1823.0	1802.0	1802.0	1802.0	1793.0	1793.0	1809.0	1809.0	1783.0	1783.0	1783.0	1787.0	1787.0	1779.0	1779.0	1779.0	1755.0	1755.0	1795.0	1795.0	1795.0	1786.0	1786.0	1750.0	1750.0	1750.0	1793.0	1793.0	1742.0	1742.0	1742.0	1748.0	1748.0	1765.0	1765.0	1765.0	1746.0	1746.0	1743.0	1743.0	1743.0	1740.0	1740.0	1788.0	1788.0	1788.0	1757.0	1757.0	1732.0	1732.0	1732.0	1733.0	1733.0	1744.0	1744.0	1744.0	1711.0	1711.0	1771.0	1771.0	1771.0	1708.0	1708.0	1726.0	1726.0	1726.0	1738.0	1738.0	1751.0	1751.0	1751.0	1761.0	1761.0	1718.0	1718.0	1718.0	1698.0	1698.0	1701.0	1701.0	1701.0	1712.0	1712.0	1747.0	1747.0	1747.0	1739.0	1739.0	1723.0	1723.0	1723.0	1697.0	1697.0	1710.0	1710.0	1710.0	1739.0	1739.0	1701.0	1701.0	1701.0	1698.0	1698.0	1726.0	1726.0	1726.0	1731.0	1731.0	1712.0	1712.0	1712.0	1698.0	1698.0	1695.0	1695.0	1695.0	1723.0	1723.0	1710.0	1710.0	1710.0	1734.0	1734.0	1673.0	1673.0	1673.0	1707.0	1707.0	1717.0	1717.0	1717.0	1721.0	1721.0	1715.0	1715.0	1715.0	1725.0	1725.0	1673.0	1673.0	1673.0	1674.0	1674.0	1680.0	1680.0	1680.0	1691.0	1691.0	1678.0	1678.0	1678.0	1715.0	1715.0	1706.0	1706.0	1706.0	1709.0	1709.0	1669.0	1669.0	1669.0	1663.0	1663.0	1678.0	1678.0	1678.0	1696.0	1696.0	1667.0	1667.0	1667.0	1714.0	1714.0	1690.0	1690.0	1690.0	1682.0	1682.0	1709.0	1709.0	1709.0	1699.0	1699.0	1659.0	1659.0	1659.0	1704.0	1704.0	1687.0	1687.0	1687.0	1671.0	1671.0	1655.0	1655.0	1655.0	1704.0	1704.0	1687.0	1687.0	1687.0	1665.0	1665.0	1687.0	1687.0	1687.0	1647.0	1647.0	1691.0	1691.0	1664.0	1664.0	1664.0	1707.0	1707.0	1706.0	1706.0	1706.0	1708.0	1708.0	1696.0	1696.0	1696.0	1685.0	1685.0	1654.0	1654.0	1654.0	1675.0	1675.0	1676.0	1676.0	1676.0	1679.0	1679.0	1657.0	1657.0	1657.0	1648.0	1648.0	1666.0	1666.0	1666.0	1660.0	1660.0	1681.0	1681.0	1681.0	1692.0	1692.0	1644.0	1644.0	1644.0	1713.0	1713.0	1722.0	1722.0	1722.0	1703.0	1703.0	1667.0	1667.0	1667.0	1727.0	1727.0	1672.0	1672.0	1672.0	1686.0	1686.0	1754.0	1754.0	1754.0	1705.0	1705.0	1736.0	1736.0	1736.0	1770.0	1770.0	1747.0	1747.0	1747.0	1778.0	1778.0	1771.0	1771.0	1771.0	1788.0	1788.0	1800.0	1800.0	1800.0	1832.0	1832.0	1902.0	1902.0	1902.0	1880.0	1880.0	1922.0	1922.0	1922.0	1922.0	1922.0	1981.0	1981.0	1981.0	1999.0	1999.0	2029.0	2029.0	2029.0	2052.0	2052.0	2051.0	2051.0	2051.0	2057.0	2057.0	2079.0	2079.0	2079.0	2156.0	2156.0	2164.0	2164.0	2164.0	2202.0	2202.0	2215.0	2215.0	2215.0	2258.0	2258.0	2222.0	2222.0	2222.0	2247.0	2247.0	2279.0	2279.0	2279.0	2288.0	2288.0	2327.0	2327.0	2327.0	2347.0	2347.0	2353.0	2353.0	2353.0	2348.0	2348.0	2389.0	2389.0	2389.0	2418.0	2418.0	2456.0	2456.0	2456.0	2418.0	2418.0	2478.0	2478.0	2478.0	2450.0	2450.0	2496.0	2496.0	2496.0	2476.0	2476.0	2519.0	2519.0	2519.0	2487.0	2487.0	2498.0	2498.0	2498.0	2546.0	2546.0	2525.0	2525.0	2525.0	2554.0	2554.0	2550.0	2550.0	2550.0	2544.0	2544.0	2580.0	2580.0	2580.0	2534.0	2534.0	2587.0	2587.0	2587.0	2547.0	2547.0	2595.0	2595.0	2595.0	2560.0	2560.0	2602.0	2602.0	2602.0	2567.0	2567.0	2606.0	2606.0	2595.0	2595.0	2595.0	2561.0	2561.0	2577.0	2577.0	2577.0	2591.0	2591.0	2611.0	2611.0	2611.0	2572.0	2572.0	2565.0	2565.0	2565.0	2611.0	2611.0	2575.0	2575.0	2575.0	2589.0	2589.0	2623.0	2623.0	2623.0	2588.0	2588.0	2583.0	2583.0	2583.0	2569.0	2569.0	2616.0	2616.0	2616.0	2588.0	2588.0	2588.0	2588.0	2588.0	2608.0	2608.0	2614.0	2614.0	2614.0	2585.0	2585.0	2565.0	2565.0	2565.0	2608.0	2608.0	2590.0	2590.0	2590.0	2563.0	2563.0	2557.0	2557.0	2557.0	2596.0	2596.0	2559.0	2559.0	2559.0	2551.0	2551.0	2553.0	2553.0	2553.0	2545.0	2545.0	2565.0	2565.0	2565.0	2556.0	2556.0	2570.0	2570.0	2570.0	2562.0	2562.0	2525.0	2525.0	2525.0	2523.0	2523.0	2504.0	2504.0	2504.0	2539.0	2539.0	2554.0	2554.0	2554.0	2519.0	2519.0	2505.0	2505.0	2505.0	2490.0	2490.0	2509.0	2509.0	2509.0	2497.0	2497.0	2503.0	2503.0	2503.0	2496.0	2496.0	2463.0	2463.0	2463.0	2469.0	2469.0	2449.0	2449.0	2449.0	2425.0	2425.0	2408.0	2408.0	2408.0	2441.0	2441.0	2403.0	2403.0	2403.0	2382.0	2382.0	2373.0	2373.0	2373.0	2384.0	2384.0	2395.0	2395.0	2395.0	2342.0	2342.0	2334.0	2334.0	2334.0	2334.0	2334.0	2336.0	2336.0	2336.0	2307.0	2307.0	2327.0	2327.0	2327.0	2294.0	2294.0	2327.0	2327.0	2327.0	2295.0	2295.0	2247.0	2247.0	2247.0	2257.0	2257.0	2219.0	2219.0	2219.0	2263.0	2263.0	2251.0	2251.0	2251.0	2252.0	2252.0	2208.0	2208.0	2208.0	2208.0	2208.0	2233.0	2233.0	2233.0	2223.0	2223.0	2196.0	2196.0	2196.0	2184.0	2184.0	2184.0	2184.0	2184.0	2167.0	2167.0	2184.0	2184.0	2167.0	2167.0	2167.0	2135.0	2135.0	2174.0	2174.0	2174.0	2155.0	2155.0	2111.0	2111.0	2111.0	2139.0	2139.0	2145.0	2145.0	2145.0	2123.0	2123.0	2099.0	2099.0	2099.0	2094.0	2094.0	2128.0	2128.0	2128.0	2130.0	2130.0	2115.0	2115.0	2115.0	2115.0	2115.0	2067.0	2067.0	2067.0	2115.0	2115.0	2117.0	2117.0	2117.0	2056.0	2056.0	2110.0	2110.0	2110.0	2055.0	2055.0	2079.0	2079.0	2079.0	2091.0	2091.0	2058.0	2058.0	2058.0	2037.0	2037.0	2057.0	2057.0	2057.0	2021.0	2021.0	2056.0	2056.0	2056.0	2068.0	2068.0	2069.0	2069.0	2069.0	2048.0	2048.0	2064.0	2064.0	2064.0	2062.0	2062.0	1999.0	1999.0	1999.0	2035.0	2035.0	2017.0	2017.0	2017.0	2003.0	2003.0	2002.0	2002.0	2002.0	1996.0	1996.0	1995.0	1995.0	1995.0	2002.0	2002.0	2006.0	2006.0	2006.0	1982.0	1982.0	1967.0	1967.0	1967.0	1950.0	1950.0	1952.0	1952.0	1952.0	1969.0	1969.0	1943.0	1943.0	1943.0	1977.0	1977.0	2003.0	2003.0	2003.0	1972.0	1972.0	1932.0	1932.0	1932.0	1947.0	1947.0	1937.0	1937.0	1937.0	1912.0	1912.0	1935.0	1935.0	1935.0	1962.0	1962.0	1937.0	1937.0	1937.0	1953.0	1953.0	1947.0	1947.0	1947.0	1922.0	1922.0	1939.0	1939.0	1939.0	1912.0	1912.0	1875.0	1875.0	1875.0	1918.0	1918.0	1874.0	1874.0	1874.0	1913.0	1913.0	1895.0	1895.0	1895.0	1877.0	1877.0	1909.0	1909.0	1909.0	1873.0	1873.0	1899.0	1899.0	1899.0	1915.0	1915.0	1873.0	1873.0	1873.0	1875.0	1875.0	1899.0	1899.0	1899.0	1880.0	1880.0	1842.0	1842.0	1842.0	1875.0	1875.0	1874.0	1874.0	1874.0	1873.0	1873.0	1816.0	1816.0	1830.0	1830.0	1830.0	1812.0	1812.0	1846.0	1846.0	1846.0	1807.0	1807.0	1852.0	1852.0	1852.0	1849.0	1849.0	1781.0	1781.0	1781.0	1791.0	1791.0	1821.0	1821.0	1821.0	1833.0	1833.0	1779.0	1779.0	1779.0	1784.0	1784.0	1804.0	1804.0	1804.0	1823.0	1823.0	1780.0	1780.0	1780.0	1820.0	1820.0	1819.0	1819.0	1819.0	1796.0	1796.0	1751.0	1751.0	1751.0	1792.0	1792.0	1773.0	1773.0	1773.0	1799.0	1799.0	1779.0	1779.0	1779.0	1787.0	1787.0	1786.0	1786.0	1786.0	1772.0	1772.0	1732.0	1732.0	1732.0	1718.0	1718.0	1752.0	1752.0	1752.0	1722.0	1722.0	1724.0	1724.0	1724.0	1727.0	1727.0	1720.0	1720.0	1720.0	1743.0	1743.0	1772.0	1772.0	1772.0	1709.0	1709.0	1707.0	1707.0	1707.0	1711.0	1711.0	1707.0	1707.0	1707.0	1711.0	1711.0	1693.0	1693.0	1693.0	1721.0	1721.0	1710.0	1710.0	1710.0	1733.0	1733.0	1704.0	1704.0	1704.0	1734.0	1734.0	1753.0	1753.0	1753.0	1702.0	1702.0	1740.0	1740.0	1740.0	1735.0	1735.0	1721.0	1721.0	1721.0	1685.0	1685.0	1688.0	1688.0	1688.0	1711.0	1711.0	1718.0	1718.0	1718.0	1733.0	1733.0	1690.0	1690.0	1690.0	1671.0	1671.0	1692.0	1692.0	1692.0	1679.0	1679.0	1683.0	1683.0	1683.0	1681.0	1681.0	1703.0	1703.0	1703.0	1718.0	1718.0	1677.0	1677.0	1677.0	1668.0	1668.0	1732.0	1732.0	1732.0	1705.0	1705.0	1711.0	1711.0	1711.0	1700.0	1700.0	1706.0	1706.0	1706.0	1669.0	1669.0	1705.0	1705.0	1705.0	1700.0	1700.0	1707.0	1707.0	1707.0	1658.0	1658.0	1649.0	1649.0	1649.0	1661.0	1661.0	1704.0	1704.0	1704.0	1667.0	1667.0	1683.0	1683.0	1683.0	1694.0	1694.0	1703.0	1703.0	1643.0	1643.0	1643.0	1667.0	1667.0	1647.0	1647.0	1647.0	1682.0	1682.0	1687.0	1687.0	1687.0	1659.0	1659.0	1696.0	1696.0	1696.0	1662.0	1662.0	1646.0	1646.0	1646.0	1646.0	1646.0	1658.0	1658.0	1658.0	1667.0	1667.0	1648.0	1648.0	1648.0	1667.0	1667.0	1661.0	1661.0	1661.0	1686.0	1686.0	1697.0	1697.0	1697.0	1702.0	1702.0	1682.0	1682.0	1682.0	1629.0	1629.0	1674.0	1674.0	1674.0	1675.0	1675.0	1695.0	1695.0	1695.0	1695.0	1695.0	1660.0	1660.0	1660.0	1655.0	1655.0	1655.0	1655.0	1655.0	1718.0	1718.0	1714.0	1714.0	1714.0	1678.0	1678.0	