1915.0	1915.0	1915.0	1932.0	1932.0	1887.0	1887.0	1887.0	1892.0	1892.0	1890.0	1890.0	1890.0	1892.0	1892.0	1883.0	1883.0	1883.0	1912.0	1912.0	1894.0	1894.0	1894.0	1890.0	1890.0	1878.0	1878.0	1878.0	1883.0	1883.0	1859.0	1859.0	1859.0	1857.0	1857.0	1866.0	1866.0	1866.0	1862.0	1862.0	1862.0	1862.0	1862.0	1833.0	1833.0	1840.0	1840.0	1840.0	1858.0	1858.0	1860.0	1860.0	1860.0	1876.0	1876.0	1852.0	1852.0	1852.0	1837.0	1837.0	1865.0	1865.0	1865.0	1819.0	1819.0	1858.0	1858.0	1858.0	1871.0	1871.0	1807.0	1807.0	1807.0	1852.0	1852.0	1823.0	1823.0	1823.0	1807.0	1807.0	1818.0	1818.0	1818.0	1824.0	1824.0	1815.0	1815.0	1815.0	1808.0	1808.0	1822.0	1822.0	1822.0	1807.0	1807.0	1830.0	1830.0	1830.0	1786.0	1786.0	1791.0	1791.0	1791.0	1813.0	1813.0	1814.0	1814.0	1814.0	1777.0	1777.0	1811.0	1811.0	1811.0	1767.0	1767.0	1815.0	1815.0	1815.0	1773.0	1773.0	1797.0	1797.0	1797.0	1787.0	1787.0	1770.0	1770.0	1770.0	1787.0	1787.0	1816.0	1816.0	1816.0	1763.0	1763.0	1790.0	1790.0	1790.0	1807.0	1807.0	1793.0	1793.0	1793.0	1756.0	1756.0	1781.0	1781.0	1781.0	1747.0	1747.0	1798.0	1798.0	1798.0	1759.0	1759.0	1763.0	1763.0	1763.0	1765.0	1765.0	1772.0	1772.0	1772.0	1807.0	1807.0	1785.0	1785.0	1785.0	1745.0	1745.0	1762.0	1762.0	1762.0	1739.0	1739.0	1737.0	1737.0	1737.0	1765.0	1765.0	1769.0	1769.0	1769.0	1744.0	1744.0	1779.0	1779.0	1779.0	1734.0	1734.0	1754.0	1754.0	1754.0	1732.0	1732.0	1732.0	1732.0	1732.0	1721.0	1721.0	1782.0	1782.0	1733.0	1733.0	1733.0	1759.0	1759.0	1758.0	1758.0	1758.0	1728.0	1728.0	1742.0	1742.0	1742.0	1756.0	1756.0	1747.0	1747.0	1747.0	1729.0	1729.0	1752.0	1752.0	1752.0	1744.0	1744.0	1732.0	1732.0	1732.0	1740.0	1740.0	1764.0	1764.0	1764.0	1761.0	1761.0	1762.0	1762.0	1762.0	1756.0	1756.0	1734.0	1734.0	1734.0	1737.0	1737.0	1724.0	1724.0	1724.0	1718.0	1718.0	1771.0	1771.0	1771.0	1751.0	1751.0	1710.0	1710.0	1710.0	1746.0	1746.0	1717.0	1717.0	1717.0	1706.0	1706.0	1738.0	1738.0	1738.0	1715.0	1715.0	1712.0	1712.0	1712.0	1750.0	1750.0	1727.0	1727.0	1727.0	1727.0	1727.0	1706.0	1706.0	1706.0	1745.0	1745.0	1702.0	1702.0	1702.0	1731.0	1731.0	1693.0	1693.0	1693.0	1698.0	1698.0	1717.0	1717.0	1717.0	1736.0	1736.0	1735.0	1735.0	1735.0	1702.0	1702.0	1708.0	1708.0	1708.0	1703.0	1703.0	1697.0	1697.0	1697.0	1717.0	1717.0	1685.0	1685.0	1685.0	1721.0	1721.0	1724.0	1724.0	1724.0	1707.0	1707.0	1690.0	1690.0	1690.0	1695.0	1695.0	1698.0	1698.0	1698.0	1720.0	1720.0	1728.0	1728.0	1728.0	1706.0	1706.0	1732.0	1732.0	1732.0	1715.0	1715.0	1706.0	1706.0	1706.0	1730.0	1730.0	1687.0	1687.0	1687.0	1703.0	1703.0	1699.0	1699.0	1699.0	1710.0	1710.0	1670.0	1670.0	1670.0	1708.0	1708.0	1683.0	1683.0	1683.0	1726.0	1726.0	1682.0	1682.0	1682.0	1672.0	1672.0	1729.0	1729.0	1729.0	1695.0	1695.0	1678.0	1678.0	1678.0	1709.0	1709.0	1695.0	1695.0	1695.0	1680.0	1680.0	1708.0	1708.0	1708.0	1694.0	1694.0	1716.0	1716.0	1716.0	1718.0	1718.0	1670.0	1670.0	1686.0	1686.0	1686.0	1703.0	1703.0	1688.0	1688.0	1688.0	1714.0	1714.0	1699.0	1699.0	1699.0	1719.0	1719.0	1712.0	1712.0	1712.0	1689.0	1689.0	1744.0	1744.0	1744.0	1730.0	1730.0	1709.0	1709.0	1709.0	1774.0	1774.0	1749.0	1749.0	1749.0	1781.0	1781.0	1756.0	1756.0	1756.0	1796.0	1796.0	1812.0	1812.0	1812.0	1826.0	1826.0	1883.0	1883.0	1883.0	1906.0	1906.0	1892.0	1892.0	1892.0	1952.0	1952.0	1952.0	1952.0	1952.0	1974.0	1974.0	1961.0	1961.0	1961.0	2035.0	2035.0	2053.0	2053.0	2053.0	2059.0	2059.0	2090.0	2090.0	2090.0	2059.0	2059.0	2064.0	2064.0	2064.0	2079.0	2079.0	2136.0	2136.0	2136.0	2156.0	2156.0	2160.0	2160.0	2160.0	2196.0	2196.0	2157.0	2157.0	2157.0	2216.0	2216.0	2176.0	2176.0	2176.0	2225.0	2225.0	2239.0	2239.0	2239.0	2225.0	2225.0	2263.0	2263.0	2263.0	2267.0	2267.0	2250.0	2250.0	2250.0	2259.0	2259.0	2254.0	2254.0	2254.0	2260.0	2260.0	2264.0	2264.0	2264.0	2256.0	2256.0	2290.0	2290.0	2290.0	2259.0	2259.0	2274.0	2274.0	2274.0	2293.0	2293.0	2298.0	2298.0	2298.0	2276.0	2276.0	2279.0	2279.0	2279.0	2315.0	2315.0	2303.0	2303.0	2303.0	2306.0	2306.0	2300.0	2300.0	2300.0	2317.0	2317.0	2319.0	2319.0	2319.0	2311.0	2311.0	2339.0	2339.0	2339.0	2311.0	2311.0	2371.0	2371.0	2371.0	2338.0	2338.0	2359.0	2359.0	2359.0	2355.0	2355.0	2357.0	2357.0	2357.0	2364.0	2364.0	2366.0	2366.0	2366.0	2347.0	2347.0	2351.0	2351.0	2351.0	2361.0	2361.0	2365.0	2365.0	2365.0	2357.0	2357.0	2379.0	2379.0	2379.0	2372.0	2372.0	2391.0	2391.0	2379.0	2379.0	2379.0	2409.0	2409.0	2396.0	2396.0	2396.0	2385.0	2385.0	2380.0	2380.0	2380.0	2384.0	2384.0	2389.0	2389.0	2389.0	2404.0	2404.0	2414.0	2414.0	2414.0	2390.0	2390.0	2377.0	2377.0	2377.0	2411.0	2411.0	2398.0	2398.0	2398.0	2384.0	2384.0	2398.0	2398.0	2398.0	2422.0	2422.0	2396.0	2396.0	2396.0	2395.0	2395.0	2395.0	2395.0	2395.0	2421.0	2421.0	2421.0	2421.0	2421.0	2414.0	2414.0	2406.0	2406.0	2406.0	2368.0	2368.0	2400.0	2400.0	2400.0	2409.0	2409.0	2366.0	2366.0	2366.0	2378.0	2378.0	2366.0	2366.0	2366.0	2379.0	2379.0	2343.0	2343.0	2343.0	2390.0	2390.0	2335.0	2335.0	2335.0	2366.0	2366.0	2346.0	2346.0	2346.0	2315.0	2315.0	2312.0	2312.0	2312.0	2288.0	2288.0	2315.0	2315.0	2315.0	2277.0	2277.0	2280.0	2280.0	2280.0	2260.0	2260.0	2263.0	2263.0	2263.0	2282.0	2282.0	2275.0	2275.0	2275.0	2251.0	2251.0	2225.0	2225.0	2225.0	2252.0	2252.0	2214.0	2214.0	2214.0	2191.0	2191.0	2205.0	2205.0	2205.0	2209.0	2209.0	2201.0	2201.0	2201.0	2173.0	2173.0	2197.0	2197.0	2197.0	2147.0	2147.0	2205.0	2205.0	2205.0	2172.0	2172.0	2180.0	2180.0	2180.0	2186.0	2186.0	2176.0	2176.0	2176.0	2169.0	2169.0	2146.0	2146.0	2146.0	2142.0	2142.0	2123.0	2123.0	2123.0	2119.0	2119.0	2126.0	2126.0	2126.0	2123.0	2123.0	2156.0	2156.0	2156.0	2125.0	2125.0	2106.0	2106.0	2106.0	2101.0	2101.0	2134.0	2134.0	2134.0	2102.0	2102.0	2147.0	2147.0	2147.0	2108.0	2108.0	2112.0	2112.0	2112.0	2096.0	2096.0	2116.0	2116.0	2116.0	2097.0	2097.0	2078.0	2078.0	2078.0	2078.0	2078.0	2068.0	2068.0	2076.0	2076.0	2076.0	2070.0	2070.0	2053.0	2053.0	2053.0	2119.0	2119.0	2092.0	2092.0	2092.0	2086.0	2086.0	2066.0	2066.0	2066.0	2053.0	2053.0	2043.0	2043.0	2043.0	2043.0	2043.0	2038.0	2038.0	2038.0	2031.0	2031.0	2026.0	2026.0	2026.0	2080.0	2080.0	2016.0	2016.0	2016.0	2006.0	2006.0	2038.0	2038.0	2038.0	2054.0	2054.0	2031.0	2031.0	2031.0	2018.0	2018.0	2018.0	2018.0	2018.0	2039.0	2039.0	2026.0	2026.0	2026.0	1996.0	1996.0	2018.0	2018.0	2018.0	2011.0	2011.0	1986.0	1986.0	1986.0	1969.0	1969.0	1988.0	1988.0	1988.0	1954.0	1954.0	1964.0	1964.0	1964.0	1970.0	1970.0	1967.0	1967.0	1967.0	1981.0	1981.0	1942.0	1942.0	1942.0	1968.0	1968.0	1940.0	1940.0	1940.0	1947.0	1947.0	1954.0	1954.0	1954.0	1953.0	1953.0	1948.0	1948.0	1948.0	1916.0	1916.0	1922.0	1922.0	1922.0	1918.0	1918.0	1942.0	1942.0	1942.0	1909.0	1909.0	1944.0	1944.0	1944.0	1900.0	1900.0	1890.0	1890.0	1890.0	1939.0	1939.0	1894.0	1894.0	1894.0	1887.0	1887.0	1928.0	1928.0	1928.0	1865.0	1865.0	1906.0	1906.0	1906.0	1911.0	1911.0	1876.0	1876.0	1876.0	1894.0	1894.0	1872.0	1872.0	1872.0	1908.0	1908.0	1865.0	1865.0	1865.0	1898.0	1898.0	1873.0	1873.0	1873.0	1859.0	1859.0	1895.0	1895.0	1895.0	1864.0	1864.0	1884.0	1884.0	1884.0	1870.0	1870.0	1844.0	1844.0	1844.0	1859.0	1859.0	1859.0	1859.0	1859.0	1823.0	1823.0	1818.0	1818.0	1818.0	1868.0	1868.0	1856.0	1856.0	1856.0	1825.0	1825.0	1825.0	1825.0	1825.0	1863.0	1863.0	1803.0	1803.0	1803.0	1811.0	1811.0	1832.0	1832.0	1792.0	1792.0	1792.0	1801.0	1801.0	1807.0	1807.0	1807.0	1804.0	1804.0	1840.0	1840.0	1840.0	1786.0	1786.0	1782.0	1782.0	1782.0	1802.0	1802.0	1777.0	1777.0	1777.0	1784.0	1784.0	1774.0	1774.0	1774.0	1809.0	1809.0	1777.0	1777.0	1777.0	1788.0	1788.0	1801.0	1801.0	1801.0	1810.0	1810.0	1807.0	1807.0	1807.0	1806.0	1806.0	1748.0	1748.0	1748.0	1766.0	1766.0	1784.0	1784.0	1784.0	1748.0	1748.0	1780.0	1780.0	1780.0	1775.0	1775.0	1748.0	1748.0	1748.0	1740.0	1740.0	1745.0	1745.0	1745.0	1751.0	1751.0	1746.0	1746.0	1746.0	1781.0	1781.0	1765.0	1765.0	1765.0	1779.0	1779.0	1743.0	1743.0	1743.0	1734.0	1734.0	1769.0	1769.0	1769.0	1776.0	1776.0	1755.0	1755.0	1755.0	1743.0	1743.0	1772.0	1772.0	1772.0	1760.0	1760.0	1739.0	1739.0	1739.0	1731.0	1731.0	1742.0	1742.0	1742.0	1711.0	1711.0	1745.0	1745.0	1745.0	1736.0	1736.0	1755.0	1755.0	1755.0	1712.0	1712.0	1690.0	1690.0	1690.0	1713.0	1713.0	1742.0	1742.0	1742.0	1701.0	1701.0	1702.0	1702.0	1702.0	1755.0	1755.0	1701.0	1701.0	1701.0	1710.0	1710.0	1738.0	1738.0	1738.0	1719.0	1719.0	1690.0	1690.0	1690.0	1710.0	1710.0	1689.0	1689.0	1689.0	1706.0	1706.0	1696.0	1696.0	1696.0	1715.0	1715.0	1700.0	1700.0	1700.0	1725.0	1725.0	1678.0	1678.0	1678.0	1726.0	1726.0	1722.0	1722.0	1722.0	1678.0	1678.0	1683.0	1683.0	1683.0	1723.0	1723.0	1713.0	1713.0	1713.0	1718.0	1718.0	1679.0	1679.0	1679.0	1676.0	1676.0	1718.0	1718.0	1718.0	1668.0	1668.0	1694.0	1694.0	1694.0	1692.0	1692.0	1674.0	1674.0	1674.0	1701.0	1701.0	1664.0	1664.0	1711.0	1711.0	1711.0	1677.0	1677.0	1693.0	1693.0	1693.0	1668.0	1668.0	1657.0	1657.0	1657.0	1680.0	1680.0	1718.0	1718.0	1718.0	1687.0	1687.0	1668.0	1668.0	1668.0	1680.0	1680.0	1669.0	1669.0	1669.0	1674.0	1674.0	1691.0	1691.0	1691.0	1673.0	1673.0	1686.0	1686.0	1686.0	1704.0	1704.0	1676.0	1676.0	1676.0	1665.0	1665.0	1660.0	1660.0	1660.0	1649.0	1649.0	1650.0	1650.0	1650.0	1645.0	1645.0	1681.0	1681.0	1681.0	1698.0	1698.0	1649.0	1649.0	1649.0	1692.0	1692.0	1659.0	1659.0	1659.0	1641.0	1641.0	1652.0	1652.0	1652.0	1663.0	1663.0	1677.0	1677.0	1677.0	1657.0	1657.0	1668.0	1668.0	1668.0	1670.0	1670.0	1643.0	1643.0	1643.0	1666.0	1666.0	1648.0	1648.0	1648.0	1662.0	1662.0	1663.0	1663.0	1663.0	1701.0	1701.0	1695.0	1695.0	1695.0	1635.0	1635.0	1661.0	1661.0	1661.0	1687.0	1687.0	1664.0	1664.0	1664.0	1645.0	1645.0	1701.0	1701.0	1701.0	1638.0	1638.0	1643.0	1643.0	1643.0	1692.0	1692.0	1664.0	1664.0	1664.0	1643.0	1643.0	1676.0	1676.0	1676.0	1657.0	1657.0	1643.0	1643.0	1643.0	1654.0	1654.0	1683.0	1683.0	1683.0	1673.0	1673.0	1651.0	1651.0	1651.0	1634.0	1634.0	1672.0	1672.0	1672.0	1651.0	1651.0	1636.0	1636.0	1636.0	1651.0	1651.0	1652.0	1652.0	1652.0	1660.0	1660.0	1676.0	1676.0	1676.0	1693.0	1693.0	1650.0	1650.0	1650.0	1662.0	1662.0	1680.0	1680.0	1680.0	1674.0	1674.0	1654.0	1654.0	1654.0	1653.0	1653.0	1655.0	1655.0	1655.0	1681.0	1681.0	1662.0	1662.0	1662.0	1645.0	1645.0	1634.0	1634.0	1634.0	1629.0	1629.0	1637.0	1637.0	1629.0	1629.0	1629.0	1668.0	1668.0	1636.0	1636.0	1636.0	1656.0	1656.0	1661.0	1661.0	1661.0	1636.0	1636.0	1672.0	1672.0	1672.0	1675.0	1675.0	1632.0	1632.0	1632.0	1685.0	1685.0	1677.0	1677.0	1677.0	1658.0	1658.0	1623.0	1623.0	1623.0	1654.0	1654.0	1669.0	1669.0	1669.0	1660.0	1660.0	1714.0	1714.0	1714.0	1681.0	1681.0	1672.0	1672.0	1672.0	1723.0	1723.0	1716.0	1716.0	1716.0	1758.0	1758.0	1739.0	1739.0	1739.0	1769.0	1769.0	1773.0	1773.0	1773.0	1800.0	1800.0	1819.0	1819.0	1819.0	1824.0	1824.0	1871.0	1871.0	1871.0	1881.0	1881.0	1890.0	1890.0	1890.0	1911.0	1911.0	1927.0	1927.0	1927.0	1944.0	1944.0	1959.0	1959.0	1959.0	1984.0	1984.0	2031.0	2031.0	2031.0	2031.0	2031.0	2058.0	2058.0	2058.0	2081.0	2081.0	2120.0	2120.0	2120.0	2124.0	2124.0	2099.0	2099.0	2099.0	2118.0	2118.0	2156.0	2156.0	2156.0	2146.0	2146.0	2185.0	2185.0	2185.0	2177.0	2177.0	2201.0	2201.0	2201.0	2223.0	2223.0	2219.0	2219.0	2219.0	2254.0	2254.0	2236.0	2236.0	2236.0	2227.0	2227.0	2237.0	2237.0	2237.0	2254.0	2254.0	2259.0	2259.0	2259.0	2249.0	2249.0	2290.0	2290.0	2290.0	2252.0	2252.0	2291.0	2291.0	2291.0	2272.0	2272.0	2288.0	2288.0	2288.0	2308.0	2308.0	2279.0	2279.0	2279.0	2301.0	2301.0	2333.0	2333.0	2333.0	2303.0	2303.0	2299.0	2299.0	2299.0	2302.0	2302.0	2319.0	2319.0	2319.0	2353.0	2353.0	2345.0	2345.0	2345.0	2299.0	2299.0	2324.0	2324.0	2324.0	2358.0	2358.0	2337.0	2337.0	2337.0	2338.0	2338.0	2368.0	2368.0	2368.0	2363.0	2363.0	2362.0	2362.0	2371.0	2371.0	2371.0	2376.0	2376.0	2390.0	2390.0	2390.0	2345.0	2345.0	2396.0	2396.0	2396.0	2370.0	2370.0	2406.0	2406.0	2406.0	2407.0	2407.0	2385.0	2385.0	2385.0	2383.0	2383.0	2374.0	2374.0	2374.0	2394.0	2394.0	2375.0	2375.0	2375.0	2411.0	2411.0	2435.0	2435.0	2435.0	2388.0	2388.0	2394.0	2394.0	2394.0	2407.0	2407.0	2407.0	2407.0	2407.0	2401.0	2401.0	2408.0	2408.0	2408.0	2404.0	2404.0	2416.0	2416.0	2416.0	2412.0	2412.0	2419.0	2419.0	2419.0	2401.0	2401.0	2406.0	2406.0	2406.0	2441.0	2441.0	2444.0	2444.0	2444.0	2396.0	2396.0	2415.0	2415.0	2415.0	2420.0	2420.0	2419.0	2419.0	2419.0	2406.0	2406.0	2391.0	2391.0	2391.0	2420.0	2420.0	2372.0	2372.0	2372.0	2362.0	2362.0	2366.0	2366.0	2366.0	2369.0	2369.0	2378.0	2378.0	2378.0	2383.0	2383.0	2381.0	2381.0	2381.0	2356.0	2356.0	2356.0	2356.0	2356.0	2349.0	2349.0	2316.0	2316.0	2316.0	2320.0	2320.0	2311.0	2311.0	2311.0	2335.0	2335.0	2303.0	2303.0	2303.0	2311.0	2311.0	2308.0	2308.0	2308.0	2285.0	2285.0	2276.0	2276.0	2276.0	2256.0	2256.0	2278.0	2278.0	2278.0	2283.0	2283.0	2255.0	2255.0	2255.0	2254.0	2254.0	2245.0	2245.0	2245.0	2213.0	2213.0	2251.0	2251.0	2251.0	2226.0	2226.0	2184.0	2184.0	2184.0	2200.0	2200.0	2183.0	2183.0	2183.0	2208.0	2208.0	2232.0	2232.0	2232.0	2218.0	2218.0	2188.0	2188.0	2188.0	2179.0	2179.0	2173.0	2173.0	2173.0	2156.0	2156.0	2165.0	2165.0	2165.0	2152.0	2152.0	2203.0	2203.0	2203.0	2202.0	2202.0	2176.0	2176.0	2176.0	2194.0	2194.0	2144.0	2144.0	2144.0	2163.0	2163.0	2148.0	2148.0	2177.0	2177.0	2177.0	2132.0	2132.0	2164.0	2164.0	2164.0	2160.0	2160.0	2136.0	2136.0	2136.0	2166.0	2166.0	2158.0	2158.0	2158.0	2127.0	2127.0	2153.0	2153.0	2153.0	2159.0	2159.0	2107.0	2107.0	2107.0	2120.0	2120.0	2095.0	2095.0	2095.0	2104.0	2104.0	2089.0	2089.0	2089.0	2135.0	2135.0	2090.0	2090.0	2090.0	2085.0	2085.0	2108.0	2108.0	2108.0	2096.0	2096.0	2098.0	2098.0	2098.0	2091.0	2091.0	2116.0	2116.0	2116.0	2062.0	2062.0	2065.0	2065.0	2065.0	2070.0	2070.0	2099.0	2099.0	2099.0	2063.0	2063.0	2045.0	2045.0	2045.0	2068.0	2068.0	2058.0	2058.0	2058.0	2049.0	2049.0	2026.0	2026.0	2026.0	2045.0	2045.0	2015.0	2015.0	2015.0	2048.0	2048.0	2034.0	2034.0	2034.0	2031.0	2031.0	1996.0	1996.0	1996.0	1992.0	1992.0	2027.0	2027.0	2027.0	1985.0	1985.0	2001.0	2001.0	2001.0	2033.0	2033.0	1991.0	1991.0	1991.0	1979.0	1979.0	1996.0	1996.0	1996.0	1971.0	1971.0	1981.0	1981.0	1981.0	1962.0	1962.0	1956.0	1956.0	1956.0	1969.0	1969.0	1951.0	1951.0	1951.0	1946.0	1946.0	1956.0	1956.0	1956.0	1961.0	1961.0	1959.0	1959.0	1959.0	1954.0	1954.0	1954.0	1954.0	1954.0	1923.0	1923.0	1909.0	1909.0	1909.0	1958.0	1958.0	1956.0	1956.0	1956.0	1897.0	1897.0	1897.0	1897.0	1897.0	1902.0	1902.0	1937.0	1937.0	1937.0	1912.0	1912.0	1936.0	1936.0	1936.0	1893.0	1893.0	1920.0	1920.0	1920.0	1926.0	1926.0	1924.0	1924.0	1924.0	1909.0	1909.0	1894.0	1894.0	1894.0	1913.0	1913.0	1864.0	1864.0	1864.0	1872.0	1872.0	1865.0	1865.0	1865.0	1878.0	1878.0	1851.0	1851.0	1850.0	1850.0	1850.0	1892.0	1892.0	1875.0	1875.0	1875.0	1851.0	1851.0	1871.0	1871.0	1871.0	1845.0	1845.0	1844.0	1844.0	1844.0	1883.0	1883.0	1865.0	1865.0	1865.0	1847.0	1847.0	1836.0	1836.0	1836.0	1871.0	1871.0	1860.0	1860.0	1860.0	1822.0	1822.0	1832.0	1832.0	1832.0	1820.0	1820.0	1840.0	1840.0	1840.0	1816.0	1816.0	1826.0	1826.0	1826.0	1853.0	1853.0	1800.0	1800.0	1800.0	1803.0	1803.0	1833.0	1833.0	1833.0	1855.0	1855.0	1834.0	1834.0	1834.0	1798.0	1798.0	