2478.0	2478.0	2490.0	2490.0	2512.0	2512.0	2512.0	2488.0	2488.0	2491.0	2491.0	2491.0	2480.0	2480.0	2492.0	2492.0	2492.0	2490.0	2490.0	2476.0	2476.0	2476.0	2493.0	2493.0	2446.0	2446.0	2446.0	2478.0	2478.0	2434.0	2434.0	2434.0	2452.0	2452.0	2409.0	2409.0	2409.0	2452.0	2452.0	2428.0	2428.0	2428.0	2411.0	2411.0	2388.0	2388.0	2388.0	2405.0	2405.0	2411.0	2411.0	2411.0	2363.0	2363.0	2365.0	2365.0	2365.0	2345.0	2345.0	2368.0	2368.0	2368.0	2371.0	2371.0	2352.0	2352.0	2352.0	2338.0	2338.0	2314.0	2314.0	2314.0	2318.0	2318.0	2331.0	2331.0	2331.0	2299.0	2299.0	2282.0	2282.0	2282.0	2304.0	2304.0	2282.0	2282.0	2282.0	2274.0	2274.0	2301.0	2301.0	2301.0	2272.0	2272.0	2249.0	2249.0	2249.0	2266.0	2266.0	2289.0	2289.0	2289.0	2261.0	2261.0	2242.0	2242.0	2242.0	2220.0	2220.0	2249.0	2249.0	2249.0	2241.0	2241.0	2208.0	2208.0	2208.0	2238.0	2238.0	2216.0	2216.0	2216.0	2209.0	2209.0	2254.0	2254.0	2254.0	2220.0	2220.0	2241.0	2241.0	2241.0	2227.0	2227.0	2214.0	2214.0	2214.0	2188.0	2188.0	2222.0	2222.0	2222.0	2216.0	2216.0	2212.0	2212.0	2212.0	2210.0	2210.0	2196.0	2196.0	2196.0	2208.0	2208.0	2167.0	2167.0	2167.0	2218.0	2218.0	2191.0	2191.0	2191.0	2186.0	2186.0	2165.0	2165.0	2165.0	2203.0	2203.0	2188.0	2188.0	2148.0	2148.0	2148.0	2184.0	2184.0	2158.0	2158.0	2158.0	2147.0	2147.0	2172.0	2172.0	2172.0	2132.0	2132.0	2144.0	2144.0	2144.0	2164.0	2164.0	2159.0	2159.0	2159.0	2161.0	2161.0	2121.0	2121.0	2121.0	2102.0	2102.0	2126.0	2126.0	2126.0	2133.0	2133.0	2116.0	2116.0	2116.0	2095.0	2095.0	2109.0	2109.0	2109.0	2079.0	2079.0	2078.0	2078.0	2078.0	2096.0	2096.0	2093.0	2093.0	2093.0	2068.0	2068.0	2091.0	2091.0	2091.0	2077.0	2077.0	2043.0	2043.0	2043.0	2032.0	2032.0	2077.0	2077.0	2077.0	2091.0	2091.0	2066.0	2066.0	2066.0	2038.0	2038.0	2064.0	2064.0	2064.0	2051.0	2051.0	2014.0	2014.0	2014.0	2022.0	2022.0	2047.0	2047.0	2047.0	2004.0	2004.0	2001.0	2001.0	2001.0	2036.0	2036.0	2044.0	2044.0	2044.0	1984.0	1984.0	2026.0	2026.0	2026.0	2035.0	2035.0	2015.0	2015.0	2015.0	2012.0	2012.0	1986.0	1986.0	1986.0	1976.0	1976.0	1965.0	1965.0	1965.0	1994.0	1994.0	1966.0	1966.0	1966.0	1983.0	1983.0	1961.0	1961.0	1961.0	1963.0	1963.0	1950.0	1950.0	1950.0	1950.0	1950.0	1951.0	1951.0	1951.0	1950.0	1950.0	1947.0	1947.0	1947.0	1972.0	1972.0	1959.0	1959.0	1959.0	1928.0	1928.0	1937.0	1937.0	1937.0	1952.0	1952.0	1932.0	1932.0	1932.0	1945.0	1945.0	1938.0	1938.0	1938.0	1906.0	1906.0	1951.0	1951.0	1951.0	1909.0	1909.0	1903.0	1903.0	1903.0	1950.0	1950.0	1893.0	1893.0	1893.0	1913.0	1913.0	1877.0	1877.0	1877.0	1878.0	1878.0	1871.0	1871.0	1871.0	1867.0	1867.0	1895.0	1895.0	1895.0	1903.0	1903.0	1874.0	1874.0	1874.0	1863.0	1863.0	1891.0	1891.0	1900.0	1900.0	1900.0	1902.0	1902.0	1884.0	1884.0	1884.0	1899.0	1899.0	1860.0	1860.0	1860.0	1869.0	1869.0	1849.0	1849.0	1849.0	1896.0	1896.0	1845.0	1845.0	1845.0	1861.0	1861.0	1866.0	1866.0	1866.0	1827.0	1827.0	1842.0	1842.0	1842.0	1853.0	1853.0	1823.0	1823.0	1823.0	1877.0	1877.0	1817.0	1817.0	1817.0	1862.0	1862.0	1862.0	1862.0	1862.0	1833.0	1833.0	1821.0	1821.0	1821.0	1830.0	1830.0	1816.0	1816.0	1816.0	1817.0	1817.0	1820.0	1820.0	1820.0	1849.0	1849.0	1804.0	1804.0	1804.0	1799.0	1799.0	1818.0	1818.0	1818.0	1803.0	1803.0	1815.0	1815.0	1815.0	1822.0	1822.0	1830.0	1830.0	1830.0	1817.0	1817.0	1844.0	1844.0	1844.0	1827.0	1827.0	1830.0	1830.0	1830.0	1794.0	1794.0	1786.0	1786.0	1786.0	1815.0	1815.0	1827.0	1827.0	1827.0	1814.0	1814.0	1815.0	1815.0	1815.0	1776.0	1776.0	1795.0	1795.0	1795.0	1816.0	1816.0	1769.0	1769.0	1769.0	1807.0	1807.0	1811.0	1811.0	1811.0	1801.0	1801.0	1810.0	1810.0	1810.0	1769.0	1769.0	1775.0	1775.0	1775.0	1764.0	1764.0	1778.0	1778.0	1778.0	1789.0	1789.0	1775.0	1775.0	1775.0	1765.0	1765.0	1776.0	1776.0	1776.0	1755.0	1755.0	1752.0	1752.0	1752.0	1791.0	1791.0	1795.0	1795.0	1795.0	1787.0	1787.0	1784.0	1784.0	1784.0	1743.0	1743.0	1802.0	1802.0	1802.0	1792.0	1792.0	1787.0	1787.0	1787.0	1771.0	1771.0	1799.0	1799.0	1799.0	1786.0	1786.0	1754.0	1754.0	1754.0	1778.0	1778.0	1779.0	1779.0	1779.0	1752.0	1752.0	1762.0	1762.0	1762.0	1796.0	1796.0	1741.0	1741.0	1741.0	1737.0	1737.0	1766.0	1766.0	1766.0	1731.0	1731.0	1781.0	1781.0	1758.0	1758.0	1758.0	1738.0	1738.0	1723.0	1723.0	1723.0	1765.0	1765.0	1739.0	1739.0	1739.0	1768.0	1768.0	1751.0	1751.0	1751.0	1768.0	1768.0	1741.0	1741.0	1741.0	1770.0	1770.0	1788.0	1788.0	1788.0	1779.0	1779.0	1788.0	1788.0	1788.0	1763.0	1763.0	1772.0	1772.0	1772.0	1798.0	1798.0	1804.0	1804.0	1804.0	1834.0	1834.0	1859.0	1859.0	1859.0	1884.0	1884.0	1865.0	1865.0	1865.0	1891.0	1891.0	1922.0	1922.0	1922.0	1931.0	1931.0	1979.0	1979.0	1979.0	2006.0	2006.0	2038.0	2038.0	2038.0	2006.0	2006.0	2049.0	2049.0	2049.0	2096.0	2096.0	2075.0	2075.0	2075.0	2119.0	2119.0	2148.0	2148.0	2148.0	2147.0	2147.0	2152.0	2152.0	2152.0	2165.0	2165.0	2241.0	2241.0	2241.0	2212.0	2212.0	2250.0	2250.0	2250.0	2256.0	2256.0	2239.0	2239.0	2239.0	2285.0	2285.0	2268.0	2268.0	2268.0	2269.0	2269.0	2311.0	2311.0	2311.0	2302.0	2302.0	2288.0	2288.0	2288.0	2290.0	2290.0	2324.0	2324.0	2324.0	2329.0	2329.0	2315.0	2315.0	2315.0	2302.0	2302.0	2337.0	2337.0	2337.0	2331.0	2331.0	2333.0	2333.0	2333.0	2346.0	2346.0	2343.0	2343.0	2343.0	2362.0	2362.0	2367.0	2367.0	2367.0	2400.0	2400.0	2358.0	2358.0	2358.0	2375.0	2375.0	2361.0	2361.0	2361.0	2406.0	2406.0	2368.0	2368.0	2368.0	2411.0	2411.0	2373.0	2373.0	2373.0	2411.0	2411.0	2395.0	2395.0	2395.0	2398.0	2398.0	2390.0	2390.0	2390.0	2428.0	2428.0	2424.0	2424.0	2424.0	2447.0	2447.0	2424.0	2424.0	2424.0	2408.0	2408.0	2452.0	2452.0	2452.0	2449.0	2449.0	2449.0	2449.0	2449.0	2434.0	2434.0	2419.0	2419.0	2459.0	2459.0	2459.0	2467.0	2467.0	2442.0	2442.0	2442.0	2447.0	2447.0	2462.0	2462.0	2462.0	2438.0	2438.0	2431.0	2431.0	2431.0	2491.0	2491.0	2437.0	2437.0	2437.0	2430.0	2430.0	2481.0	2481.0	2481.0	2448.0	2448.0	2463.0	2463.0	2463.0	2482.0	2482.0	2489.0	2489.0	2489.0	2479.0	2479.0	2446.0	2446.0	2446.0	2445.0	2445.0	2444.0	2444.0	2444.0	2437.0	2437.0	2478.0	2478.0	2478.0	2466.0	2466.0	2461.0	2461.0	2461.0	2439.0	2439.0	2450.0	2450.0	2450.0	2437.0	2437.0	2441.0	2441.0	2441.0	2407.0	2407.0	2412.0	2412.0	2412.0	2416.0	2416.0	2410.0	2410.0	2410.0	2397.0	2397.0	2411.0	2411.0	2411.0	2402.0	2402.0	2415.0	2415.0	2415.0	2393.0	2393.0	2382.0	2382.0	2382.0	2361.0	2361.0	2387.0	2387.0	2387.0	2370.0	2370.0	2334.0	2334.0	2334.0	2325.0	2325.0	2350.0	2350.0	2350.0	2321.0	2321.0	2297.0	2297.0	2297.0	2310.0	2310.0	2298.0	2298.0	2298.0	2276.0	2276.0	2299.0	2299.0	2299.0	2294.0	2294.0	2251.0	2251.0	2251.0	2247.0	2247.0	2288.0	2288.0	2288.0	2263.0	2263.0	2211.0	2211.0	2211.0	2243.0	2243.0	2210.0	2210.0	2210.0	2212.0	2212.0	2194.0	2194.0	2194.0	2223.0	2223.0	2229.0	2229.0	2229.0	2171.0	2171.0	2199.0	2199.0	2199.0	2173.0	2173.0	2163.0	2163.0	2163.0	2206.0	2206.0	2189.0	2189.0	2189.0	2162.0	2162.0	2162.0	2162.0	2162.0	2174.0	2174.0	2196.0	2196.0	2196.0	2154.0	2154.0	2182.0	2182.0	2182.0	2157.0	2157.0	2175.0	2175.0	2175.0	2122.0	2122.0	2154.0	2154.0	2154.0	2151.0	2151.0	2138.0	2138.0	2138.0	2148.0	2148.0	2144.0	2144.0	2144.0	2105.0	2105.0	2158.0	2158.0	2107.0	2107.0	2107.0	2103.0	2103.0	2102.0	2102.0	2102.0	2122.0	2122.0	2112.0	2112.0	2112.0	2113.0	2113.0	2111.0	2111.0	2111.0	2124.0	2124.0	2098.0	2098.0	2098.0	2082.0	2082.0	2085.0	2085.0	2085.0	2053.0	2053.0	2050.0	2050.0	2050.0	2062.0	2062.0	2087.0	2087.0	2087.0	2084.0	2084.0	2068.0	2068.0	2068.0	2076.0	2076.0	2076.0	2076.0	2076.0	2026.0	2026.0	2017.0	2017.0	2017.0	2017.0	2017.0	2035.0	2035.0	2035.0	2040.0	2040.0	2030.0	2030.0	2030.0	2015.0	2015.0	2000.0	2000.0	2000.0	2015.0	2015.0	2015.0	2015.0	2015.0	2024.0	2024.0	2032.0	2032.0	2032.0	1973.0	1973.0	2019.0	2019.0	2019.0	2011.0	2011.0	1991.0	1991.0	1991.0	1998.0	1998.0	2003.0	2003.0	2003.0	1954.0	1954.0	1945.0	1945.0	1945.0	2001.0	2001.0	1964.0	1964.0	1964.0	1946.0	1946.0	1960.0	1960.0	1960.0	1990.0	1990.0	1977.0	1977.0	1977.0	1949.0	1949.0	1954.0	1954.0	1954.0	1939.0	1939.0	1940.0	1940.0	1940.0	1960.0	1960.0	1921.0	1921.0	1921.0	1922.0	1922.0	1948.0	1948.0	1948.0	1914.0	1914.0	1939.0	1939.0	1939.0	1895.0	1895.0	1930.0	1930.0	1930.0	1911.0	1911.0	1885.0	1885.0	1885.0	1919.0	1919.0	1881.0	1881.0	1881.0	1874.0	1874.0	1880.0	1880.0	1880.0	1901.0	1901.0	1900.0	1900.0	1900.0	1901.0	1901.0	1853.0	1853.0	1853.0	1897.0	1897.0	1853.0	1853.0	1853.0	1891.0	1891.0	1893.0	1893.0	1893.0	1895.0	1895.0	1856.0	1856.0	1856.0	1849.0	1849.0	1827.0	1827.0	1827.0	1815.0	1815.0	1858.0	1858.0	1858.0	1857.0	1857.0	1822.0	1822.0	1822.0	1860.0	1860.0	1824.0	1824.0	1842.0	1842.0	1842.0	1842.0	1842.0	1872.0	1872.0	1872.0	1852.0	1852.0	1862.0	1862.0	1862.0	1862.0	1862.0	1855.0	1855.0	1855.0	1832.0	1832.0	1798.0	1798.0	1798.0	1851.0	1851.0	1829.0	1829.0	1829.0	1792.0	1792.0	1783.0	1783.0	1783.0	1795.0	1795.0	1842.0	1842.0	1842.0	1832.0	1832.0	1827.0	1827.0	1827.0	1778.0	1778.0	1802.0	1802.0	1802.0	1793.0	1793.0	1777.0	1777.0	1777.0	1823.0	1823.0	1769.0	1769.0	1769.0	1806.0	1806.0	1804.0	1804.0	1804.0	1762.0	1762.0	1777.0	1777.0	1777.0	1793.0	1793.0	1755.0	1755.0	1755.0	1771.0	1771.0	1764.0	1764.0	1764.0	1765.0	1765.0	1803.0	1803.0	1803.0	1754.0	1754.0	1744.0	1744.0	1744.0	1779.0	1779.0	1782.0	1782.0	1782.0	1777.0	1777.0	1748.0	1748.0	1748.0	1757.0	1757.0	1737.0	1737.0	1737.0	1785.0	1785.0	1774.0	1774.0	1774.0	1737.0	1737.0	1774.0	1774.0	1774.0	1727.0	1727.0	1751.0	1751.0	1751.0	1763.0	1763.0	1775.0	1775.0	1775.0	1737.0	1737.0	1742.0	1742.0	1742.0	1719.0	1719.0	1732.0	1732.0	1732.0	1723.0	1723.0	1740.0	1740.0	1740.0	1746.0	1746.0	1763.0	1763.0	1763.0	1727.0	1727.0	1764.0	1764.0	1764.0	1760.0	1760.0	1767.0	1767.0	1767.0	1761.0	1761.0	1741.0	1741.0	1741.0	1720.0	1720.0	1752.0	1752.0	1752.0	1755.0	1755.0	1757.0	1757.0	1757.0	1714.0	1714.0	1726.0	1726.0	1726.0	1735.0	1735.0	1711.0	1711.0	1711.0	1704.0	1704.0	1749.0	1749.0	1749.0	1698.0	1698.0	1731.0	1731.0	1731.0	1703.0	1703.0	1735.0	1735.0	1735.0	1698.0	1698.0	1696.0	1696.0	1696.0	1739.0	1739.0	1723.0	1723.0	1684.0	1684.0	1684.0	1728.0	1728.0	1707.0	1707.0	1707.0	1694.0	1694.0	1739.0	1739.0	1739.0	1701.0	1701.0	1718.0	1718.0	1718.0	1707.0	1707.0	1744.0	1744.0	1744.0	1718.0	1718.0	1722.0	1722.0	1722.0	1705.0	1705.0	1696.0	1696.0	1696.0	1683.0	1683.0	1692.0	1692.0	1692.0	1691.0	1691.0	1716.0	1716.0	1716.0	1683.0	1683.0	1683.0	1683.0	1683.0	1678.0	1678.0	1718.0	1718.0	1718.0	1693.0	1693.0	1705.0	1705.0	1705.0	1722.0	1722.0	1724.0	1724.0	1724.0	1668.0	1668.0	1711.0	1711.0	1711.0	1707.0	1707.0	1721.0	1721.0	1721.0	1714.0	1714.0	1698.0	1698.0	1698.0	1683.0	1683.0	1712.0	1712.0	1712.0	1728.0	1728.0	1681.0	1681.0	1681.0	1700.0	1700.0	1704.0	1704.0	1704.0	1707.0	1707.0	1738.0	1738.0	1738.0	1753.0	1753.0	1794.0	1794.0	1794.0	1792.0	1792.0	1789.0	1789.0	1789.0	1820.0	1820.0	1799.0	1799.0	1799.0	1863.0	1863.0	1852.0	1852.0	1852.0	1894.0	1894.0	1931.0	1931.0	1931.0	1927.0	1927.0	1982.0	1982.0	1982.0	1977.0	1977.0	2009.0	2009.0	2009.0	2047.0	2047.0	2071.0	2071.0	2071.0	2082.0	2082.0	2102.0	2102.0	2102.0	2095.0	2095.0	2100.0	2100.0	2100.0	2147.0	2147.0	2188.0	2188.0	2188.0	2160.0	2160.0	2161.0	2161.0	2161.0	2196.0	2196.0	2197.0	2197.0	2197.0	2231.0	2231.0	2255.0	2255.0	2255.0	2238.0	2238.0	2257.0	2257.0	2257.0	2258.0	2258.0	2261.0	2261.0	2261.0	2289.0	2289.0	2299.0	2299.0	2299.0	2285.0	2285.0	2295.0	2295.0	2295.0	2337.0	2337.0	2319.0	2319.0	2319.0	2304.0	2304.0	2310.0	2310.0	2310.0	2323.0	2323.0	2321.0	2321.0	2321.0	2336.0	2336.0	2377.0	2377.0	2350.0	2350.0	2350.0	2363.0	2363.0	2339.0	2339.0	2339.0	2369.0	2369.0	2375.0	2375.0	2375.0	2380.0	2380.0	2354.0	2354.0	2354.0	2371.0	2371.0	2406.0	2406.0	2406.0	2369.0	2369.0	2389.0	2389.0	2389.0	2397.0	2397.0	2431.0	2431.0	2431.0	2404.0	2404.0	2419.0	2419.0	2419.0	2417.0	2417.0	2428.0	2428.0	2428.0	2453.0	2453.0	2440.0	2440.0	2440.0	2453.0	2453.0	2417.0	2417.0	2417.0	2441.0	2441.0	2453.0	2453.0	2453.0	2441.0	2441.0	2450.0	2450.0	2450.0	2454.0	2454.0	2418.0	2418.0	2418.0	2481.0	2481.0	2478.0	2478.0	2478.0	2471.0	2471.0	2468.0	2468.0	2468.0	2450.0	2450.0	2489.0	2489.0	2489.0	2461.0	2461.0	2454.0	2454.0	2454.0	2457.0	2457.0	2479.0	2479.0	2479.0	2469.0	2469.0	2451.0	2451.0	2451.0	2474.0	2474.0	2453.0	2453.0	2453.0	2458.0	2458.0	2435.0	2435.0	2435.0	2446.0	2446.0	2479.0	2479.0	2479.0	2469.0	2469.0	2420.0	2420.0	2420.0	2453.0	2453.0	2448.0	2448.0	2448.0	2446.0	2446.0	2444.0	2444.0	2444.0	2450.0	2450.0	2412.0	2412.0	2412.0	2406.0	2406.0	2426.0	2426.0	2426.0	2404.0	2404.0	2392.0	2392.0	2392.0	2389.0	2389.0	2396.0	2396.0	2396.0	2359.0	2359.0	2397.0	2397.0	2397.0	2386.0	2386.0	2368.0	2368.0	2368.0	2390.0	2390.0	2319.0	2319.0	2319.0	2345.0	2345.0	2347.0	2347.0	2347.0	2326.0	2326.0	2311.0	2311.0	2311.0	2292.0	2292.0	2302.0	2302.0	2302.0	2287.0	2287.0	2245.0	2245.0	2245.0	2243.0	2243.0	2236.0	2236.0	2236.0	2235.0	2235.0	2236.0	2236.0	2236.0	2204.0	2204.0	2204.0	2204.0	2204.0	2198.0	2198.0	2211.0	2211.0	2186.0	2186.0	2186.0	2218.0	2218.0	2230.0	2230.0	2230.0	2209.0	2209.0	2175.0	2175.0	2175.0	2162.0	2162.0	2194.0	2194.0	2194.0	2149.0	2149.0	2152.0	2152.0	2152.0	2164.0	2164.0	2181.0	2181.0	2181.0	2135.0	2135.0	2139.0	2139.0	2139.0	2177.0	2177.0	2135.0	2135.0	2135.0	2135.0	2135.0	2144.0	2144.0	2144.0	2151.0	2151.0	2180.0	2180.0	2180.0	2113.0	2113.0	2112.0	2112.0	2112.0	2139.0	2139.0	2104.0	2104.0	2104.0	2118.0	2118.0	2099.0	2099.0	2099.0	2112.0	2112.0	2090.0	2090.0	2090.0	2089.0	2089.0	2087.0	2087.0	2087.0	2108.0	2108.0	2110.0	2110.0	2110.0	2076.0	2076.0	2087.0	2087.0	2087.0	2101.0	2101.0	2068.0	2068.0	2068.0	2052.0	2052.0	2091.0	2091.0	2091.0	2083.0	2083.0	2077.0	2077.0	2077.0	2039.0	2039.0	2038.0	2038.0	2038.0	2080.0	2080.0	2028.0	2028.0	2028.0	2031.0	2031.0	2014.0	2014.0	2014.0	2021.0	2021.0	2055.0	2055.0	2055.0	2020.0	2020.0	2028.0	2028.0	2028.0	2030.0	2030.0	2042.0	2042.0	2042.0	2032.0	2032.0	2041.0	2041.0	2041.0	1992.0	1992.0	2032.0	2032.0	2032.0	2008.0	2008.0	2016.0	2016.0	2016.0	1975.0	1975.0	1993.0	1993.0	1993.0	1956.0	1956.0	1976.0	1976.0	1976.0	1983.0	1983.0	1967.0	1967.0	1967.0	1976.0	1976.0	1989.0	1989.0	1989.0	1938.0	1938.0	1945.0	1945.0	1945.0	1960.0	1960.0	1944.0	1944.0	1944.0	1939.0	1939.0	1920.0	1920.0	1920.0	1919.0	1919.0	1944.0	1944.0	1944.0	1937.0	1937.0	1903.0	1903.0	1903.0	1895.0	1895.0	1931.0	1931.0	1931.0	1899.0	1899.0	1928.0	1928.0	1928.0	1891.0	1891.0	1887.0	1887.0	1923.0	1923.0	1923.0	1922.0	1922.0	1872.0	1872.0	1872.0	1902.0	1902.0	1910.0	1910.0	1910.0	1849.0	1849.0	1865.0	1865.0	1865.0	1858.0	1858.0	1894.0	1894.0	1894.0	1854.0	1854.0	1844.0	1844.0	1844.0	1882.0	1882.0	1854.0	1854.0	1854.0	1845.0	1845.0	1869.0	1869.0	1869.0	1851.0	1851.0	1866.0	1866.0	1866.0	1835.0	1835.0	1835.0	1835.0	1835.0	1829.0	1829.0	1865.0	1865.0	1865.0	1860.0	1860.0	1820.0	1820.0	1820.0	1825.0	1825.0	1797.0	1797.0	1797.0	1821.0	1821.0	1821.0	1821.0	1821.0	1817.0	1817.0	1808.0	1808.0	1808.0	1846.0	1846.0	1797.0	1797.0	1797.0	1789.0	1789.0	1790.0	1790.0	1790.0	1814.0	1814.0	1825.0	1825.0	1825.0	1784.0	1784.0	1793.0	1793.0	1793.0	1798.0	1798.0	1812.0	