1819.0	1819.0	1742.0	1742.0	1742.0	1710.0	1710.0	1688.0	1688.0	1688.0	1656.0	1656.0	1637.0	1637.0	1637.0	1641.0	1641.0	1600.0	1600.0	1600.0	1616.0	1616.0	1606.0	1606.0	1606.0	1620.0	1620.0	1579.0	1579.0	1579.0	1581.0	1581.0	1598.0	1598.0	1598.0	1581.0	1581.0	1608.0	1608.0	1608.0	1586.0	1586.0	1616.0	1616.0	1616.0	1622.0	1622.0	1606.0	1606.0	1606.0	1612.0	1612.0	1621.0	1621.0	1621.0	1590.0	1590.0	1612.0	1612.0	1612.0	1614.0	1614.0	1616.0	1616.0	1616.0	1609.0	1609.0	1637.0	1637.0	1637.0	1641.0	1641.0	1651.0	1651.0	1651.0	1644.0	1644.0	1665.0	1665.0	1665.0	1662.0	1662.0	1675.0	1675.0	1675.0	1667.0	1667.0	1677.0	1677.0	1677.0	1663.0	1663.0	1689.0	1689.0	1689.0	1656.0	1656.0	1643.0	1643.0	1674.0	1674.0	1674.0	1664.0	1664.0	1668.0	1668.0	1668.0	1688.0	1688.0	1654.0	1654.0	1654.0	1644.0	1644.0	1663.0	1663.0	1663.0	1678.0	1678.0	1685.0	1685.0	1685.0	1691.0	1691.0	1698.0	1698.0	1698.0	1711.0	1711.0	1651.0	1651.0	1651.0	1671.0	1671.0	1678.0	1678.0	1678.0	1666.0	1666.0	1701.0	1701.0	1701.0	1710.0	1710.0	1710.0	1710.0	1710.0	1691.0	1691.0	1681.0	1681.0	1681.0	1701.0	1701.0	1718.0	1718.0	1718.0	1700.0	1700.0	1715.0	1715.0	1715.0	1716.0	1716.0	1683.0	1683.0	1683.0	1700.0	1700.0	1686.0	1686.0	1686.0	1729.0	1729.0	1705.0	1705.0	1705.0	1693.0	1693.0	1697.0	1697.0	1697.0	1711.0	1711.0	1711.0	1711.0	1711.0	1735.0	1735.0	1729.0	1729.0	1729.0	1704.0	1704.0	1712.0	1712.0	1712.0	1715.0	1715.0	1729.0	1729.0	1729.0	1684.0	1684.0	1722.0	1722.0	1722.0	1725.0	1725.0	1743.0	1743.0	1743.0	1712.0	1712.0	1708.0	1708.0	1708.0	1718.0	1718.0	1745.0	1745.0	1745.0	1708.0	1708.0	1700.0	1700.0	1700.0	1733.0	1733.0	1753.0	1753.0	1753.0	1743.0	1743.0	1744.0	1744.0	1744.0	1750.0	1750.0	1720.0	1720.0	1720.0	1746.0	1746.0	1738.0	1738.0	1738.0	1760.0	1760.0	1728.0	1728.0	1728.0	1721.0	1721.0	1773.0	1773.0	1773.0	1732.0	1732.0	1738.0	1738.0	1738.0	1756.0	1756.0	1755.0	1755.0	1755.0	1727.0	1727.0	1750.0	1750.0	1750.0	1768.0	1768.0	1756.0	1756.0	1756.0	1767.0	1767.0	1726.0	1726.0	1726.0	1779.0	1779.0	1752.0	1752.0	1752.0	1743.0	1743.0	1752.0	1752.0	1752.0	1763.0	1763.0	1742.0	1742.0	1742.0	1761.0	1761.0	1764.0	1764.0	1764.0	1770.0	1770.0	1747.0	1747.0	1789.0	1789.0	1789.0	1763.0	1763.0	1761.0	1761.0	1761.0	1747.0	1747.0	1785.0	1785.0	1785.0	1791.0	1791.0	1776.0	1776.0	1776.0	1798.0	1798.0	1813.0	1813.0	1813.0	1789.0	1789.0	1784.0	1784.0	1784.0	1777.0	1777.0	1769.0	1769.0	1769.0	1807.0	1807.0	1786.0	1786.0	1786.0	1791.0	1791.0	1787.0	1787.0	1787.0	1781.0	1781.0	1826.0	1826.0	1826.0	1822.0	1822.0	1804.0	1804.0	1804.0	1799.0	1799.0	1826.0	1826.0	1826.0	1811.0	1811.0	1807.0	1807.0	1807.0	1835.0	1835.0	1833.0	1833.0	1833.0	1816.0	1816.0	1826.0	1826.0	1826.0	1811.0	1811.0	1826.0	1826.0	1826.0	1814.0	1814.0	1818.0	1818.0	1818.0	1818.0	1818.0	1839.0	1839.0	1839.0	1810.0	1810.0	1835.0	1835.0	1835.0	1811.0	1811.0	1820.0	1820.0	1820.0	1867.0	1867.0	1818.0	1818.0	1818.0	1844.0	1844.0	1857.0	1857.0	1857.0	1833.0	1833.0	1858.0	1858.0	1858.0	1848.0	1848.0	1849.0	1849.0	1849.0	1876.0	1876.0	1879.0	1879.0	1879.0	1917.0	1917.0	1925.0	1925.0	1925.0	1895.0	1895.0	1930.0	1930.0	1930.0	1924.0	1924.0	1939.0	1939.0	1939.0	1938.0	1938.0	1954.0	1954.0	1954.0	1955.0	1955.0	1972.0	1972.0	1972.0	2018.0	2018.0	1995.0	1995.0	1995.0	2004.0	2004.0	2008.0	2008.0	2008.0	2019.0	2019.0	2040.0	2040.0	2040.0	2023.0	2023.0	2066.0	2066.0	2066.0	2045.0	2045.0	2054.0	2054.0	2054.0	2061.0	2061.0	2086.0	2086.0	2086.0	2080.0	2080.0	2087.0	2087.0	2087.0	2076.0	2076.0	2104.0	2104.0	2104.0	2098.0	2098.0	2082.0	2082.0	2082.0	2095.0	2095.0	2098.0	2098.0	2098.0	2080.0	2080.0	2088.0	2088.0	2119.0	2119.0	2119.0	2100.0	2100.0	2124.0	2124.0	2124.0	2121.0	2121.0	2123.0	2123.0	2123.0	2114.0	2114.0	2087.0	2087.0	2087.0	2119.0	2119.0	2089.0	2089.0	2089.0	2082.0	2082.0	2081.0	2081.0	2081.0	2084.0	2084.0	2082.0	2082.0	2082.0	2080.0	2080.0	2057.0	2057.0	2057.0	2085.0	2085.0	2076.0	2076.0	2076.0	2056.0	2056.0	2097.0	2097.0	2097.0	2086.0	2086.0	2072.0	2072.0	2072.0	2074.0	2074.0	2054.0	2054.0	2054.0	2067.0	2067.0	2077.0	2077.0	2077.0	2067.0	2067.0	2087.0	2087.0	2087.0	2058.0	2058.0	2074.0	2074.0	2074.0	2053.0	2053.0	2057.0	2057.0	2057.0	2067.0	2067.0	2041.0	2041.0	2041.0	2035.0	2035.0	2036.0	2036.0	2036.0	2033.0	2033.0	2069.0	2069.0	2069.0	2054.0	2054.0	2067.0	2067.0	2067.0	2030.0	2030.0	2016.0	2016.0	2016.0	2044.0	2044.0	2059.0	2059.0	2059.0	2021.0	2021.0	2036.0	2036.0	2036.0	2023.0	2023.0	2023.0	2023.0	2023.0	2008.0	2008.0	2007.0	2007.0	2007.0	2018.0	2018.0	1981.0	1981.0	1981.0	2006.0	2006.0	1995.0	1995.0	1995.0	1969.0	1969.0	1992.0	1992.0	1992.0	2016.0	2016.0	1991.0	1991.0	1991.0	2003.0	2003.0	1998.0	1998.0	1998.0	1967.0	1967.0	1967.0	1967.0	1967.0	1987.0	1987.0	1981.0	1981.0	1981.0	1955.0	1955.0	1990.0	1990.0	1990.0	1987.0	1987.0	1978.0	1978.0	1978.0	1999.0	1999.0	1959.0	1959.0	1959.0	1985.0	1985.0	1965.0	1965.0	1965.0	1978.0	1978.0	1952.0	1952.0	1952.0	1975.0	1975.0	2001.0	2001.0	2001.0	1998.0	1998.0	1955.0	1955.0	1955.0	1967.0	1967.0	1948.0	1948.0	1948.0	1957.0	1957.0	1981.0	1981.0	1949.0	1949.0	1949.0	1998.0	1998.0	1979.0	1979.0	1979.0	1952.0	1952.0	1973.0	1973.0	1973.0	1969.0	1969.0	1992.0	1992.0	1992.0	2004.0	2004.0	1960.0	1960.0	1960.0	1982.0	1982.0	1981.0	1981.0	1981.0	1948.0	1948.0	1973.0	1973.0	1973.0	1968.0	1968.0	1991.0	1991.0	1991.0	1967.0	1967.0	1986.0	1986.0	1986.0	1994.0	1994.0	1994.0	1994.0	1994.0	1968.0	1968.0	1956.0	1956.0	1956.0	1954.0	1954.0	1965.0	1965.0	1965.0	1976.0	1976.0	1987.0	1987.0	1987.0	1992.0	1992.0	1964.0	1964.0	1964.0	1989.0	1989.0	1968.0	1968.0	1968.0	1950.0	1950.0	1973.0	1973.0	1973.0	1951.0	1951.0	1962.0	1962.0	1962.0	1942.0	1942.0	1957.0	1957.0	1957.0	1949.0	1949.0	1949.0	1949.0	1949.0	1944.0	1944.0	1930.0	1930.0	1930.0	1970.0	1970.0	1938.0	1938.0	1938.0	1948.0	1948.0	1950.0	1950.0	1950.0	1963.0	1963.0	1963.0	1963.0	1963.0	1953.0	1953.0	1920.0	1920.0	1920.0	1917.0	1917.0	1928.0	1928.0	1928.0	1944.0	1944.0	1927.0	1927.0	1927.0	1950.0	1950.0	1951.0	1951.0	1951.0	1908.0	1908.0	1924.0	1924.0	1924.0	1947.0	1947.0	1918.0	1918.0	1918.0	1950.0	1950.0	1908.0	1908.0	1908.0	1916.0	1916.0	1935.0	1935.0	1935.0	1917.0	1917.0	1911.0	1911.0	1911.0	1920.0	1920.0	1906.0	1906.0	1906.0	1933.0	1933.0	1927.0	1927.0	1927.0	1911.0	1911.0	1919.0	1919.0	1919.0	1918.0	1918.0	1917.0	1917.0	1917.0	1914.0	1914.0	1926.0	1926.0	1926.0	1899.0	1899.0	1912.0	1912.0	1912.0	1911.0	1911.0	1918.0	1918.0	1918.0	1901.0	1901.0	1909.0	1909.0	1909.0	1924.0	1924.0	1915.0	1915.0	1915.0	1934.0	1934.0	1896.0	1896.0	1904.0	1904.0	1904.0	1924.0	1924.0	1893.0	1893.0	1893.0	1916.0	1916.0	1921.0	1921.0	1921.0	1901.0	1901.0	1895.0	1895.0	1895.0	1894.0	1894.0	1910.0	1910.0	1910.0	1880.0	1880.0	1876.0	1876.0	1876.0	1897.0	1897.0	1885.0	1885.0	1885.0	1883.0	1883.0	1888.0	1888.0	1888.0	1879.0	1879.0	1915.0	1915.0	1915.0	1879.0	1879.0	1871.0	1871.0	1871.0	1876.0	1876.0	1906.0	1906.0	1906.0	1918.0	1918.0	1917.0	1917.0	1917.0	1884.0	1884.0	1904.0	1904.0	1904.0	1872.0	1872.0	1888.0	1888.0	1888.0	1879.0	1879.0	1901.0	1901.0	1901.0	1868.0	1868.0	1882.0	1882.0	1882.0	1914.0	1914.0	1888.0	1888.0	1888.0	1911.0	1911.0	1911.0	1911.0	1911.0	1892.0	1892.0	1901.0	1901.0	1901.0	1868.0	1868.0	1901.0	1901.0	1901.0	1866.0	1866.0	1876.0	1876.0	1876.0	1881.0	1881.0	1911.0	1911.0	1911.0	1902.0	1902.0	1921.0	1921.0	1921.0	1901.0	1901.0	1895.0	1895.0	1895.0	1932.0	1932.0	1926.0	1926.0	1926.0	1908.0	1908.0	1944.0	1944.0	1944.0	1955.0	1955.0	1960.0	1960.0	1960.0	1970.0	1970.0	1942.0	1942.0	1942.0	1974.0	1974.0	1968.0	1968.0	1968.0	1999.0	1999.0	2025.0	2025.0	2025.0	2019.0	2019.0	2010.0	2010.0	2010.0	1993.0	1993.0	2017.0	2017.0	2017.0	2013.0	2013.0	2049.0	2049.0	2049.0	2045.0	2045.0	2041.0	2041.0	2041.0	2051.0	2051.0	2060.0	2060.0	2060.0	2047.0	2047.0	2057.0	2057.0	2057.0	2071.0	2071.0	2086.0	2086.0	2086.0	2082.0	2082.0	2083.0	2083.0	2083.0	2099.0	2099.0	2098.0	2098.0	2098.0	2099.0	2099.0	2099.0	2099.0	2099.0	2086.0	2086.0	2112.0	2112.0	2086.0	2086.0	2086.0	2101.0	2101.0	2102.0	2102.0	2102.0	2083.0	2083.0	2103.0	2103.0	2103.0	2099.0	2099.0	2099.0	2099.0	2099.0	2065.0	2065.0	2065.0	2065.0	2065.0	2076.0	2076.0	2099.0	2099.0	2099.0	2104.0	2104.0	2060.0	2060.0	2060.0	2093.0	2093.0	2091.0	2091.0	2091.0	2071.0	2071.0	2046.0	2046.0	2046.0	2051.0	2051.0	2064.0	2064.0	2064.0	2042.0	2042.0	2058.0	2058.0	2058.0	2053.0	2053.0	2024.0	2024.0	2024.0	2047.0	2047.0	2031.0	2031.0	2031.0	2032.0	2032.0	2044.0	2044.0	2044.0	2049.0	2049.0	2024.0	2024.0	2024.0	2001.0	2001.0	2011.0	2011.0	2011.0	2022.0	2022.0	2003.0	2003.0	2003.0	2020.0	2020.0	2016.0	2016.0	2016.0	1995.0	1995.0	1994.0	1994.0	1994.0	1995.0	1995.0	1980.0	1980.0	1980.0	1988.0	1988.0	2012.0	2012.0	2012.0	1981.0	1981.0	1993.0	1993.0	1993.0	2011.0	2011.0	2006.0	2006.0	2006.0	1984.0	1984.0	1959.0	1959.0	1959.0	1976.0	1976.0	1982.0	1982.0	1982.0	1951.0	1951.0	1970.0	1970.0	1970.0	1987.0	1987.0	1969.0	1969.0	1969.0	1950.0	1950.0	1943.0	1943.0	1943.0	1956.0	1956.0	1969.0	1969.0	1969.0	1972.0	1972.0	1945.0	1945.0	1945.0	1948.0	1948.0	1947.0	1947.0	1947.0	1918.0	1918.0	1930.0	1930.0	1930.0	1919.0	1919.0	1913.0	1913.0	1913.0	1904.0	1904.0	1921.0	1921.0	1921.0	1911.0	1911.0	1942.0	1942.0	1942.0	1929.0	1929.0	1889.0	1889.0	1889.0	1883.0	1883.0	1896.0	1896.0	1896.0	1922.0	1922.0	1894.0	1894.0	1894.0	1916.0	1916.0	1918.0	1918.0	1918.0	1914.0	1914.0	1908.0	1908.0	1908.0	1887.0	1887.0	1903.0	1903.0	1903.0	1928.0	1928.0	1911.0	1911.0	1920.0	1920.0	1920.0	1904.0	1904.0	1886.0	1886.0	1886.0	1938.0	1938.0	1922.0	1922.0	1922.0	1904.0	1904.0	1899.0	1899.0	1899.0	1906.0	1906.0	1894.0	1894.0	1894.0	1894.0	1894.0	1901.0	1901.0	1901.0	1920.0	1920.0	1909.0	1909.0	1909.0	1917.0	1917.0	1920.0	1920.0	1920.0	1904.0	1904.0	1909.0	1909.0	1909.0	1904.0	1904.0	1934.0	1934.0	1934.0	1942.0	1942.0	1905.0	1905.0	1905.0	1935.0	1935.0	1943.0	1943.0	1943.0	1939.0	1939.0	1910.0	1910.0	1910.0	1903.0	1903.0	1924.0	1924.0	1924.0	1931.0	1931.0	1910.0	1910.0	1910.0	1921.0	1921.0	1942.0	1942.0	1942.0	1921.0	1921.0	1928.0	1928.0	1928.0	1956.0	1956.0	1930.0	1930.0	1930.0	1940.0	1940.0	1931.0	1931.0	1931.0	1915.0	1915.0	1957.0	1957.0	1957.0	1942.0	1942.0	1948.0	1948.0	1948.0	1924.0	1924.0	1907.0	1907.0	1907.0	1954.0	1954.0	1915.0	1915.0	1915.0	1920.0	1920.0	1925.0	1925.0	1925.0	1935.0	1935.0	1931.0	1931.0	1931.0	1917.0	1917.0	1929.0	1929.0	1929.0	1925.0	1925.0	1953.0	1953.0	1953.0	1924.0	1924.0	1925.0	1925.0	1925.0	1922.0	1922.0	1927.0	1927.0	1927.0	1949.0	1949.0	1954.0	1954.0	1954.0	1915.0	1915.0	1956.0	1956.0	1956.0	1944.0	1944.0	1939.0	1939.0	1939.0	1914.0	1914.0	1933.0	1933.0	1933.0	1927.0	1927.0	1935.0	1935.0	1935.0	1936.0	1936.0	1941.0	1941.0	1941.0	1935.0	1935.0	1932.0	1932.0	1932.0	1938.0	1938.0	1919.0	1919.0	1919.0	1935.0	1935.0	1931.0	1931.0	1931.0	1920.0	1920.0	1913.0	1913.0	1913.0	1936.0	1936.0	1911.0	1911.0	1911.0	1914.0	1914.0	1908.0	1908.0	1924.0	1924.0	1924.0	1943.0	1943.0	1913.0	1913.0	1913.0	1927.0	1927.0	1932.0	1932.0	1932.0	1953.0	1953.0	1903.0	1903.0	1903.0	1911.0	1911.0	1920.0	1920.0	1920.0	1896.0	1896.0	1909.0	1909.0	1909.0	1905.0	1905.0	1907.0	1907.0	1907.0	1936.0	1936.0	1955.0	1955.0	1955.0	1927.0	1927.0	1906.0	1906.0	1906.0	1942.0	1942.0	1936.0	1936.0	1936.0	1934.0	1934.0	1940.0	1940.0	1940.0	1954.0	1954.0	1923.0	1923.0	1923.0	1925.0	1925.0	1951.0	1951.0	1951.0	1912.0	1912.0	1962.0	1962.0	1962.0	1915.0	1915.0	1950.0	1950.0	1950.0	1912.0	1912.0	1915.0	1915.0	1915.0	1966.0	1966.0	1949.0	1949.0	1949.0	1932.0	1932.0	1954.0	1954.0	1954.0	1925.0	1925.0	1926.0	1926.0	1926.0	1948.0	1948.0	1965.0	1965.0	1965.0	1958.0	1958.0	1941.0	1941.0	1941.0	1985.0	1985.0	1997.0	1997.0	1997.0	1968.0	1968.0	1963.0	1963.0	1963.0	1974.0	1974.0	2003.0	2003.0	2003.0	1995.0	1995.0	1996.0	1996.0	1996.0	2039.0	2039.0	2028.0	2028.0	2028.0	2036.0	2036.0	2062.0	2062.0	2062.0	2047.0	2047.0	2052.0	2052.0	2052.0	2092.0	2092.0	2094.0	2094.0	2094.0	2103.0	2103.0	2124.0	2124.0	2124.0	2119.0	2119.0	2137.0	2137.0	2137.0	2162.0	2162.0	2138.0	2138.0	2138.0	2144.0	2144.0	2153.0	2153.0	2153.0	2175.0	2175.0	2137.0	2137.0	2137.0	2169.0	2169.0	2169.0	2169.0	2169.0	2161.0	2161.0	2201.0	2201.0	2201.0	2202.0	2202.0	2166.0	2166.0	2166.0	2176.0	2176.0	2207.0	2207.0	2207.0	2206.0	2206.0	2190.0	2190.0	2190.0	2219.0	2219.0	2227.0	2227.0	2227.0	2231.0	2231.0	2225.0	2225.0	2236.0	2236.0	2236.0	2194.0	2194.0	2231.0	2231.0	2231.0	2210.0	2210.0	2230.0	2230.0	2230.0	2232.0	2232.0	2218.0	2218.0	2218.0	2262.0	2262.0	2220.0	2220.0	2220.0	2214.0	2214.0	2217.0	2217.0	2217.0	2227.0	2227.0	2238.0	2238.0	2238.0	2225.0	2225.0	2222.0	2222.0	2222.0	2221.0	2221.0	2238.0	2238.0	2238.0	2214.0	2214.0	2214.0	2214.0	2214.0	2203.0	2203.0	2222.0	2222.0	2222.0	2236.0	2236.0	2202.0	2202.0	2202.0	2228.0	2228.0	2239.0	2239.0	2239.0	2235.0	2235.0	2207.0	2207.0	2207.0	2222.0	2222.0	2238.0	2238.0	2238.0	2242.0	2242.0	2228.0	2228.0	2228.0	2211.0	2211.0	2254.0	2254.0	2254.0	2244.0	2244.0	2224.0	2224.0	2224.0	2214.0	2214.0	2233.0	2233.0	2233.0	2253.0	2253.0	2229.0	2229.0	2229.0	2234.0	2234.0	2231.0	2231.0	2231.0	2236.0	2236.0	2196.0	2196.0	2196.0	2191.0	2191.0	2215.0	2215.0	2215.0	2208.0	2208.0	2197.0	2197.0	2197.0	2211.0	2211.0	2193.0	2193.0	2193.0	2161.0	2161.0	2211.0	2211.0	2211.0	2184.0	2184.0	2191.0	2191.0	2191.0	2165.0	2165.0	2173.0	2173.0	2173.0	2159.0	2159.0	2162.0	2162.0	2162.0	2171.0	2171.0	2143.0	2143.0	2143.0	2168.0	2168.0	2138.0	2138.0	2138.0	2166.0	2166.0	2145.0	2145.0	2145.0	2115.0	2115.0	2127.0	2127.0	2127.0	2142.0	2142.0	2141.0	2141.0	2141.0	2103.0	2103.0	2101.0	2101.0	2101.0	2123.0	2123.0	2105.0	2105.0	2105.0	2119.0	2119.0	2128.0	2128.0	2128.0	2081.0	2081.0	2117.0	2117.0	2117.0	2114.0	2114.0	2084.0	2084.0	2084.0	2104.0	2104.0	2105.0	2105.0	2105.0	2088.0	2088.0	2059.0	2059.0	2059.0	2086.0	2086.0	2071.0	2071.0	2053.0	2053.0	2053.0	2082.0	2082.0	2062.0	2062.0	2062.0	2059.0	2059.0	2033.0	2033.0	2033.0	2027.0	2027.0	2040.0	2040.0	2040.0	2019.0	2019.0	2029.0	2029.0	2029.0	2030.0	2030.0	2016.0	2016.0	2016.0	2020.0	2020.0	2013.0	2013.0	2013.0	2016.0	2016.0	2006.0	2006.0	2006.0	2000.0	2000.0	2023.0	2023.0	2023.0	2018.0	2018.0	2024.0	2024.0	2024.0	2027.0	2027.0	1998.0	1998.0	1998.0	2019.0	2019.0	2017.0	2017.0	2017.0	2017.0	2017.0	1990.0	1990.0	1990.0	1979.0	1979.0	1988.0	1988.0	1988.0	1973.0	1973.0	1995.0	1995.0	1995.0	1960.0	1960.0	1963.0	1963.0	1963.0	1997.0	1997.0	1963.0	1963.0	1963.0	1957.0	1957.0	2003.0	2003.0	2003.0	1986.0	1986.0	1952.0	1952.0	1952.0	2003.0	2003.0	1975.0	1975.0	1975.0	1982.0	1982.0	1982.0	1982.0	1982.0	1987.0	1987.0	1949.0	1949.0	1949.0	1968.0	1968.0	1973.0	1973.0	1973.0	1962.0	1962.0	1966.0	1966.0	1966.0	1968.0	1968.0	1969.0	1969.0	1969.0	1944.0	1944.0	1936.0	1936.0	1936.0	1956.0	1956.0	1945.0	1945.0	1945.0	1975.0	1975.0	1936.0	1936.0	1936.0	1944.0	1944.0	1959.0	1959.0	1959.0	1963.0	1963.0	1974.0	1974.0	1974.0	1984.0	1984.0	1944.0	1944.0	1944.0	1931.0	1931.0	1980.0	1980.0	1980.0	1971.0	1971.0	1963.0	1963.0	1963.0	