1981.0	1981.0	1965.0	1965.0	1986.0	1986.0	1986.0	1979.0	1979.0	1969.0	1969.0	1969.0	1961.0	1961.0	1976.0	1976.0	1976.0	1975.0	1975.0	1985.0	1985.0	1985.0	1965.0	1965.0	1960.0	1960.0	1960.0	1969.0	1969.0	1972.0	1972.0	1972.0	1955.0	1955.0	1935.0	1935.0	1935.0	1970.0	1970.0	1956.0	1956.0	1956.0	1968.0	1968.0	1950.0	1950.0	1950.0	1966.0	1966.0	1963.0	1963.0	1963.0	1961.0	1961.0	1943.0	1943.0	1943.0	1953.0	1953.0	1944.0	1944.0	1944.0	1946.0	1946.0	1950.0	1950.0	1950.0	1950.0	1950.0	1938.0	1938.0	1938.0	1948.0	1948.0	1947.0	1947.0	1947.0	1946.0	1946.0	1935.0	1935.0	1935.0	1938.0	1938.0	1935.0	1935.0	1935.0	1935.0	1935.0	1945.0	1945.0	1945.0	1946.0	1946.0	1938.0	1938.0	1938.0	1937.0	1937.0	1943.0	1943.0	1943.0	1947.0	1947.0	1927.0	1927.0	1927.0	1925.0	1925.0	1935.0	1935.0	1935.0	1937.0	1937.0	1937.0	1937.0	1937.0	1912.0	1912.0	1936.0	1936.0	1936.0	1934.0	1934.0	1948.0	1948.0	1931.0	1931.0	1931.0	1920.0	1920.0	1936.0	1936.0	1936.0	1928.0	1928.0	1936.0	1936.0	1936.0	1920.0	1920.0	1932.0	1932.0	1932.0	1935.0	1935.0	1920.0	1920.0	1920.0	1936.0	1936.0	1929.0	1929.0	1929.0	1910.0	1910.0	1903.0	1903.0	1903.0	1927.0	1927.0	1919.0	1919.0	1919.0	1925.0	1925.0	1925.0	1925.0	1925.0	1912.0	1912.0	1938.0	1938.0	1938.0	1920.0	1920.0	1916.0	1916.0	1916.0	1921.0	1921.0	1931.0	1931.0	1931.0	1939.0	1939.0	1927.0	1927.0	1927.0	1923.0	1923.0	1926.0	1926.0	1926.0	1923.0	1923.0	1924.0	1924.0	1924.0	1930.0	1930.0	1921.0	1921.0	1921.0	1933.0	1933.0	1918.0	1918.0	1918.0	1927.0	1927.0	1929.0	1929.0	1929.0	1918.0	1918.0	1944.0	1944.0	1944.0	1913.0	1913.0	1921.0	1921.0	1921.0	1911.0	1911.0	1916.0	1916.0	1916.0	1919.0	1919.0	1917.0	1917.0	1917.0	1938.0	1938.0	1926.0	1926.0	1926.0	1932.0	1932.0	1921.0	1921.0	1921.0	1913.0	1913.0	1922.0	1922.0	1922.0	1916.0	1916.0	1903.0	1903.0	1903.0	1932.0	1932.0	1903.0	1903.0	1903.0	1946.0	1946.0	1920.0	1920.0	1920.0	1922.0	1922.0	1921.0	1921.0	1921.0	1926.0	1926.0	1918.0	1918.0	1918.0	1925.0	1925.0	1916.0	1916.0	1916.0	1911.0	1911.0	1919.0	1919.0	1919.0	1898.0	1898.0	1934.0	1934.0	1934.0	1931.0	1931.0	1935.0	1935.0	1935.0	1909.0	1909.0	1925.0	1925.0	1925.0	1922.0	1922.0	1921.0	1921.0	1921.0	1920.0	1920.0	1946.0	1946.0	1946.0	1931.0	1931.0	1924.0	1924.0	1924.0	1927.0	1927.0	1913.0	1913.0	1913.0	1919.0	1919.0	1938.0	1938.0	1938.0	1913.0	1913.0	1920.0	1920.0	1923.0	1923.0	1923.0	1940.0	1940.0	1915.0	1915.0	1915.0	1914.0	1914.0	1913.0	1913.0	1913.0	1916.0	1916.0	1923.0	1923.0	1923.0	1911.0	1911.0	1920.0	1920.0	1920.0	1942.0	1942.0	1923.0	1923.0	1923.0	1919.0	1919.0	1917.0	1917.0	1917.0	1932.0	1932.0	1934.0	1934.0	1934.0	1920.0	1920.0	1924.0	1924.0	1924.0	1916.0	1916.0	1934.0	1934.0	1934.0	1919.0	1919.0	1927.0	1927.0	1927.0	1927.0	1927.0	1929.0	1929.0	1929.0	1927.0	1927.0	1920.0	1920.0	1920.0	1915.0	1915.0	1918.0	1918.0	1918.0	1937.0	1937.0	1933.0	1933.0	1933.0	1933.0	1933.0	1920.0	1920.0	1920.0	1944.0	1944.0	1902.0	1902.0	1902.0	1943.0	1943.0	1930.0	1930.0	1930.0	1929.0	1929.0	1926.0	1926.0	1926.0	1939.0	1939.0	1916.0	1916.0	1916.0	1921.0	1921.0	1925.0	1925.0	1925.0	1923.0	1923.0	1941.0	1941.0	1941.0	1930.0	1930.0	1909.0	1909.0	1909.0	1919.0	1919.0	1910.0	1910.0	1910.0	1927.0	1927.0	1926.0	1926.0	1926.0	1903.0	1903.0	1917.0	1917.0	1917.0	1928.0	1928.0	1946.0	1946.0	1946.0	1924.0	1924.0	1904.0	1904.0	1904.0	1922.0	1922.0	1927.0	1927.0	1927.0	1899.0	1899.0	1909.0	1909.0	1909.0	1923.0	1923.0	1917.0	1917.0	1917.0	1921.0	1921.0	1931.0	1931.0	1931.0	1917.0	1917.0	1921.0	1921.0	1921.0	1912.0	1912.0	1924.0	1924.0	1924.0	1911.0	1911.0	1904.0	1904.0	1904.0	1909.0	1909.0	1914.0	1914.0	1914.0	1904.0	1904.0	1935.0	1935.0	1935.0	1908.0	1908.0	1932.0	1932.0	1932.0	1935.0	1935.0	1942.0	1942.0	1942.0	1935.0	1935.0	1939.0	1939.0	1939.0	1949.0	1949.0	1947.0	1947.0	1963.0	1963.0	1963.0	1972.0	1972.0	1976.0	1976.0	1976.0	1979.0	1979.0	2016.0	2016.0	2016.0	2025.0	2025.0	2034.0	2034.0	2034.0	2025.0	2025.0	2047.0	2047.0	2047.0	2057.0	2057.0	2061.0	2061.0	2061.0	2083.0	2083.0	2087.0	2087.0	2087.0	2097.0	2097.0	2098.0	2098.0	2098.0	2102.0	2102.0	2115.0	2115.0	2115.0	2131.0	2131.0	2128.0	2128.0	2128.0	2151.0	2151.0	2154.0	2154.0	2154.0	2168.0	2168.0	2169.0	2169.0	2169.0	2173.0	2173.0	2190.0	2190.0	2190.0	2178.0	2178.0	2199.0	2199.0	2199.0	2210.0	2210.0	2207.0	2207.0	2207.0	2203.0	2203.0	2191.0	2191.0	2191.0	2220.0	2220.0	2209.0	2209.0	2209.0	2226.0	2226.0	2210.0	2210.0	2210.0	2216.0	2216.0	2208.0	2208.0	2208.0	2238.0	2238.0	2226.0	2226.0	2226.0	2228.0	2228.0	2215.0	2215.0	2215.0	2228.0	2228.0	2223.0	2223.0	2223.0	2234.0	2234.0	2232.0	2232.0	2232.0	2233.0	2233.0	2237.0	2237.0	2237.0	2219.0	2219.0	2240.0	2240.0	2240.0	2228.0	2228.0	2236.0	2236.0	2236.0	2220.0	2220.0	2222.0	2222.0	2222.0	2225.0	2225.0	2225.0	2225.0	2225.0	2227.0	2227.0	2218.0	2218.0	2218.0	2226.0	2226.0	2218.0	2218.0	2218.0	2215.0	2215.0	2205.0	2205.0	2205.0	2224.0	2224.0	2214.0	2214.0	2214.0	2207.0	2207.0	2201.0	2201.0	2201.0	2215.0	2215.0	2189.0	2189.0	2189.0	2218.0	2218.0	2215.0	2215.0	2215.0	2199.0	2199.0	2210.0	2210.0	2210.0	2187.0	2187.0	2191.0	2191.0	2191.0	2189.0	2189.0	2181.0	2181.0	2181.0	2186.0	2186.0	2195.0	2195.0	2195.0	2195.0	2195.0	2168.0	2168.0	2168.0	2197.0	2197.0	2173.0	2173.0	2173.0	2172.0	2172.0	2178.0	2178.0	2167.0	2167.0	2167.0	2195.0	2195.0	2190.0	2190.0	2190.0	2166.0	2166.0	2175.0	2175.0	2175.0	2165.0	2165.0	2165.0	2165.0	2165.0	2135.0	2135.0	2157.0	2157.0	2157.0	2162.0	2162.0	2154.0	2154.0	2154.0	2126.0	2126.0	2139.0	2139.0	2139.0	2153.0	2153.0	2131.0	2131.0	2131.0	2149.0	2149.0	2120.0	2120.0	2120.0	2134.0	2134.0	2107.0	2107.0	2107.0	2107.0	2107.0	2129.0	2129.0	2129.0	2100.0	2100.0	2099.0	2099.0	2099.0	2103.0	2103.0	2098.0	2098.0	2098.0	2095.0	2095.0	2087.0	2087.0	2087.0	2091.0	2091.0	2086.0	2086.0	2086.0	2092.0	2092.0	2067.0	2067.0	2067.0	2086.0	2086.0	2081.0	2081.0	2081.0	2069.0	2069.0	2057.0	2057.0	2057.0	2052.0	2052.0	2055.0	2055.0	2055.0	2055.0	2055.0	2036.0	2036.0	2036.0	2055.0	2055.0	2071.0	2071.0	2071.0	2038.0	2038.0	2027.0	2027.0	2027.0	2028.0	2028.0	2024.0	2024.0	2024.0	2024.0	2024.0	2034.0	2034.0	2034.0	2023.0	2023.0	2020.0	2020.0	2020.0	2028.0	2028.0	2008.0	2008.0	2008.0	2020.0	2020.0	2021.0	2021.0	2021.0	2032.0	2032.0	2038.0	2038.0	2038.0	2018.0	2018.0	2024.0	2024.0	2024.0	2014.0	2014.0	2031.0	2031.0	2031.0	2012.0	2012.0	2029.0	2029.0	2029.0	2007.0	2007.0	2021.0	2021.0	2021.0	2017.0	2017.0	2029.0	2029.0	2029.0	2033.0	2033.0	2015.0	2015.0	2015.0	2016.0	2016.0	2029.0	2029.0	2029.0	2027.0	2027.0	2020.0	2020.0	2020.0	2014.0	2014.0	2010.0	2010.0	2010.0	2018.0	2018.0	2011.0	2011.0	2011.0	2005.0	2005.0	2017.0	2017.0	2017.0	2019.0	2019.0	2029.0	2029.0	2029.0	2010.0	2010.0	2020.0	2020.0	2010.0	2010.0	2010.0	2023.0	2023.0	2005.0	2005.0	2005.0	1999.0	1999.0	2011.0	2011.0	2011.0	2008.0	2008.0	2008.0	2008.0	2008.0	1999.0	1999.0	2006.0	2006.0	2006.0	2020.0	2020.0	2015.0	2015.0	2015.0	1994.0	1994.0	1984.0	1984.0	1984.0	2004.0	2004.0	2028.0	2028.0	2028.0	1984.0	1984.0	2020.0	2020.0	2020.0	1991.0	1991.0	1993.0	1993.0	1993.0	1986.0	1986.0	2000.0	2000.0	2000.0	1986.0	1986.0	1997.0	1997.0	1997.0	2000.0	2000.0	1989.0	1989.0	1989.0	1980.0	1980.0	1999.0	1999.0	1999.0	1992.0	1992.0	1988.0	1988.0	1988.0	1976.0	1976.0	1995.0	1995.0	1995.0	1960.0	1960.0	1997.0	1997.0	1997.0	1961.0	1961.0	1977.0	1977.0	1977.0	1963.0	1963.0	1976.0	1976.0	1976.0	1976.0	1976.0	1986.0	1986.0	1986.0	1971.0	1971.0	1966.0	1966.0	1966.0	1968.0	1968.0	1963.0	1963.0	1963.0	1966.0	1966.0	1971.0	1971.0	1971.0	1969.0	1969.0	1960.0	1960.0	1960.0	1974.0	1974.0	1963.0	1963.0	1963.0	1969.0	1969.0	1961.0	1961.0	1961.0	1966.0	1966.0	1956.0	1956.0	1956.0	1961.0	1961.0	1949.0	1949.0	1949.0	1962.0	1962.0	1961.0	1961.0	1961.0	1959.0	1959.0	1952.0	1952.0	1952.0	1955.0	1955.0	1954.0	1954.0	1954.0	1958.0	1958.0	1974.0	1974.0	1974.0	1938.0	1938.0	1940.0	1940.0	1940.0	1950.0	1950.0	1941.0	1941.0	1941.0	1951.0	1951.0	1937.0	1937.0	1937.0	1960.0	1960.0	1960.0	1960.0	1960.0	1947.0	1947.0	1957.0	1957.0	1957.0	1938.0	1938.0	1927.0	1927.0	1927.0	1939.0	1939.0	1943.0	1943.0	1943.0	1938.0	1938.0	1930.0	1930.0	1930.0	1942.0	1942.0	1949.0	1949.0	1929.0	1929.0	1929.0	1938.0	1938.0	1941.0	1941.0	1941.0	1936.0	1936.0	1926.0	1926.0	1926.0	1914.0	1914.0	1925.0	1925.0	1925.0	1947.0	1947.0	1936.0	1936.0	1936.0	1917.0	1917.0	1939.0	1939.0	1939.0	1932.0	1932.0	1938.0	1938.0	1938.0	1940.0	1940.0	1923.0	1923.0	1923.0	1937.0	1937.0	1915.0	1915.0	1915.0	1934.0	1934.0	1934.0	1934.0	1934.0	1918.0	1918.0	1950.0	1950.0	1950.0	1932.0	1932.0	1925.0	1925.0	1925.0	1929.0	1929.0	1924.0	1924.0	1924.0	1929.0	1929.0	1924.0	1924.0	1924.0	1931.0	1931.0	1919.0	1919.0	1919.0	1949.0	1949.0	1935.0	1935.0	1935.0	1938.0	1938.0	1919.0	1919.0	1919.0	1927.0	1927.0	1937.0	1937.0	1937.0	1914.0	1914.0	1926.0	1926.0	1926.0	1922.0	1922.0	1912.0	1912.0	1912.0	1917.0	1917.0	1925.0	1925.0	1925.0	1923.0	1923.0	1931.0	1931.0	1931.0	1913.0	1913.0	1927.0	1927.0	1927.0	1925.0	1925.0	1923.0	1923.0	1923.0	1920.0	1920.0	1917.0	1917.0	1917.0	1923.0	1923.0	1931.0	1931.0	1931.0	1924.0	1924.0	1911.0	1911.0	1911.0	1908.0	1908.0	1919.0	1919.0	1919.0	1933.0	1933.0	1943.0	1943.0	1943.0	1929.0	1929.0	1926.0	1926.0	1926.0	1917.0	1917.0	1942.0	1942.0	1942.0	1934.0	1934.0	1927.0	1927.0	1927.0	1934.0	1934.0	1925.0	1925.0	1925.0	1911.0	1911.0	1943.0	1943.0	1943.0	1943.0	1943.0	1909.0	1909.0	1909.0	1927.0	1927.0	1907.0	1907.0	1907.0	1941.0	1941.0	1934.0	1934.0	1934.0	1924.0	1924.0	1923.0	1923.0	1923.0	1942.0	1942.0	1928.0	1928.0	1928.0	1937.0	1937.0	1937.0	1937.0	1937.0	1938.0	1938.0	1946.0	1946.0	1946.0	1929.0	1929.0	1917.0	1917.0	1911.0	1911.0	1911.0	1922.0	1922.0	1939.0	1939.0	1939.0	1927.0	1927.0	1931.0	1931.0	1931.0	1912.0	1912.0	1909.0	1909.0	1909.0	1919.0	1919.0	1916.0	1916.0	1916.0	1950.0	1950.0	1945.0	1945.0	1945.0	1936.0	1936.0	1935.0	1935.0	1935.0	1923.0	1923.0	1937.0	1937.0	1937.0	1920.0	1920.0	1937.0	1937.0	1937.0	1926.0	1926.0	1932.0	1932.0	1932.0	1913.0	1913.0	1926.0	1926.0	1926.0	1927.0	1927.0	1929.0	1929.0	1929.0	1932.0	1932.0	1948.0	1948.0	1948.0	1923.0	1923.0	1916.0	1916.0	1916.0	1921.0	1921.0	1938.0	1938.0	1938.0	1920.0	1920.0	1925.0	1925.0	1925.0	1921.0	1921.0	1946.0	1946.0	1946.0	1930.0	1930.0	1940.0	1940.0	1940.0	1935.0	1935.0	1911.0	1911.0	1911.0	1948.0	1948.0	1920.0	1920.0	1920.0	1929.0	1929.0	1907.0	1907.0	1907.0	1931.0	1931.0	1927.0	1927.0	1927.0	1915.0	1915.0	1919.0	1919.0	1919.0	1910.0	1910.0	1938.0	1938.0	1938.0	1927.0	1927.0	1929.0	1929.0	1929.0	1921.0	1921.0	1920.0	1920.0	1920.0	1921.0	1921.0	1926.0	1926.0	1926.0	1930.0	1930.0	1933.0	1933.0	1933.0	1903.0	1903.0	1942.0	1942.0	1942.0	1934.0	1934.0	1915.0	1915.0	1915.0	1941.0	1941.0	1916.0	1916.0	1916.0	1922.0	1922.0	1911.0	1911.0	1911.0	1935.0	1935.0	1940.0	1940.0	1940.0	1906.0	1906.0	1916.0	1916.0	1916.0	1929.0	1929.0	1936.0	1936.0	1936.0	1904.0	1904.0	1921.0	1921.0	1921.0	1929.0	1929.0	1907.0	1907.0	1907.0	1912.0	1912.0	1931.0	1931.0	1931.0	1938.0	1938.0	1944.0	1944.0	1944.0	1937.0	1937.0	1944.0	1944.0	1944.0	1940.0	1940.0	1955.0	1955.0	1950.0	1950.0	1950.0	1942.0	1942.0	1946.0	1946.0	1946.0	1961.0	1961.0	1959.0	1959.0	1959.0	1971.0	1971.0	1996.0	1996.0	1996.0	2006.0	2006.0	2013.0	2013.0	2013.0	2025.0	2025.0	2031.0	2031.0	2031.0	2054.0	2054.0	2039.0	2039.0	2039.0	2077.0	2077.0	2064.0	2064.0	2064.0	2083.0	2083.0	2092.0	2092.0	2092.0	2081.0	2081.0	2100.0	2100.0	2100.0	2109.0	2109.0	2134.0	2134.0	2134.0	2138.0	2138.0	2152.0	2152.0	2152.0	2144.0	2144.0	2173.0	2173.0	2173.0	2155.0	2155.0	2166.0	2166.0	2166.0	2193.0	2193.0	2199.0	2199.0	2199.0	2207.0	2207.0	2198.0	2198.0	2198.0	2198.0	2198.0	2194.0	2194.0	2194.0	2216.0	2216.0	2208.0	2208.0	2208.0	2222.0	2222.0	2218.0	2218.0	2218.0	2234.0	2234.0	2216.0	2216.0	2216.0	2223.0	2223.0	2239.0	2239.0	2239.0	2225.0	2225.0	2240.0	2240.0	2240.0	2243.0	2243.0	2254.0	2254.0	2254.0	2246.0	2246.0	2242.0	2242.0	2242.0	2242.0	2242.0	2242.0	2242.0	2242.0	2236.0	2236.0	2244.0	2244.0	2244.0	2238.0	2238.0	2227.0	2227.0	2227.0	2220.0	2220.0	2219.0	2219.0	2219.0	2220.0	2220.0	2228.0	2228.0	2228.0	2243.0	2243.0	2244.0	2244.0	2244.0	2232.0	2232.0	2214.0	2214.0	2214.0	2224.0	2224.0	2212.0	2212.0	2212.0	2225.0	2225.0	2226.0	2226.0	2226.0	2204.0	2204.0	2216.0	2216.0	2216.0	2228.0	2228.0	2233.0	2233.0	2233.0	2202.0	2202.0	2228.0	2228.0	2228.0	2187.0	2187.0	2214.0	2214.0	2214.0	2206.0	2206.0	2200.0	2200.0	2200.0	2200.0	2200.0	2190.0	2190.0	2190.0	2205.0	2205.0	2195.0	2195.0	2195.0	2179.0	2179.0	2214.0	2214.0	2214.0	2202.0	2202.0	2193.0	2193.0	2184.0	2184.0	2184.0	2195.0	2195.0	2186.0	2186.0	2186.0	2181.0	2181.0	2191.0	2191.0	2191.0	2190.0	2190.0	2173.0	2173.0	2173.0	2187.0	2187.0	2150.0	2150.0	2150.0	2175.0	2175.0	2160.0	2160.0	2160.0	2177.0	2177.0	2153.0	2153.0	2153.0	2186.0	2186.0	2163.0	2163.0	2163.0	2161.0	2161.0	2155.0	2155.0	2155.0	2147.0	2147.0	2156.0	2156.0	2156.0	2166.0	2166.0	2140.0	2140.0	2140.0	2137.0	2137.0	2135.0	2135.0	2135.0	2147.0	2147.0	2123.0	2123.0	2123.0	2125.0	2125.0	2134.0	2134.0	2134.0	2122.0	2122.0	2113.0	2113.0	2113.0	2126.0	2126.0	2089.0	2089.0	2089.0	2116.0	2116.0	2106.0	2106.0	2106.0	2091.0	2091.0	2077.0	2077.0	2077.0	2085.0	2085.0	2083.0	2083.0	2083.0	2087.0	2087.0	2057.0	2057.0	2057.0	2079.0	2079.0	2068.0	2068.0	2068.0	2059.0	2059.0	2065.0	2065.0	2065.0	2047.0	2047.0	2063.0	2063.0	2063.0	2038.0	2038.0	2046.0	2046.0	2046.0	2036.0	2036.0	2019.0	2019.0	2019.0	2042.0	2042.0	2035.0	2035.0	2035.0	2039.0	2039.0	2042.0	2042.0	2042.0	2030.0	2030.0	2028.0	2028.0	2028.0	2017.0	2017.0	2022.0	2022.0	2022.0	2039.0	2039.0	2030.0	2030.0	2030.0	2011.0	2011.0	2024.0	2024.0	2024.0	2021.0	2021.0	2016.0	2016.0	2016.0	2031.0	2031.0	2021.0	2021.0	2021.0	2030.0	2030.0	2013.0	2013.0	2013.0	2019.0	2019.0	2007.0	2007.0	2007.0	2025.0	2025.0	2012.0	2012.0	2012.0	2024.0	2024.0	2030.0	2030.0	2030.0	2010.0	2010.0	2003.0	2003.0	2003.0	2025.0	2025.0	2004.0	2004.0	2004.0	1991.0	1991.0	2033.0	2033.0	2033.0	1995.0	1995.0	2013.0	2013.0	2011.0	2011.0	2011.0	1996.0	1996.0	2008.0	2008.0	2008.0	2002.0	2002.0	2007.0	2007.0	2007.0	1999.0	1999.0	2009.0	2009.0	2009.0	2013.0	2013.0	2016.0	2016.0	2016.0	1997.0	1997.0	2025.0	2025.0	2025.0	2026.0	2026.0	2019.0	2019.0	2019.0	2016.0	2016.0	2001.0	2001.0	2001.0	1987.0	1987.0	2011.0	2011.0	2011.0	1995.0	1995.0	1998.0	1998.0	1998.0	2005.0	2005.0	2002.0	2002.0	2002.0	2001.0	2001.0	1992.0	1992.0	1992.0	1976.0	1976.0	1981.0	1981.0	1981.0	1998.0	1998.0	1991.0	1991.0	1991.0	1977.0	1977.0	1988.0	1988.0	1988.0	1981.0	1981.0	1984.0	1984.0	1984.0	1993.0	1993.0	1976.0	1976.0	1976.0	1988.0	1988.0	1995.0	1995.0	1995.0	1969.0	1969.0	1989.0	1989.0	1989.0	1969.0	1969.0	1960.0	1960.0	1960.0	1985.0	1985.0	1966.0	1966.0	1966.0	1973.0	1973.0	1963.0	1963.0	1963.0	1983.0	1983.0	1956.0	1956.0	1956.0	1969.0	1969.0	1962.0	1962.0	1962.0	1961.0	1961.0	1962.0	1962.0	1962.0	1966.0	1966.0	1987.0	1987.0	1987.0	1963.0	1963.0	1956.0	1956.0	1956.0	1974.0	1974.0	1965.0	1965.0	1965.0	1962.0	1962.0	1956.0	