3900.0	3900.0	3881.0	3881.0	3881.0	3882.0	3882.0	3844.0	3844.0	3844.0	3811.0	3811.0	3805.0	3805.0	3805.0	3753.0	3753.0	3754.0	3754.0	3754.0	3719.0	3719.0	3699.0	3699.0	3699.0	3696.0	3696.0	3633.0	3633.0	3633.0	3631.0	3631.0	3594.0	3594.0	3594.0	3571.0	3571.0	3580.0	3580.0	3580.0	3614.0	3614.0	3587.0	3587.0	3587.0	3566.0	3566.0	3471.0	3471.0	3471.0	3492.0	3492.0	3485.0	3485.0	3485.0	3409.0	3409.0	3466.0	3466.0	3466.0	3373.0	3373.0	3408.0	3408.0	3408.0	3369.0	3369.0	3322.0	3322.0	3322.0	3299.0	3299.0	3296.0	3296.0	3296.0	3305.0	3305.0	3325.0	3325.0	3325.0	3249.0	3249.0	3275.0	3275.0	3275.0	3243.0	3243.0	3217.0	3217.0	3217.0	3188.0	3188.0	3147.0	3147.0	3147.0	3167.0	3167.0	3124.0	3124.0	3124.0	3149.0	3149.0	3160.0	3160.0	3160.0	3149.0	3149.0	3064.0	3064.0	3064.0	3043.0	3043.0	3110.0	3110.0	3110.0	3028.0	3028.0	3028.0	3028.0	3028.0	2982.0	2982.0	3051.0	3051.0	3051.0	3027.0	3027.0	3021.0	3021.0	3021.0	2930.0	2930.0	2920.0	2920.0	2920.0	2905.0	2905.0	2971.0	2971.0	2971.0	2915.0	2915.0	2926.0	2926.0	2926.0	2922.0	2922.0	2921.0	2921.0	2921.0	2855.0	2855.0	2863.0	2863.0	2863.0	2805.0	2805.0	2787.0	2787.0	2787.0	2779.0	2779.0	2834.0	2834.0	2834.0	2832.0	2832.0	2744.0	2744.0	2806.0	2806.0	2806.0	2740.0	2740.0	2717.0	2717.0	2717.0	2716.0	2716.0	2699.0	2699.0	2699.0	2730.0	2730.0	2684.0	2684.0	2684.0	2658.0	2658.0	2648.0	2648.0	2648.0	2702.0	2702.0	2650.0	2650.0	2650.0	2678.0	2678.0	2595.0	2595.0	2595.0	2636.0	2636.0	2659.0	2659.0	2659.0	2583.0	2583.0	2611.0	2611.0	2611.0	2560.0	2560.0	2551.0	2551.0	2551.0	2610.0	2610.0	2594.0	2594.0	2594.0	2562.0	2562.0	2552.0	2552.0	2552.0	2561.0	2561.0	2527.0	2527.0	2527.0	2479.0	2479.0	2548.0	2548.0	2548.0	2516.0	2516.0	2479.0	2479.0	2479.0	2516.0	2516.0	2475.0	2475.0	2475.0	2471.0	2471.0	2460.0	2460.0	2460.0	2470.0	2470.0	2429.0	2429.0	2429.0	2429.0	2429.0	2398.0	2398.0	2398.0	2384.0	2384.0	2376.0	2376.0	2376.0	2368.0	2368.0	2432.0	2432.0	2432.0	2424.0	2424.0	2411.0	2411.0	2411.0	2374.0	2374.0	2375.0	2375.0	2375.0	2399.0	2399.0	2316.0	2316.0	2316.0	2381.0	2381.0	2347.0	2347.0	2347.0	2310.0	2310.0	2286.0	2286.0	2286.0	2358.0	2358.0	2326.0	2326.0	2326.0	2270.0	2270.0	2259.0	2259.0	2259.0	2295.0	2295.0	2298.0	2298.0	2298.0	2323.0	2323.0	2244.0	2244.0	2244.0	2303.0	2303.0	2235.0	2235.0	2235.0	2261.0	2261.0	2302.0	2302.0	2302.0	2222.0	2222.0	2232.0	2232.0	2232.0	2213.0	2213.0	2217.0	2217.0	2217.0	2225.0	2225.0	2268.0	2268.0	2268.0	2221.0	2221.0	2234.0	2234.0	2234.0	2250.0	2250.0	2168.0	2168.0	2168.0	2240.0	2240.0	2236.0	2236.0	2236.0	2157.0	2157.0	2164.0	2164.0	2164.0	2219.0	2219.0	2139.0	2139.0	2139.0	2196.0	2196.0	2202.0	2202.0	2116.0	2116.0	2116.0	2200.0	2200.0	2114.0	2114.0	2114.0	2188.0	2188.0	2128.0	2128.0	2128.0	2103.0	2103.0	2176.0	2176.0	2176.0	2174.0	2174.0	2133.0	2133.0	2133.0	2114.0	2114.0	2081.0	2081.0	2081.0	2123.0	2123.0	2106.0	2106.0	2106.0	2052.0	2052.0	2099.0	2099.0	2099.0	2119.0	2119.0	2051.0	2051.0	2051.0	2096.0	2096.0	2096.0	2096.0	2096.0	2067.0	2067.0	2104.0	2104.0	2104.0	2017.0	2017.0	2014.0	2014.0	2014.0	2091.0	2091.0	2026.0	2026.0	2026.0	2009.0	2009.0	2080.0	2080.0	2080.0	2002.0	2002.0	2061.0	2061.0	2061.0	2008.0	2008.0	2058.0	2058.0	2058.0	2006.0	2006.0	2017.0	2017.0	2017.0	2041.0	2041.0	2063.0	2063.0	2063.0	2108.0	2108.0	2078.0	2078.0	2078.0	2063.0	2063.0	2083.0	2083.0	2083.0	2097.0	2097.0	2173.0	2173.0	2173.0	2164.0	2164.0	2229.0	2229.0	2229.0	2275.0	2275.0	2254.0	2254.0	2254.0	2292.0	2292.0	2350.0	2350.0	2350.0	2346.0	2346.0	2396.0	2396.0	2396.0	2388.0	2388.0	2443.0	2443.0	2443.0	2495.0	2495.0	2572.0	2572.0	2572.0	2574.0	2574.0	2638.0	2638.0	2638.0	2619.0	2619.0	2665.0	2665.0	2665.0	2681.0	2681.0	2679.0	2679.0	2679.0	2782.0	2782.0	2755.0	2755.0	2755.0	2834.0	2834.0	2814.0	2814.0	2814.0	2820.0	2820.0	2829.0	2829.0	2829.0	2904.0	2904.0	2945.0	2945.0	2945.0	2956.0	2956.0	2911.0	2911.0	2911.0	2963.0	2963.0	2906.0	2906.0	2906.0	2968.0	2968.0	2976.0	2976.0	2976.0	2923.0	2923.0	2957.0	2957.0	2957.0	2923.0	2923.0	2983.0	2983.0	2983.0	2910.0	2910.0	2905.0	2905.0	2905.0	2908.0	2908.0	2917.0	2917.0	2917.0	2939.0	2939.0	2889.0	2889.0	2886.0	2886.0	2886.0	2918.0	2918.0	2861.0	2861.0	2861.0	2851.0	2851.0	2923.0	2923.0	2923.0	2877.0	2877.0	2899.0	2899.0	2899.0	2896.0	2896.0	2872.0	2872.0	2872.0	2871.0	2871.0	2835.0	2835.0	2835.0	2783.0	2783.0	2814.0	2814.0	2814.0	2786.0	2786.0	2746.0	2746.0	2746.0	2741.0	2741.0	2775.0	2775.0	2775.0	2784.0	2784.0	2733.0	2733.0	2733.0	2753.0	2753.0	2740.0	2740.0	2740.0	2723.0	2723.0	2697.0	2697.0	2697.0	2712.0	2712.0	2717.0	2717.0	2717.0	2716.0	2716.0	2640.0	2640.0	2640.0	2675.0	2675.0	2655.0	2655.0	2655.0	2680.0	2680.0	2631.0	2631.0	2631.0	2659.0	2659.0	2630.0	2630.0	2630.0	2612.0	2612.0	2640.0	2640.0	2640.0	2596.0	2596.0	2584.0	2584.0	2584.0	2633.0	2633.0	2630.0	2630.0	2630.0	2563.0	2563.0	2553.0	2553.0	2553.0	2557.0	2557.0	2618.0	2618.0	2618.0	2523.0	2523.0	2537.0	2537.0	2537.0	2594.0	2594.0	2530.0	2530.0	2530.0	2560.0	2560.0	2492.0	2492.0	2492.0	2536.0	2536.0	2458.0	2458.0	2458.0	2440.0	2440.0	2518.0	2518.0	2518.0	2484.0	2484.0	2456.0	2456.0	2456.0	2433.0	2433.0	2395.0	2395.0	2395.0	2440.0	2440.0	2376.0	2376.0	2376.0	2413.0	2413.0	2408.0	2408.0	2408.0	2319.0	2319.0	2380.0	2380.0	2380.0	2292.0	2292.0	2326.0	2326.0	2326.0	2331.0	2331.0	2275.0	2275.0	2275.0	2251.0	2251.0	2284.0	2284.0	2284.0	2217.0	2217.0	2219.0	2219.0	2219.0	2260.0	2260.0	2254.0	2254.0	2254.0	2179.0	2179.0	2196.0	2196.0	2196.0	2212.0	2212.0	2221.0	2221.0	2221.0	2154.0	2154.0	2144.0	2144.0	2144.0	2195.0	2195.0	2125.0	2125.0	2131.0	2131.0	2131.0	2204.0	2204.0	2162.0	2162.0	2162.0	2197.0	2197.0	2134.0	2134.0	2134.0	2136.0	2136.0	2121.0	2121.0	2121.0	2151.0	2151.0	2124.0	2124.0	2124.0	2200.0	2200.0	2131.0	2131.0	2131.0	2125.0	2125.0	2206.0	2206.0	2206.0	2121.0	2121.0	2196.0	2196.0	2196.0	2199.0	2199.0	2129.0	2129.0	2129.0	2157.0	2157.0	2186.0	2186.0	2186.0	2195.0	2195.0	2202.0	2202.0	2202.0	2206.0	2206.0	2156.0	2156.0	2156.0	2196.0	2196.0	2193.0	2193.0	2193.0	2187.0	2187.0	2177.0	2177.0	2177.0	2124.0	2124.0	2136.0	2136.0	2136.0	2170.0	2170.0	2112.0	2112.0	2112.0	2113.0	2113.0	2130.0	2130.0	2130.0	2143.0	2143.0	2143.0	2143.0	2143.0	2107.0	2107.0	2124.0	2124.0	2124.0	2138.0	2138.0	2078.0	2078.0	2078.0	2153.0	2153.0	2092.0	2092.0	2092.0	2144.0	2144.0	2064.0	2064.0	2064.0	2063.0	2063.0	2083.0	2083.0	2083.0	2098.0	2098.0	2092.0	2092.0	2092.0	2115.0	2115.0	2112.0	2112.0	2112.0	2100.0	2100.0	2063.0	2063.0	2063.0	2044.0	2044.0	2077.0	2077.0	2077.0	2091.0	2091.0	2035.0	2035.0	2035.0	2015.0	2015.0	2008.0	2008.0	2008.0	1996.0	1996.0	2044.0	2044.0	2044.0	2012.0	2012.0	1979.0	1979.0	1979.0	2033.0	2033.0	2036.0	2036.0	2036.0	2047.0	2047.0	2005.0	2005.0	2005.0	1972.0	1972.0	1955.0	1955.0	1955.0	1971.0	1971.0	1969.0	1969.0	1969.0	1968.0	1968.0	1990.0	1990.0	1990.0	2006.0	2006.0	1938.0	1938.0	1938.0	1936.0	1936.0	1921.0	1921.0	1921.0	1948.0	1948.0	1950.0	1950.0	1950.0	1936.0	1936.0	1923.0	1923.0	1923.0	1981.0	1981.0	1973.0	1973.0	1973.0	1900.0	1900.0	1894.0	1894.0	1904.0	1904.0	1904.0	1950.0	1950.0	1953.0	1953.0	1953.0	1887.0	1887.0	1962.0	1962.0	1962.0	1941.0	1941.0	1908.0	1908.0	1908.0	1913.0	1913.0	1915.0	1915.0	1915.0	1940.0	1940.0	1912.0	1912.0	1912.0	1910.0	1910.0	1856.0	1856.0	1856.0	1908.0	1908.0	1854.0	1854.0	1854.0	1863.0	1863.0	1849.0	1849.0	1849.0	1912.0	1912.0	1918.0	1918.0	1918.0	1863.0	1863.0	1840.0	1840.0	1840.0	1844.0	1844.0	1884.0	1884.0	1884.0	1832.0	1832.0	1865.0	1865.0	1865.0	1842.0	1842.0	1873.0	1873.0	1873.0	1825.0	1825.0	1818.0	1818.0	1818.0	1808.0	1808.0	1817.0	1817.0	1817.0	1807.0	1807.0	1886.0	1886.0	1886.0	1825.0	1825.0	1871.0	1871.0	1871.0	1815.0	1815.0	1835.0	1835.0	1835.0	1867.0	1867.0	1792.0	1792.0	1792.0	1843.0	1843.0	1864.0	1864.0	1864.0	1790.0	1790.0	1810.0	1810.0	1810.0	1818.0	1818.0	1790.0	1790.0	1790.0	1775.0	1775.0	1834.0	1834.0	1834.0	1809.0	1809.0	1847.0	1847.0	1847.0	1824.0	1824.0	1801.0	1801.0	1801.0	1828.0	1828.0	1808.0	1808.0	1808.0	1831.0	1831.0	1790.0	1790.0	1790.0	1762.0	1762.0	1780.0	1780.0	1780.0	1831.0	1831.0	1762.0	1762.0	1762.0	1761.0	1761.0	1753.0	1753.0	1753.0	1775.0	1775.0	1827.0	1827.0	1827.0	1780.0	1780.0	1755.0	1755.0	1755.0	1777.0	1777.0	1799.0	1799.0	1799.0	1747.0	1747.0	1756.0	1756.0	1756.0	1770.0	1770.0	1818.0	1818.0	1818.0	1755.0	1755.0	1821.0	1821.0	1821.0	1788.0	1788.0	1735.0	1735.0	1735.0	1779.0	1779.0	1810.0	1810.0	1810.0	1810.0	1810.0	1809.0	1809.0	1809.0	1798.0	1798.0	1748.0	1748.0	1810.0	1810.0	1810.0	1800.0	1800.0	1749.0	1749.0	1749.0	1806.0	1806.0	1786.0	1786.0	1786.0	1725.0	1725.0	1736.0	1736.0	1736.0	1744.0	1744.0	1715.0	1715.0	1715.0	1775.0	1775.0	1734.0	1734.0	1734.0	1799.0	1799.0	1793.0	1793.0	1793.0	1726.0	1726.0	1715.0	1715.0	1715.0	1782.0	1782.0	1732.0	1732.0	1732.0	1702.0	1702.0	1756.0	1756.0	1756.0	1747.0	1747.0	1706.0	1706.0	1706.0	1718.0	1718.0	1773.0	1773.0	1773.0	1770.0	1770.0	1766.0	1766.0	1766.0	1719.0	1719.0	1689.0	1689.0	1689.0	1697.0	1697.0	1761.0	1761.0	1761.0	1768.0	1768.0	1763.0	1763.0	1763.0	1745.0	1745.0	1699.0	1699.0	1699.0	1737.0	1737.0	1700.0	1700.0	1700.0	1794.0	1794.0	1713.0	1713.0	1713.0	1797.0	1797.0	1713.0	1713.0	1713.0	1742.0	1742.0	1756.0	1756.0	1756.0	1825.0	1825.0	1838.0	1838.0	1838.0	1849.0	1849.0	1812.0	1812.0	1812.0	1865.0	1865.0	1844.0	1844.0	1844.0	1868.0	1868.0	1897.0	1897.0	1897.0	1923.0	1923.0	1951.0	1951.0	1951.0	2043.0	2043.0	2089.0	2089.0	2089.0	2095.0	2095.0	2097.0	2097.0	2097.0	2128.0	2128.0	2175.0	2175.0	2175.0	2224.0	2224.0	2259.0	2259.0	2259.0	2304.0	2304.0	2324.0	2324.0	2324.0	2440.0	2440.0	2458.0	2458.0	2458.0	2467.0	2467.0	2480.0	2480.0	2480.0	2561.0	2561.0	2535.0	2535.0	2535.0	2626.0	2626.0	2615.0	2615.0	2615.0	2607.0	2607.0	2711.0	2711.0	2711.0	2652.0	2652.0	2718.0	2718.0	2718.0	2691.0	2691.0	2703.0	2703.0	2703.0	2755.0	2755.0	2736.0	2736.0	2736.0	2812.0	2812.0	2745.0	2745.0	2745.0	2760.0	2760.0	2822.0	2822.0	2771.0	2771.0	2771.0	2809.0	2809.0	2764.0	2764.0	2764.0	2766.0	2766.0	2831.0	2831.0	2831.0	2775.0	2775.0	2757.0	2757.0	2757.0	2807.0	2807.0	2773.0	2773.0	2773.0	2770.0	2770.0	2758.0	2758.0	2758.0	2727.0	2727.0	2723.0	2723.0	2723.0	2710.0	2710.0	2705.0	2705.0	2705.0	2715.0	2715.0	2767.0	2767.0	2767.0	2734.0	2734.0	2734.0	2734.0	2734.0	2674.0	2674.0	2715.0	2715.0	2715.0	2710.0	2710.0	2641.0	2641.0	2641.0	2676.0	2676.0	2626.0	2626.0	2626.0	2682.0	2682.0	2645.0	2645.0	2645.0	2606.0	2606.0	2594.0	2594.0	2594.0	2644.0	2644.0	2655.0	2655.0	2655.0	2638.0	2638.0	2574.0	2574.0	2574.0	2562.0	2562.0	2557.0	2557.0	2557.0	2631.0	2631.0	2557.0	2557.0	2557.0	2606.0	2606.0	2555.0	2555.0	2555.0	2569.0	2569.0	2534.0	2534.0	2534.0	2592.0	2592.0	2591.0	2591.0	2591.0	2590.0	2590.0	2527.0	2527.0	2527.0	2572.0	2572.0	2575.0	2575.0	2575.0	2573.0	2573.0	2521.0	2521.0	2521.0	2560.0	2560.0	2539.0	2539.0	2539.0	2472.0	2472.0	2464.0	2464.0	2464.0	2476.0	2476.0	2509.0	2509.0	2509.0	2465.0	2465.0	2447.0	2447.0	2447.0	2440.0	2440.0	2453.0	2453.0	2453.0	2457.0	2457.0	2400.0	2400.0	2400.0	2465.0	2465.0	2428.0	2428.0	2428.0	2359.0	2359.0	2405.0	2405.0	2405.0	2348.0	2348.0	2346.0	2346.0	2346.0	2341.0	2341.0	2331.0	2331.0	2331.0	2292.0	2292.0	2344.0	2344.0	2344.0	2303.0	2303.0	2242.0	2242.0	2242.0	2223.0	2223.0	2219.0	2219.0	2219.0	2277.0	2277.0	2202.0	2202.0	2202.0	2204.0	2204.0	2244.0	2244.0	2244.0	2164.0	2164.0	2147.0	2147.0	2147.0	2191.0	2191.0	2138.0	2138.0	2122.0	2122.0	2122.0	2110.0	2110.0	2099.0	2099.0	2099.0	2176.0	2176.0	2106.0	2106.0	2106.0	2159.0	2159.0	2104.0	2104.0	2104.0	2100.0	2100.0	2077.0	2077.0	2077.0	2100.0	2100.0	2078.0	2078.0	2078.0	2060.0	2060.0	2100.0	2100.0	2100.0	2110.0	2110.0	2125.0	2125.0	2125.0	2110.0	2110.0	2114.0	2114.0	2114.0	2082.0	2082.0	2139.0	2139.0	2139.0	2074.0	2074.0	2136.0	2136.0	2136.0	2139.0	2139.0	2138.0	2138.0	2138.0	2072.0	2072.0	2125.0	2125.0	2125.0	2070.0	2070.0	2049.0	2049.0	2049.0	2127.0	2127.0	2079.0	2079.0	2079.0	2062.0	2062.0	2142.0	2142.0	2142.0	2061.0	2061.0	2081.0	2081.0	2081.0	2072.0	2072.0	2049.0	2049.0	2049.0	2063.0	2063.0	2067.0	2067.0	2067.0	2120.0	2120.0	2103.0	2103.0	2103.0	2122.0	2122.0	2051.0	2051.0	2051.0	2046.0	2046.0	2114.0	2114.0	2114.0	2078.0	2078.0	2027.0	2027.0	2027.0	2070.0	2070.0	2022.0	2022.0	2022.0	2065.0	2065.0	2061.0	2061.0	2061.0	2083.0	2083.0	2052.0	2052.0	2052.0	2026.0	2026.0	2024.0	2024.0	2024.0	2006.0	2006.0	2062.0	2062.0	2062.0	2007.0	2007.0	2009.0	2009.0	2009.0	1981.0	1981.0	2050.0	2050.0	2050.0	2067.0	2067.0	2030.0	2030.0	2030.0	2048.0	2048.0	2049.0	2049.0	2049.0	1967.0	1967.0	2004.0	2004.0	2004.0	2015.0	2015.0	1965.0	1965.0	1965.0	1944.0	1944.0	1951.0	1951.0	1951.0	2016.0	2016.0	2014.0	2014.0	2014.0	1961.0	1961.0	1923.0	1923.0	1923.0	1997.0	1997.0	1997.0	1997.0	1997.0	1918.0	1918.0	1945.0	1945.0	1945.0	1963.0	1963.0	1974.0	1974.0	1974.0	1932.0	1932.0	1916.0	1916.0	1903.0	1903.0	1903.0	1971.0	1971.0	1905.0	1905.0	1905.0	1952.0	1952.0	1889.0	1889.0	1889.0	1887.0	1887.0	1878.0	1878.0	1878.0	1900.0	1900.0	1877.0	1877.0	1877.0	1908.0	1908.0	1864.0	1864.0	1864.0	1916.0	1916.0	1860.0	1860.0	1860.0	1926.0	1926.0	1863.0	1863.0	1863.0	1850.0	1850.0	1847.0	1847.0	1847.0	1882.0	1882.0	1861.0	1861.0	1861.0	1846.0	1846.0	1840.0	1840.0	1840.0	1886.0	1886.0	1856.0	1856.0	1856.0	1899.0	1899.0	1885.0	1885.0	1885.0	1819.0	1819.0	1824.0	1824.0	1824.0	1818.0	1818.0	1854.0	1854.0	1854.0	1813.0	1813.0	1869.0	1869.0	1869.0	1854.0	1854.0	1872.0	1872.0	1872.0	1815.0	1815.0	1820.0	1820.0	1820.0	1866.0	1866.0	1818.0	1818.0	1818.0	1825.0	1825.0	1792.0	1792.0	1792.0	1862.0	1862.0	1777.0	1777.0	1777.0	1856.0	1856.0	1856.0	1856.0	1856.0	1805.0	1805.0	1806.0	1806.0	1806.0	1792.0	1792.0	1799.0	1799.0	1799.0	1783.0	1783.0	1844.0	1844.0	1844.0	1782.0	1782.0	1799.0	1799.0	1799.0	1841.0	1841.0	1824.0	1824.0	1824.0	1789.0	1789.0	1797.0	1797.0	1797.0	1788.0	1788.0	1816.0	1816.0	1816.0	1814.0	1814.0	1736.0	1736.0	1736.0	1736.0	1736.0	1745.0	1745.0	1745.0	1787.0	1787.0	1768.0	1768.0	1768.0	1783.0	1783.0	1734.0	1734.0	1734.0	1813.0	1813.0	1735.0	1735.0	1735.0	1762.0	1762.0	1779.0	1779.0	1779.0	1772.0	1772.0	1759.0	1759.0	1759.0	1790.0	1790.0	1795.0	1795.0	1795.0	1795.0	1795.0	1756.0	1756.0	1756.0	1775.0	1775.0	1793.0	1793.0	1793.0	1776.0	1776.0	1791.0	1791.0	1791.0	1735.0	1735.0	1755.0	1755.0	1808.0	1808.0	1808.0	1772.0	1772.0	1760.0	1760.0	1760.0	1795.0	1795.0	1800.0	1800.0	1800.0	1765.0	1765.0	1779.0	1779.0	1779.0	1727.0	1727.0	1726.0	1726.0	1726.0	1752.0	1752.0	1720.0	1720.0	1720.0	1797.0	1797.0	1763.0	1763.0	1763.0	1738.0	1738.0	1782.0	1782.0	1782.0	1710.0	1710.0	1733.0	1733.0	1733.0	1747.0	1747.0	1747.0	1747.0	1747.0	1751.0	1751.0	1705.0	1705.0	1705.0	1775.0	1775.0	1767.0	1767.0	1767.0	1753.0	1753.0	1721.0	1721.0	1721.0	1698.0	1698.0	1764.0	1764.0	1764.0	1722.0	1722.0	1755.0	1755.0	1755.0	1723.0	1723.0	1691.0	1691.0	1691.0	1746.0	1746.0	1727.0	1727.0	1727.0	1713.0	1713.0	1742.0	1742.0	1742.0	1742.0	1742.0	1693.0	1693.0	1693.0	1736.0	1736.0	1670.0	1670.0	1670.0	