1919.0	1887.0	1887.0	1954.0	1954.0	1954.0	1899.0	1899.0	1927.0	1927.0	1927.0	1941.0	1941.0	1917.0	1917.0	1917.0	1928.0	1928.0	1916.0	1916.0	1916.0	1907.0	1907.0	1906.0	1906.0	1906.0	1928.0	1928.0	1901.0	1901.0	1901.0	1865.0	1865.0	1883.0	1883.0	1883.0	1864.0	1864.0	1918.0	1918.0	1918.0	1865.0	1865.0	1913.0	1913.0	1913.0	1928.0	1928.0	1897.0	1897.0	1897.0	1886.0	1886.0	1886.0	1886.0	1886.0	1870.0	1870.0	1880.0	1880.0	1880.0	1878.0	1878.0	1904.0	1904.0	1904.0	1896.0	1896.0	1864.0	1864.0	1864.0	1886.0	1886.0	1865.0	1865.0	1865.0	1904.0	1904.0	1849.0	1849.0	1849.0	1880.0	1880.0	1882.0	1882.0	1882.0	1900.0	1900.0	1884.0	1884.0	1884.0	1858.0	1858.0	1895.0	1895.0	1895.0	1901.0	1901.0	1857.0	1857.0	1857.0	1894.0	1894.0	1888.0	1888.0	1888.0	1869.0	1869.0	1850.0	1850.0	1850.0	1900.0	1900.0	1844.0	1844.0	1844.0	1840.0	1840.0	1888.0	1888.0	1888.0	1835.0	1835.0	1847.0	1847.0	1847.0	1834.0	1834.0	1891.0	1891.0	1891.0	1890.0	1890.0	1864.0	1864.0	1864.0	1840.0	1840.0	1883.0	1883.0	1883.0	1885.0	1885.0	1846.0	1846.0	1846.0	1886.0	1886.0	1862.0	1862.0	1862.0	1887.0	1887.0	1889.0	1889.0	1889.0	1890.0	1890.0	1869.0	1869.0	1869.0	1848.0	1848.0	1886.0	1886.0	1886.0	1855.0	1855.0	1863.0	1863.0	1863.0	1882.0	1882.0	1845.0	1845.0	1845.0	1850.0	1850.0	1902.0	1902.0	1902.0	1860.0	1860.0	1867.0	1867.0	1867.0	1866.0	1866.0	1856.0	1856.0	1856.0	1905.0	1905.0	1864.0	1864.0	1864.0	1881.0	1881.0	1915.0	1915.0	1915.0	1886.0	1886.0	1871.0	1871.0	1871.0	1916.0	1916.0	1902.0	1902.0	1912.0	1912.0	1912.0	1894.0	1894.0	1932.0	1932.0	1932.0	1873.0	1873.0	1880.0	1880.0	1880.0	1913.0	1913.0	1865.0	1865.0	1865.0	1928.0	1928.0	1879.0	1879.0	1879.0	1895.0	1895.0	1910.0	1910.0	1910.0	1913.0	1913.0	1903.0	1903.0	1903.0	1927.0	1927.0	1916.0	1916.0	1916.0	1884.0	1884.0	1911.0	1911.0	1911.0	1901.0	1901.0	1894.0	1894.0	1894.0	1894.0	1894.0	1934.0	1934.0	1934.0	1944.0	1944.0	1886.0	1886.0	1886.0	1944.0	1944.0	1929.0	1929.0	1929.0	1889.0	1889.0	1932.0	1932.0	1932.0	1923.0	1923.0	1930.0	1930.0	1930.0	1936.0	1936.0	1922.0	1922.0	1922.0	1913.0	1913.0	1937.0	1937.0	1937.0	1953.0	1953.0	1947.0	1947.0	1947.0	1935.0	1935.0	1965.0	1965.0	1965.0	1969.0	1969.0	1935.0	1935.0	1935.0	1941.0	1941.0	1985.0	1985.0	1985.0	1926.0	1926.0	1985.0	1985.0	1985.0	1968.0	1968.0	1953.0	1953.0	1953.0	1986.0	1986.0	1976.0	1976.0	1976.0	1970.0	1970.0	1994.0	1994.0	1994.0	2028.0	2028.0	2042.0	2042.0	2042.0	2011.0	2011.0	2077.0	2077.0	2077.0	2075.0	2075.0	2095.0	2095.0	2095.0	2097.0	2097.0	2119.0	2119.0	2119.0	2108.0	2108.0	2182.0	2182.0	2182.0	2150.0	2150.0	2194.0	2194.0	2194.0	2231.0	2231.0	2260.0	2260.0	2260.0	2270.0	2270.0	2309.0	2309.0	2309.0	2298.0	2298.0	2296.0	2296.0	2296.0	2367.0	2367.0	2349.0	2349.0	2349.0	2413.0	2413.0	2424.0	2424.0	2424.0	2450.0	2450.0	2426.0	2426.0	2426.0	2450.0	2450.0	2480.0	2480.0	2480.0	2485.0	2485.0	2480.0	2480.0	2480.0	2529.0	2529.0	2543.0	2543.0	2543.0	2548.0	2548.0	2571.0	2571.0	2566.0	2566.0	2566.0	2541.0	2541.0	2586.0	2586.0	2586.0	2612.0	2612.0	2614.0	2614.0	2614.0	2561.0	2561.0	2573.0	2573.0	2573.0	2604.0	2604.0	2611.0	2611.0	2611.0	2599.0	2599.0	2565.0	2565.0	2565.0	2557.0	2557.0	2579.0	2579.0	2579.0	2589.0	2589.0	2583.0	2583.0	2583.0	2569.0	2569.0	2541.0	2541.0	2541.0	2556.0	2556.0	2580.0	2580.0	2580.0	2542.0	2542.0	2547.0	2547.0	2547.0	2530.0	2530.0	2577.0	2577.0	2577.0	2549.0	2549.0	2555.0	2555.0	2555.0	2512.0	2512.0	2523.0	2523.0	2523.0	2546.0	2546.0	2508.0	2508.0	2508.0	2535.0	2535.0	2501.0	2501.0	2501.0	2458.0	2458.0	2484.0	2484.0	2484.0	2479.0	2479.0	2462.0	2462.0	2462.0	2457.0	2457.0	2482.0	2482.0	2482.0	2474.0	2474.0	2474.0	2474.0	2474.0	2437.0	2437.0	2419.0	2419.0	2419.0	2461.0	2461.0	2460.0	2460.0	2460.0	2444.0	2444.0	2403.0	2403.0	2403.0	2440.0	2440.0	2433.0	2433.0	2433.0	2387.0	2387.0	2380.0	2380.0	2380.0	2387.0	2387.0	2395.0	2395.0	2395.0	2404.0	2404.0	2361.0	2361.0	2361.0	2347.0	2347.0	2366.0	2366.0	2366.0	2387.0	2387.0	2354.0	2354.0	2354.0	2331.0	2331.0	2348.0	2348.0	2348.0	2311.0	2311.0	2316.0	2316.0	2316.0	2319.0	2319.0	2303.0	2303.0	2303.0	2334.0	2334.0	2309.0	2309.0	2309.0	2315.0	2315.0	2315.0	2315.0	2315.0	2312.0	2312.0	2312.0	2312.0	2312.0	2316.0	2316.0	2260.0	2260.0	2260.0	2303.0	2303.0	2279.0	2279.0	2279.0	2230.0	2230.0	2252.0	2252.0	2252.0	2261.0	2261.0	2212.0	2212.0	2212.0	2248.0	2248.0	2235.0	2235.0	2235.0	2216.0	2216.0	2180.0	2180.0	2233.0	2233.0	2233.0	2189.0	2189.0	2170.0	2170.0	2170.0	2194.0	2194.0	2156.0	2156.0	2156.0	2159.0	2159.0	2153.0	2153.0	2153.0	2194.0	2194.0	2155.0	2155.0	2155.0	2099.0	2099.0	2146.0	2146.0	2146.0	2107.0	2107.0	2106.0	2106.0	2106.0	2091.0	2091.0	2134.0	2134.0	2134.0	2136.0	2136.0	2097.0	2097.0	2097.0	2080.0	2080.0	2080.0	2080.0	2080.0	2126.0	2126.0	2099.0	2099.0	2099.0	2090.0	2090.0	2099.0	2099.0	2099.0	2114.0	2114.0	2084.0	2084.0	2084.0	2064.0	2064.0	2120.0	2120.0	2120.0	2105.0	2105.0	2106.0	2106.0	2106.0	2111.0	2111.0	2100.0	2100.0	2100.0	2106.0	2106.0	2055.0	2055.0	2055.0	2073.0	2073.0	2091.0	2091.0	2091.0	2083.0	2083.0	2033.0	2033.0	2033.0	2067.0	2067.0	2091.0	2091.0	2091.0	2026.0	2026.0	2051.0	2051.0	2051.0	2050.0	2050.0	2088.0	2088.0	2088.0	2068.0	2068.0	2044.0	2044.0	2044.0	2090.0	2090.0	2050.0	2050.0	2050.0	2028.0	2028.0	2050.0	2050.0	2050.0	2018.0	2018.0	2035.0	2035.0	2035.0	2072.0	2072.0	2057.0	2057.0	2057.0	2035.0	2035.0	2030.0	2030.0	2030.0	2015.0	2015.0	2062.0	2062.0	2062.0	2026.0	2026.0	2063.0	2063.0	2063.0	2022.0	2022.0	2055.0	2055.0	2055.0	2043.0	2043.0	2051.0	2051.0	2051.0	2040.0	2040.0	2058.0	2058.0	2058.0	2000.0	2000.0	2050.0	2050.0	2050.0	1986.0	1986.0	2048.0	2048.0	2048.0	1982.0	1982.0	1973.0	1973.0	1973.0	1978.0	1978.0	1983.0	1983.0	1983.0	2007.0	2007.0	2000.0	2000.0	2000.0	1973.0	1973.0	2016.0	2016.0	2016.0	2015.0	2015.0	1964.0	1964.0	1964.0	1982.0	1982.0	1990.0	1990.0	1990.0	2010.0	2010.0	1973.0	1973.0	1985.0	1985.0	1985.0	2009.0	2009.0	1964.0	1964.0	1964.0	1987.0	1987.0	1970.0	1970.0	1970.0	1965.0	1965.0	1962.0	1962.0	1962.0	1924.0	1924.0	1981.0	1981.0	1981.0	1982.0	1982.0	1976.0	1976.0	1976.0	1974.0	1974.0	1933.0	1933.0	1933.0	1921.0	1921.0	1925.0	1925.0	1925.0	1932.0	1932.0	1938.0	1938.0	1938.0	1939.0	1939.0	1965.0	1965.0	1965.0	1899.0	1899.0	1934.0	1934.0	1934.0	1906.0	1906.0	1929.0	1929.0	1929.0	1933.0	1933.0	1916.0	1916.0	1916.0	1930.0	1930.0	1930.0	1930.0	1930.0	1935.0	1935.0	1931.0	1931.0	1931.0	1890.0	1890.0	1862.0	1862.0	1862.0	1873.0	1873.0	1866.0	1866.0	1866.0	1891.0	1891.0	1923.0	1923.0	1923.0	1917.0	1917.0	1923.0	1923.0	1923.0	1893.0	1893.0	1916.0	1916.0	1916.0	1912.0	1912.0	1892.0	1892.0	1892.0	1912.0	1912.0	1919.0	1919.0	1919.0	1870.0	1870.0	1892.0	1892.0	1892.0	1896.0	1896.0	1895.0	1895.0	1895.0	1848.0	1848.0	1870.0	1870.0	1870.0	1871.0	1871.0	1837.0	1837.0	1837.0	1855.0	1855.0	1877.0	1877.0	1877.0	1877.0	1877.0	1893.0	1893.0	1893.0	1847.0	1847.0	1863.0	1863.0	1863.0	1894.0	1894.0	1860.0	1860.0	1860.0	1899.0	1899.0	1836.0	1836.0	1836.0	1873.0	1873.0	1840.0	1840.0	1840.0	1859.0	1859.0	1835.0	1835.0	1835.0	1879.0	1879.0	1855.0	1855.0	1855.0	1881.0	1881.0	1843.0	1843.0	1843.0	1846.0	1846.0	1836.0	1836.0	1836.0	1830.0	1830.0	1892.0	1892.0	1892.0	1830.0	1830.0	1841.0	1841.0	1841.0	1891.0	1891.0	1838.0	1838.0	1838.0	1874.0	1874.0	1865.0	1865.0	1865.0	1880.0	1880.0	1844.0	1844.0	1841.0	1841.0	1841.0	1899.0	1899.0	1852.0	1852.0	1852.0	1880.0	1880.0	1864.0	1864.0	1864.0	1853.0	1853.0	1844.0	1844.0	1844.0	1880.0	1880.0	1875.0	1875.0	1875.0	1880.0	1880.0	1868.0	1868.0	1868.0	1880.0	1880.0	1871.0	1871.0	1871.0	1888.0	1888.0	1860.0	1860.0	1860.0	1876.0	1876.0	1878.0	1878.0	1878.0	1870.0	1870.0	1868.0	1868.0	1868.0	1902.0	1902.0	1882.0	1882.0	1882.0	1921.0	1921.0	1868.0	1868.0	1868.0	1906.0	1906.0	1905.0	1905.0	1905.0	1935.0	1935.0	1926.0	1926.0	1926.0	1916.0	1916.0	1879.0	1879.0	1879.0	1881.0	1881.0	1921.0	1921.0	1921.0	1888.0	1888.0	1882.0	1882.0	1882.0	1904.0	1904.0	1891.0	1891.0	1891.0	1939.0	1939.0	1890.0	1890.0	1890.0	1877.0	1877.0	1892.0	1892.0	1892.0	1931.0	1931.0	1900.0	1900.0	1900.0	1912.0	1912.0	1931.0	1931.0	1931.0	1902.0	1902.0	1900.0	1900.0	1900.0	1923.0	1923.0	1943.0	1943.0	1943.0	1938.0	1938.0	1915.0	1915.0	1915.0	1906.0	1906.0	1932.0	1932.0	1932.0	1943.0	1943.0	1956.0	1956.0	1956.0	1911.0	1911.0	1897.0	1897.0	1897.0	1936.0	1936.0	1936.0	1936.0	1936.0	1956.0	1956.0	1934.0	1934.0	1934.0	1897.0	1897.0	1943.0	1943.0	1943.0	1956.0	1956.0	1935.0	1935.0	1935.0	1893.0	1893.0	1918.0	1918.0	1918.0	1939.0	1939.0	1931.0	1931.0	1931.0	1972.0	1972.0	1923.0	1923.0	1923.0	1926.0	1926.0	1988.0	1988.0	1988.0	1981.0	1981.0	1941.0	1941.0	1941.0	1944.0	1944.0	1998.0	1998.0	1998.0	1978.0	1978.0	2011.0	2011.0	2011.0	2031.0	2031.0	2069.0	2069.0	2069.0	2026.0	2026.0	2039.0	2039.0	2102.0	2102.0	2102.0	2083.0	2083.0	2141.0	2141.0	2141.0	2144.0	2144.0	2129.0	2129.0	2129.0	2182.0	2182.0	2227.0	2227.0	2227.0	2241.0	2241.0	2221.0	2221.0	2221.0	2296.0	2296.0	2263.0	2263.0	2263.0	2330.0	2330.0	2355.0	2355.0	2355.0	2345.0	2345.0	2405.0	2405.0	2405.0	2389.0	2389.0	2459.0	2459.0	2459.0	2474.0	2474.0	2474.0	2474.0	2474.0	2460.0	2460.0	2506.0	2506.0	2506.0	2495.0	2495.0	2520.0	2520.0	2520.0	2529.0	2529.0	2533.0	2533.0	2533.0	2583.0	2583.0	2552.0	2552.0	2552.0	2578.0	2578.0	2604.0	2604.0	2604.0	2585.0	2585.0	2585.0	2585.0	2585.0	2603.0	2603.0	2575.0	2575.0	2575.0	2605.0	2605.0	2597.0	2597.0	2597.0	2591.0	2591.0	2586.0	2586.0	2586.0	2582.0	2582.0	2585.0	2585.0	2585.0	2639.0	2639.0	2594.0	2594.0	2594.0	2593.0	2593.0	2568.0	2568.0	2568.0	2568.0	2568.0	2611.0	2611.0	2611.0	2610.0	2610.0	2594.0	2594.0	2594.0	2554.0	2554.0	2548.0	2548.0	2548.0	2589.0	2589.0	2546.0	2546.0	2546.0	2551.0	2551.0	2521.0	2521.0	2521.0	2508.0	2508.0	2543.0	2543.0	2543.0	2536.0	2536.0	2529.0	2529.0	2529.0	2515.0	2515.0	2525.0	2525.0	2525.0	2482.0	2482.0	2532.0	2532.0	2532.0	2474.0	2474.0	2465.0	2465.0	2465.0	2447.0	2447.0	2483.0	2483.0	2483.0	2482.0	2482.0	2481.0	2481.0	2481.0	2471.0	2471.0	2428.0	2428.0	2428.0	2471.0	2471.0	2432.0	2432.0	2432.0	2424.0	2424.0	2407.0	2407.0	2407.0	2424.0	2424.0	2446.0	2446.0	2446.0	2397.0	2397.0	2387.0	2387.0	2387.0	2362.0	2362.0	2356.0	2356.0	2356.0	2381.0	2381.0	2407.0	2407.0	2407.0	2374.0	2374.0	2395.0	2395.0	2359.0	2359.0	2359.0	2327.0	2327.0	2324.0	2324.0	2324.0	2311.0	2311.0	2349.0	2349.0	2349.0	2309.0	2309.0	2352.0	2352.0	2352.0	2290.0	2290.0	2335.0	2335.0	2335.0	2307.0	2307.0	2319.0	2319.0	2319.0	2312.0	2312.0	2314.0	2314.0	2314.0	2260.0	2260.0	2273.0	2273.0	2273.0	2246.0	2246.0	2229.0	2229.0	2229.0	2248.0	2248.0	2244.0	2244.0	2244.0	2242.0	2242.0	2248.0	2248.0	2248.0	2194.0	2194.0	2195.0	2195.0	2195.0	2202.0	2202.0	2218.0	2218.0	2218.0	2179.0	2179.0	2183.0	2183.0	2183.0	2183.0	2183.0	2155.0	2155.0	2155.0	2173.0	2173.0	2195.0	2195.0	2195.0	2192.0	2192.0	2170.0	2170.0	2170.0	2174.0	2174.0	2127.0	2127.0	2127.0	2105.0	2105.0	2116.0	2116.0	2116.0	2142.0	2142.0	2111.0	2111.0	2111.0	2145.0	2145.0	2072.0	2072.0	2072.0	2135.0	2135.0	2101.0	2101.0	2101.0	2125.0	2125.0	2088.0	2088.0	2088.0	2063.0	2063.0	2084.0	2084.0	2084.0	2107.0	2107.0	2105.0	2105.0	2105.0	2051.0	2051.0	2111.0	2111.0	2111.0	2072.0	2072.0	2092.0	2092.0	2092.0	2107.0	2107.0	2080.0	2080.0	2080.0	2103.0	2103.0	2070.0	2070.0	2070.0	2105.0	2105.0	2100.0	2100.0	2100.0	2101.0	2101.0	2086.0	2086.0	2086.0	2047.0	2047.0	2047.0	2047.0	2047.0	2036.0	2036.0	2064.0	2064.0	2064.0	2067.0	2067.0	2066.0	2066.0	2066.0	2055.0	2055.0	2057.0	2057.0	2057.0	2087.0	2087.0	2069.0	2069.0	2069.0	2046.0	2046.0	2021.0	2021.0	2021.0	2036.0	2036.0	2029.0	2029.0	2029.0	2053.0	2053.0	2042.0	2042.0	2042.0	2025.0	2025.0	2018.0	2018.0	2018.0	2041.0	2041.0	2019.0	2019.0	2026.0	2026.0	2026.0	2068.0	2068.0	2071.0	2071.0	2071.0	2050.0	2050.0	2042.0	2042.0	2042.0	2030.0	2030.0	2015.0	2015.0	2015.0	2013.0	2013.0	2050.0	2050.0	2050.0	2056.0	2056.0	2032.0	2032.0	2032.0	1999.0	1999.0	2058.0	2058.0	2058.0	2052.0	2052.0	2019.0	2019.0	2019.0	2000.0	2000.0	2037.0	2037.0	2037.0	2036.0	2036.0	1985.0	1985.0	1985.0	1982.0	1982.0	2022.0	2022.0	2022.0	2024.0	2024.0	1997.0	1997.0	1997.0	2031.0	2031.0	1961.0	1961.0	1961.0	1964.0	1964.0	2009.0	2009.0	2009.0	1974.0	1974.0	1964.0	1964.0	1964.0	1995.0	1995.0	1962.0	1962.0	1962.0	1953.0	1953.0	1979.0	1979.0	1979.0	1947.0	1947.0	1933.0	1933.0	1933.0	1982.0	1982.0	1973.0	1973.0	1973.0	1976.0	1976.0	1948.0	1948.0	1948.0	1947.0	1947.0	1961.0	1961.0	1961.0	1966.0	1966.0	1908.0	1908.0	1908.0	1960.0	1960.0	1907.0	1907.0	1907.0	1935.0	1935.0	1939.0	1939.0	1939.0	1926.0	1926.0	1952.0	1952.0	1952.0	1901.0	1901.0	1934.0	1934.0	1934.0	1883.0	1883.0	1883.0	1883.0	1883.0	1880.0	1880.0	1932.0	1932.0	1932.0	1878.0	1878.0	1928.0	1928.0	1928.0	1917.0	1917.0	1934.0	1934.0	1934.0	1892.0	1892.0	1885.0	1885.0	1885.0	1912.0	1912.0	1868.0	1868.0	1868.0	1874.0	1874.0	1889.0	1889.0	1889.0	1878.0	1878.0	1878.0	1878.0	1878.0	1901.0	1901.0	1855.0	1855.0	1855.0	1902.0	1902.0	1865.0	1865.0	1865.0	1848.0	1848.0	1846.0	1846.0	1846.0	1904.0	1904.0	1868.0	1868.0	1868.0	1849.0	1849.0	1880.0	1880.0	1880.0	1855.0	1855.0	1877.0	1877.0	1877.0	1888.0	1888.0	1856.0	1856.0	1856.0	1842.0	1842.0	1856.0	1856.0	1829.0	1829.0	1829.0	1857.0	1857.0	1830.0	1830.0	1830.0	1862.0	1862.0	1869.0	1869.0	1869.0	1883.0	1883.0	1853.0	1853.0	1853.0	1883.0	1883.0	1845.0	1845.0	1845.0	1863.0	1863.0	1834.0	1834.0	1834.0	1833.0	1833.0	1893.0	1893.0	1893.0	1896.0	1896.0	1890.0	1890.0	1890.0	1866.0	1866.0	1835.0	1835.0	1835.0	1898.0	1898.0	1855.0	1855.0	1855.0	1839.0	1839.0	1837.0	1837.0	1837.0	1860.0	1860.0	1839.0	1839.0	1839.0	1888.0	1888.0	1834.0	1834.0	1834.0	1855.0	1855.0	1887.0	1887.0	1887.0	1865.0	1865.0	1855.0	1855.0	1855.0	1848.0	1848.0	1845.0	1845.0	1845.0	1878.0	1878.0	1882.0	1882.0	1882.0	1873.0	1873.0	1874.0	1874.0	1874.0	1892.0	1892.0	1883.0	1883.0	1883.0	1850.0	1850.0	1896.0	1896.0	1896.0	1887.0	1887.0	1847.0	1847.0	1847.0	1860.0	1860.0	1895.0	1895.0	1895.0	1854.0	1854.0	1862.0	1862.0	1862.0	1895.0	1895.0	1911.0	1911.0	1911.0	1891.0	1891.0	1906.0	1906.0	1906.0	1845.0	1845.0	1846.0	1846.0	1846.0	1891.0	1891.0	1848.0	1848.0	1848.0	1847.0	1847.0	1844.0	1844.0	1844.0	1882.0	1882.0	1843.0	1843.0	1843.0	1883.0	1883.0	1876.0	1876.0	1876.0	1836.0	1836.0	1897.0	1897.0	1897.0	1891.0	1891.0	1830.0	1830.0	1830.0	1835.0	1835.0	1870.0	1870.0	1870.0	1842.0	1842.0	1848.0	1848.0	1848.0	1877.0	1877.0	1858.0	1858.0	1858.0	1874.0	1874.0	1837.0	1837.0	1837.0	1832.0	1832.0	1854.0	1854.0	1854.0	1841.0	1841.0	1881.0	1881.0	1881.0	1852.0	1852.0	1885.0	1885.0	1885.0	1880.0	1880.0	1914.0	1914.0	1914.0	1851.0	1851.0	1930.0	1930.0	1885.0	1885.0	1885.0	1957.0	1957.0	1908.0	1908.0	1908.0	1982.0	1982.0	1938.0	1938.0	1938.0	2030.0	2030.0	2029.0	2029.0	2029.0	2010.0	2010.0	2074.0	2074.0	2074.0	2107.0	2107.0	2095.0	2095.0	2095.0	2100.0	2100.0	2151.0	2151.0	2151.0	2183.0	2183.0	2180.0	2180.0	2180.0	2187.0	2187.0	2278.0	2278.0	2278.0	2284.0	2284.0	2287.0	2287.0	2287.0	2333.0	2333.0	2332.0	2332.0	2332.0	2353.0	2353.0	2394.0	2394.0	