2188.0	2188.0	2188.0	2199.0	2199.0	2136.0	2136.0	2136.0	2167.0	2167.0	2132.0	2132.0	2132.0	2120.0	2120.0	2109.0	2109.0	2109.0	2111.0	2111.0	2162.0	2162.0	2162.0	2104.0	2104.0	2137.0	2137.0	2137.0	2136.0	2136.0	2114.0	2114.0	2114.0	2119.0	2119.0	2117.0	2117.0	2117.0	2069.0	2069.0	2103.0	2103.0	2103.0	2078.0	2078.0	2083.0	2083.0	2083.0	2079.0	2079.0	2043.0	2043.0	2043.0	2036.0	2036.0	2033.0	2033.0	2033.0	2062.0	2062.0	2030.0	2030.0	2030.0	2023.0	2023.0	2046.0	2046.0	2046.0	2056.0	2056.0	2067.0	2067.0	2067.0	2052.0	2052.0	2005.0	2005.0	2005.0	2050.0	2050.0	2057.0	2057.0	2057.0	2002.0	2002.0	2024.0	2024.0	2024.0	2032.0	2032.0	2027.0	2027.0	2027.0	2017.0	2017.0	2024.0	2024.0	2024.0	1976.0	1976.0	1979.0	1979.0	1979.0	1974.0	1974.0	1997.0	1997.0	1997.0	1943.0	1943.0	2004.0	2004.0	2004.0	1975.0	1975.0	1944.0	1944.0	1944.0	1971.0	1971.0	1984.0	1984.0	1984.0	1953.0	1953.0	1941.0	1941.0	1941.0	1960.0	1960.0	1912.0	1912.0	1912.0	1944.0	1944.0	1927.0	1927.0	1927.0	1930.0	1930.0	1953.0	1953.0	1953.0	1898.0	1898.0	1941.0	1941.0	1941.0	1936.0	1936.0	1918.0	1918.0	1918.0	1936.0	1936.0	1921.0	1921.0	1921.0	1895.0	1895.0	1868.0	1868.0	1868.0	1918.0	1918.0	1919.0	1919.0	1919.0	1912.0	1912.0	1864.0	1864.0	1864.0	1869.0	1869.0	1876.0	1876.0	1876.0	1884.0	1884.0	1848.0	1848.0	1848.0	1871.0	1871.0	1870.0	1870.0	1850.0	1850.0	1850.0	1824.0	1824.0	1848.0	1848.0	1848.0	1851.0	1851.0	1817.0	1817.0	1817.0	1833.0	1833.0	1853.0	1853.0	1853.0	1851.0	1851.0	1811.0	1811.0	1811.0	1837.0	1837.0	1827.0	1827.0	1827.0	1824.0	1824.0	1796.0	1796.0	1796.0	1780.0	1780.0	1824.0	1824.0	1824.0	1799.0	1799.0	1786.0	1786.0	1786.0	1823.0	1823.0	1823.0	1823.0	1823.0	1763.0	1763.0	1775.0	1775.0	1775.0	1798.0	1798.0	1796.0	1796.0	1796.0	1819.0	1819.0	1799.0	1799.0	1799.0	1744.0	1744.0	1751.0	1751.0	1751.0	1778.0	1778.0	1743.0	1743.0	1743.0	1732.0	1732.0	1732.0	1732.0	1732.0	1781.0	1781.0	1769.0	1769.0	1769.0	1726.0	1726.0	1750.0	1750.0	1750.0	1708.0	1708.0	1749.0	1749.0	1749.0	1722.0	1722.0	1769.0	1769.0	1769.0	1717.0	1717.0	1721.0	1721.0	1721.0	1722.0	1722.0	1743.0	1743.0	1743.0	1696.0	1696.0	1744.0	1744.0	1744.0	1747.0	1747.0	1687.0	1687.0	1687.0	1709.0	1709.0	1731.0	1731.0	1731.0	1725.0	1725.0	1715.0	1715.0	1715.0	1696.0	1696.0	1679.0	1679.0	1679.0	1697.0	1697.0	1667.0	1667.0	1667.0	1715.0	1715.0	1709.0	1709.0	1709.0	1658.0	1658.0	1708.0	1708.0	1708.0	1662.0	1662.0	1649.0	1649.0	1649.0	1674.0	1674.0	1663.0	1663.0	1663.0	1695.0	1695.0	1653.0	1653.0	1653.0	1642.0	1642.0	1687.0	1687.0	1687.0	1646.0	1646.0	1654.0	1654.0	1654.0	1669.0	1669.0	1636.0	1636.0	1636.0	1667.0	1667.0	1652.0	1652.0	1652.0	1632.0	1632.0	1679.0	1679.0	1679.0	1675.0	1675.0	1645.0	1645.0	1645.0	1689.0	1689.0	1679.0	1679.0	1679.0	1639.0	1639.0	1624.0	1624.0	1624.0	1619.0	1619.0	1624.0	1624.0	1677.0	1677.0	1677.0	1635.0	1635.0	1667.0	1667.0	1667.0	1675.0	1675.0	1674.0	1674.0	1674.0	1662.0	1662.0	1657.0	1657.0	1657.0	1629.0	1629.0	1633.0	1633.0	1633.0	1616.0	1616.0	1638.0	1638.0	1638.0	1671.0	1671.0	1672.0	1672.0	1672.0	1611.0	1611.0	1641.0	1641.0	1641.0	1617.0	1617.0	1655.0	1655.0	1655.0	1628.0	1628.0	1655.0	1655.0	1655.0	1641.0	1641.0	1628.0	1628.0	1628.0	1666.0	1666.0	1634.0	1634.0	1634.0	1665.0	1665.0	1655.0	1655.0	1655.0	1625.0	1625.0	1628.0	1628.0	1628.0	1615.0	1615.0	1618.0	1618.0	1618.0	1652.0	1652.0	1610.0	1610.0	1610.0	1621.0	1621.0	1613.0	1613.0	1613.0	1624.0	1624.0	1629.0	1629.0	1629.0	1591.0	1591.0	1597.0	1597.0	1597.0	1602.0	1602.0	1633.0	1633.0	1633.0	1603.0	1603.0	1605.0	1605.0	1605.0	1582.0	1582.0	1635.0	1635.0	1635.0	1608.0	1608.0	1607.0	1607.0	1607.0	1596.0	1596.0	1596.0	1596.0	1596.0	1588.0	1588.0	1631.0	1631.0	1631.0	1590.0	1590.0	1615.0	1615.0	1615.0	1613.0	1613.0	1674.0	1674.0	1674.0	1675.0	1675.0	1643.0	1643.0	1643.0	1666.0	1666.0	1673.0	1673.0	1673.0	1691.0	1691.0	1735.0	1735.0	1735.0	1764.0	1764.0	1775.0	1775.0	1775.0	1802.0	1802.0	1859.0	1859.0	1859.0	1855.0	1855.0	1873.0	1873.0	1873.0	1938.0	1938.0	1948.0	1948.0	1948.0	2008.0	2008.0	2047.0	2047.0	2047.0	2035.0	2035.0	2055.0	2055.0	2055.0	2136.0	2136.0	2151.0	2151.0	2151.0	2160.0	2160.0	2204.0	2204.0	2204.0	2225.0	2225.0	2280.0	2280.0	2280.0	2304.0	2304.0	2327.0	2327.0	2327.0	2358.0	2358.0	2388.0	2388.0	2389.0	2389.0	2389.0	2437.0	2437.0	2448.0	2448.0	2448.0	2506.0	2506.0	2473.0	2473.0	2473.0	2528.0	2528.0	2544.0	2544.0	2544.0	2546.0	2546.0	2571.0	2571.0	2571.0	2594.0	2594.0	2621.0	2621.0	2621.0	2612.0	2612.0	2609.0	2609.0	2609.0	2664.0	2664.0	2657.0	2657.0	2657.0	2698.0	2698.0	2679.0	2679.0	2679.0	2701.0	2701.0	2680.0	2680.0	2680.0	2689.0	2689.0	2739.0	2739.0	2739.0	2739.0	2739.0	2704.0	2704.0	2704.0	2734.0	2734.0	2738.0	2738.0	2738.0	2745.0	2745.0	2756.0	2756.0	2756.0	2754.0	2754.0	2728.0	2728.0	2728.0	2764.0	2764.0	2746.0	2746.0	2746.0	2775.0	2775.0	2754.0	2754.0	2754.0	2776.0	2776.0	2753.0	2753.0	2753.0	2777.0	2777.0	2760.0	2760.0	2760.0	2731.0	2731.0	2742.0	2742.0	2742.0	2727.0	2727.0	2756.0	2756.0	2756.0	2762.0	2762.0	2746.0	2746.0	2746.0	2737.0	2737.0	2744.0	2744.0	2744.0	2752.0	2752.0	2751.0	2751.0	2751.0	2746.0	2746.0	2743.0	2743.0	2743.0	2697.0	2697.0	2715.0	2715.0	2715.0	2701.0	2701.0	2675.0	2675.0	2675.0	2688.0	2688.0	2710.0	2710.0	2710.0	2660.0	2660.0	2688.0	2688.0	2688.0	2682.0	2682.0	2654.0	2654.0	2654.0	2622.0	2622.0	2622.0	2622.0	2622.0	2623.0	2623.0	2575.0	2575.0	2575.0	2622.0	2622.0	2569.0	2569.0	2569.0	2594.0	2594.0	2546.0	2546.0	2546.0	2563.0	2563.0	2538.0	2538.0	2538.0	2510.0	2510.0	2492.0	2492.0	2492.0	2478.0	2478.0	2501.0	2501.0	2501.0	2443.0	2443.0	2420.0	2420.0	2420.0	2407.0	2407.0	2422.0	2422.0	2422.0	2416.0	2416.0	2384.0	2384.0	2384.0	2390.0	2390.0	2378.0	2378.0	2378.0	2318.0	2318.0	2322.0	2322.0	2289.0	2289.0	2289.0	2274.0	2274.0	2277.0	2277.0	2277.0	2257.0	2257.0	2244.0	2244.0	2244.0	2239.0	2239.0	2243.0	2243.0	2243.0	2210.0	2210.0	2204.0	2204.0	2204.0	2194.0	2194.0	2155.0	2155.0	2155.0	2159.0	2159.0	2145.0	2145.0	2145.0	2138.0	2138.0	2167.0	2167.0	2167.0	2162.0	2162.0	2149.0	2149.0	2149.0	2136.0	2136.0	2140.0	2140.0	2140.0	2084.0	2084.0	2088.0	2088.0	2088.0	2104.0	2104.0	2077.0	2077.0	2077.0	2073.0	2073.0	2095.0	2095.0	2095.0	2072.0	2072.0	2058.0	2058.0	2058.0	2073.0	2073.0	2066.0	2066.0	2066.0	2030.0	2030.0	2010.0	2010.0	2010.0	2045.0	2045.0	2015.0	2015.0	2015.0	2054.0	2054.0	2018.0	2018.0	2018.0	2034.0	2034.0	2028.0	2028.0	2028.0	2016.0	2016.0	2012.0	2012.0	2012.0	2009.0	2009.0	1986.0	1986.0	1986.0	2005.0	2005.0	1977.0	1977.0	1977.0	2006.0	2006.0	1993.0	1993.0	1993.0	1959.0	1959.0	1974.0	1974.0	1974.0	1993.0	1993.0	1948.0	1948.0	1948.0	1980.0	1980.0	1936.0	1936.0	1936.0	1953.0	1953.0	1942.0	1942.0	1942.0	1948.0	1948.0	1973.0	1973.0	1973.0	1962.0	1962.0	1968.0	1968.0	1968.0	1944.0	1944.0	1923.0	1923.0	1923.0	1914.0	1914.0	1946.0	1946.0	1946.0	1906.0	1906.0	1933.0	1933.0	1933.0	1933.0	1933.0	1890.0	1890.0	1890.0	1919.0	1919.0	1928.0	1928.0	1928.0	1884.0	1884.0	1875.0	1875.0	1875.0	1915.0	1915.0	1903.0	1903.0	1903.0	1875.0	1875.0	1860.0	1860.0	1860.0	1891.0	1891.0	1840.0	1840.0	1840.0	1868.0	1868.0	1870.0	1870.0	1870.0	1853.0	1853.0	1832.0	1832.0	1832.0	1865.0	1865.0	1815.0	1815.0	1862.0	1862.0	1862.0	1849.0	1849.0	1799.0	1799.0	1799.0	1855.0	1855.0	1800.0	1800.0	1800.0	1803.0	1803.0	1845.0	1845.0	1845.0	1788.0	1788.0	1795.0	1795.0	1795.0	1817.0	1817.0	1788.0	1788.0	1788.0	1763.0	1763.0	1781.0	1781.0	1781.0	1790.0	1790.0	1764.0	1764.0	1764.0	1749.0	1749.0	1746.0	1746.0	1746.0	1777.0	1777.0	1737.0	1737.0	1737.0	1773.0	1773.0	1729.0	1729.0	1729.0	1745.0	1745.0	1711.0	1711.0	1711.0	1712.0	1712.0	1750.0	1750.0	1750.0	1728.0	1728.0	1753.0	1753.0	1753.0	1699.0	1699.0	1710.0	1710.0	1710.0	1697.0	1697.0	1750.0	1750.0	1750.0	1703.0	1703.0	1719.0	1719.0	1719.0	1721.0	1721.0	1689.0	1689.0	1689.0	1685.0	1685.0	1721.0	1721.0	1721.0	1703.0	1703.0	1721.0	1721.0	1721.0	1721.0	1721.0	1702.0	1702.0	1702.0	1717.0	1717.0	1683.0	1683.0	1683.0	1720.0	1720.0	1706.0	1706.0	1706.0	1680.0	1680.0	1706.0	1706.0	1706.0	1704.0	1704.0	1664.0	1664.0	1664.0	1656.0	1656.0	1649.0	1649.0	1649.0	1691.0	1691.0	1666.0	1666.0	1666.0	1692.0	1692.0	1658.0	1658.0	1658.0	1696.0	1696.0	1641.0	1641.0	1641.0	1645.0	1645.0	1684.0	1684.0	1684.0	1662.0	1662.0	1684.0	1684.0	1684.0	1660.0	1660.0	1634.0	1634.0	1634.0	1672.0	1672.0	1686.0	1686.0	1686.0	1658.0	1658.0	1651.0	1651.0	1651.0	1647.0	1647.0	1653.0	1653.0	1653.0	1623.0	1623.0	1615.0	1615.0	1615.0	1675.0	1675.0	1632.0	1632.0	1632.0	1652.0	1652.0	1651.0	1651.0	1651.0	1643.0	1643.0	1625.0	1625.0	1625.0	1627.0	1627.0	1667.0	1667.0	1667.0	1603.0	1603.0	1628.0	1628.0	1601.0	1601.0	1601.0	1598.0	1598.0	1631.0	1631.0	1631.0	1664.0	1664.0	1655.0	1655.0	1655.0	1624.0	1624.0	1640.0	1640.0	1640.0	1600.0	1600.0	1656.0	1656.0	1656.0	1650.0	1650.0	1603.0	1603.0	1603.0	1596.0	1596.0	1622.0	1622.0	1622.0	1625.0	1625.0	1655.0	1655.0	1655.0	1638.0	1638.0	1634.0	1634.0	1634.0	1607.0	1607.0	1607.0	1607.0	1607.0	1662.0	1662.0	1615.0	1615.0	1615.0	1653.0	1653.0	1604.0	1604.0	1604.0	1622.0	1622.0	1625.0	1625.0	1625.0	1622.0	1622.0	1609.0	1609.0	1609.0	1660.0	1660.0	1623.0	1623.0	1623.0	1644.0	1644.0	1655.0	1655.0	1655.0	1655.0	1655.0	1632.0	1632.0	1632.0	1656.0	1656.0	1644.0	1644.0	1644.0	1619.0	1619.0	1609.0	1609.0	1609.0	1661.0	1661.0	1610.0	1610.0	1610.0	1650.0	1650.0	1643.0	1643.0	1643.0	1646.0	1646.0	1605.0	1605.0	1605.0	1611.0	1611.0	1657.0	1657.0	1657.0	1629.0	1629.0	1649.0	1649.0	1649.0	1643.0	1643.0	1619.0	1619.0	1619.0	1603.0	1603.0	1653.0	1653.0	1653.0	1611.0	1611.0	1613.0	1613.0	1613.0	1652.0	1652.0	1612.0	1612.0	1612.0	1629.0	1629.0	1602.0	1602.0	1602.0	1655.0	1655.0	1620.0	1620.0	1620.0	1591.0	1591.0	1616.0	1616.0	1616.0	1661.0	1661.0	1621.0	1621.0	1621.0	1626.0	1626.0	1600.0	1600.0	1600.0	1613.0	1613.0	1616.0	1616.0	1616.0	1618.0	1618.0	1619.0	1619.0	1619.0	1639.0	1639.0	1686.0	1686.0	1686.0	1634.0	1634.0	1694.0	1694.0	1694.0	1675.0	1675.0	1685.0	1685.0	1685.0	1692.0	1692.0	1749.0	1749.0	1749.0	1741.0	1741.0	1790.0	1790.0	1790.0	1838.0	1838.0	1803.0	1803.0	1803.0	1841.0	1841.0	1881.0	1881.0	1936.0	1936.0	1936.0	1943.0	1943.0	1951.0	1951.0	1951.0	1970.0	1970.0	2024.0	2024.0	2024.0	2046.0	2046.0	2104.0	2104.0	2104.0	2127.0	2127.0	2149.0	2149.0	2149.0	2207.0	2207.0	2232.0	2232.0	2232.0	2223.0	2223.0	2290.0	2290.0	2290.0	2336.0	2336.0	2327.0	2327.0	2327.0	2376.0	2376.0	2412.0	2412.0	2412.0	2431.0	2431.0	2457.0	2457.0	2457.0	2481.0	2481.0	2480.0	2480.0	2480.0	2552.0	2552.0	2506.0	2506.0	2506.0	2543.0	2543.0	2567.0	2567.0	2567.0	2575.0	2575.0	2625.0	2625.0	2625.0	2656.0	2656.0	2671.0	2671.0	2671.0	2640.0	2640.0	2704.0	2704.0	2704.0	2685.0	2685.0	2713.0	2713.0	2713.0	2726.0	2726.0	2702.0	2702.0	2702.0	2729.0	2729.0	2770.0	2770.0	2770.0	2737.0	2737.0	2732.0	2732.0	2732.0	2780.0	2780.0	2738.0	2738.0	2738.0	2787.0	2787.0	2783.0	2783.0	2783.0	2768.0	2768.0	2758.0	2758.0	2758.0	2796.0	2796.0	2785.0	2785.0	2785.0	2780.0	2780.0	2812.0	2812.0	2812.0	2781.0	2781.0	2792.0	2792.0	2792.0	2783.0	2783.0	2771.0	2771.0	2771.0	2801.0	2801.0	2774.0	2774.0	2774.0	2784.0	2784.0	2778.0	2778.0	2778.0	2784.0	2784.0	2792.0	2792.0	2792.0	2776.0	2776.0	2761.0	2761.0	2761.0	2802.0	2802.0	2777.0	2777.0	2777.0	2758.0	2758.0	2768.0	2768.0	2768.0	2784.0	2784.0	2752.0	2752.0	2752.0	2733.0	2733.0	2738.0	2738.0	2738.0	2702.0	2702.0	2707.0	2707.0	2707.0	2739.0	2739.0	2728.0	2728.0	2728.0	2709.0	2709.0	2679.0	2679.0	2679.0	2678.0	2678.0	2676.0	2676.0	2676.0	2667.0	2667.0	2643.0	2643.0	2643.0	2630.0	2630.0	2616.0	2616.0	2584.0	2584.0	2584.0	2602.0	2602.0	2589.0	2589.0	2589.0	2570.0	2570.0	2543.0	2543.0	2543.0	2529.0	2529.0	2538.0	2538.0	2538.0	2534.0	2534.0	2491.0	2491.0	2491.0	2511.0	2511.0	2457.0	2457.0	2457.0	2473.0	2473.0	2455.0	2455.0	2455.0	2400.0	2400.0	2427.0	2427.0	2427.0	2364.0	2364.0	2402.0	2402.0	2402.0	2336.0	2336.0	2371.0	2371.0	2371.0	2311.0	2311.0	2305.0	2305.0	2305.0	2327.0	2327.0	2273.0	2273.0	2273.0	2254.0	2254.0	2251.0	2251.0	2251.0	2274.0	2274.0	2227.0	2227.0	2227.0	2231.0	2231.0	2229.0	2229.0	2229.0	2191.0	2191.0	2187.0	2187.0	2187.0	2177.0	2177.0	2173.0	2173.0	2173.0	2169.0	2169.0	2168.0	2168.0	2168.0	2132.0	2132.0	2127.0	2127.0	2127.0	2115.0	2115.0	2154.0	2154.0	2154.0	2152.0	2152.0	2111.0	2111.0	2111.0	2126.0	2126.0	2130.0	2130.0	2130.0	2118.0	2118.0	2108.0	2108.0	2108.0	2083.0	2083.0	2082.0	2082.0	2082.0	2058.0	2058.0	2079.0	2079.0	2079.0	2071.0	2071.0	2091.0	2091.0	2091.0	2040.0	2040.0	2031.0	2031.0	2031.0	2028.0	2028.0	2046.0	2046.0	2046.0	2008.0	2008.0	2056.0	2056.0	2056.0	2050.0	2050.0	2018.0	2018.0	2018.0	2029.0	2029.0	1998.0	1998.0	1998.0	2022.0	2022.0	1999.0	1999.0	1999.0	2026.0	2026.0	1990.0	1990.0	1990.0	1977.0	1977.0	1994.0	1994.0	1994.0	2026.0	2026.0	1987.0	1987.0	1987.0	1992.0	1992.0	2011.0	2011.0	2011.0	1995.0	1995.0	1984.0	1984.0	1984.0	1998.0	1998.0	1942.0	1942.0	1942.0	1959.0	1959.0	1955.0	1955.0	1955.0	1974.0	1974.0	1971.0	1971.0	1971.0	1956.0	1956.0	1956.0	1956.0	1929.0	1929.0	1929.0	1949.0	1949.0	1930.0	1930.0	1930.0	1920.0	1920.0	1924.0	1924.0	1924.0	1899.0	1899.0	1928.0	1928.0	1928.0	1907.0	1907.0	1896.0	1896.0	1896.0	1875.0	1875.0	1932.0	1932.0	1932.0	1888.0	1888.0	1916.0	1916.0	1916.0	1875.0	1875.0	1875.0	1875.0	1875.0	1857.0	1857.0	1842.0	1842.0	1842.0	1848.0	1848.0	1848.0	1848.0	1848.0	1875.0	1875.0	1844.0	1844.0	1844.0	1877.0	1877.0	1859.0	1859.0	1859.0	1862.0	1862.0	1847.0	1847.0	1847.0	1831.0	1831.0	1866.0	1866.0	1866.0	1839.0	1839.0	1804.0	1804.0	1804.0	1848.0	1848.0	1784.0	1784.0	1784.0	1793.0	1793.0	1822.0	1822.0	1822.0	1774.0	1774.0	1781.0	1781.0	1781.0	1782.0	1782.0	1795.0	1795.0	1795.0	1756.0	1756.0	1766.0	1766.0	1766.0	1759.0	1759.0	1794.0	1794.0	1794.0	1780.0	1780.0	1763.0	1763.0	1763.0	1750.0	1750.0	1736.0	1736.0	1736.0	1757.0	1757.0	1779.0	1779.0	1779.0	1747.0	1747.0	1743.0	1743.0	1743.0	1722.0	1722.0	1759.0	1759.0	1759.0	1747.0	1747.0	1710.0	1710.0	1710.0	1777.0	1777.0	1726.0	1726.0	1726.0	1730.0	1730.0	1767.0	1767.0	1767.0	1743.0	1743.0	1722.0	1722.0	1722.0	1741.0	1741.0	1749.0	1749.0	1749.0	1731.0	1731.0	1726.0	1726.0	1726.0	1707.0	1707.0	1687.0	1687.0	1687.0	1720.0	1720.0	1729.0	1729.0	1729.0	1718.0	1718.0	1739.0	1739.0	1739.0	1704.0	1704.0	1693.0	1693.0	1693.0	1712.0	1712.0	1674.0	1674.0	1674.0	1714.0	1714.0	1688.0	1688.0	1688.0	1689.0	1689.0	1680.0	1680.0	1680.0	1682.0	1682.0	1680.0	1680.0	1680.0	1692.0	1692.0	1659.0	1659.0	1659.0	1702.0	1702.0	1663.0	1663.0	1657.0	1657.0	1657.0	1697.0	1697.0	1688.0	1688.0	1688.0	1687.0	1687.0	1660.0	1660.0	1660.0	1643.0	1643.0	1655.0	1655.0	1655.0	1662.0	1662.0	1679.0	1679.0	1679.0	1654.0	1654.0	1674.0	1674.0	1674.0	1645.0	1645.0	1679.0	1679.0	1679.0	1653.0	1653.0	1667.0	1667.0	1667.0	1680.0	1680.0	1629.0	1629.0	1629.0	1655.0	1655.0	1642.0	1642.0	1642.0	1639.0	1639.0	1681.0	1681.0	1681.0	1640.0	1640.0	1640.0	1640.0	1640.0	1665.0	1665.0	1630.0	1630.0	1630.0	1634.0	1634.0	1676.0	1676.0	1676.0	1646.0	1646.0	1675.0	1675.0	1675.0	1678.0	1678.0	