1680.0	1680.0	1676.0	1676.0	1620.0	1620.0	1620.0	1624.0	1624.0	1650.0	1650.0	1653.0	1653.0	1653.0	1659.0	1659.0	1604.0	1604.0	1604.0	1630.0	1630.0	1639.0	1639.0	1639.0	1643.0	1643.0	1642.0	1642.0	1642.0	1642.0	1642.0	1589.0	1589.0	1589.0	1596.0	1596.0	1643.0	1643.0	1643.0	1624.0	1624.0	1592.0	1592.0	1592.0	1589.0	1589.0	1578.0	1578.0	1578.0	1583.0	1583.0	1624.0	1624.0	1624.0	1635.0	1635.0	1593.0	1593.0	1593.0	1596.0	1596.0	1583.0	1583.0	1583.0	1584.0	1584.0	1607.0	1607.0	1607.0	1595.0	1595.0	1610.0	1610.0	1610.0	1573.0	1573.0	1571.0	1571.0	1571.0	1566.0	1566.0	1572.0	1572.0	1572.0	1595.0	1595.0	1590.0	1590.0	1590.0	1610.0	1610.0	1581.0	1581.0	1581.0	1560.0	1560.0	1603.0	1603.0	1603.0	1594.0	1594.0	1563.0	1563.0	1563.0	1598.0	1598.0	1555.0	1555.0	1555.0	1559.0	1559.0	1557.0	1557.0	1557.0	1559.0	1559.0	1579.0	1579.0	1579.0	1559.0	1559.0	1575.0	1575.0	1575.0	1600.0	1600.0	1563.0	1563.0	1563.0	1549.0	1549.0	1587.0	1587.0	1587.0	1614.0	1614.0	1598.0	1598.0	1598.0	1604.0	1604.0	1587.0	1587.0	1587.0	1554.0	1554.0	1567.0	1567.0	1567.0	1596.0	1596.0	1572.0	1572.0	1572.0	1558.0	1558.0	1555.0	1555.0	1555.0	1587.0	1587.0	1558.0	1558.0	1558.0	1567.0	1567.0	1585.0	1585.0	1585.0	1565.0	1565.0	1565.0	1565.0	1565.0	1567.0	1567.0	1560.0	1560.0	1560.0	1594.0	1594.0	1552.0	1552.0	1552.0	1574.0	1574.0	1543.0	1543.0	1543.0	1588.0	1588.0	1567.0	1567.0	1567.0	1555.0	1555.0	1551.0	1551.0	1551.0	1544.0	1544.0	1569.0	1569.0	1569.0	1550.0	1550.0	1608.0	1608.0	1608.0	1564.0	1564.0	1603.0	1603.0	1603.0	1612.0	1612.0	1599.0	1599.0	1589.0	1589.0	1589.0	1608.0	1608.0	1559.0	1559.0	1559.0	1610.0	1610.0	1595.0	1595.0	1595.0	1609.0	1609.0	1576.0	1576.0	1576.0	1583.0	1583.0	1568.0	1568.0	1568.0	1562.0	1562.0	1570.0	1570.0	1570.0	1555.0	1555.0	1570.0	1570.0	1570.0	1596.0	1596.0	1602.0	1602.0	1602.0	1564.0	1564.0	1597.0	1597.0	1597.0	1573.0	1573.0	1556.0	1556.0	1556.0	1581.0	1581.0	1605.0	1605.0	1605.0	1564.0	1564.0	1562.0	1562.0	1562.0	1615.0	1615.0	1635.0	1635.0	1635.0	1587.0	1587.0	1596.0	1596.0	1596.0	1640.0	1640.0	1632.0	1632.0	1632.0	1644.0	1644.0	1636.0	1636.0	1636.0	1694.0	1694.0	1653.0	1653.0	1653.0	1713.0	1713.0	1715.0	1715.0	1715.0	1754.0	1754.0	1756.0	1756.0	1756.0	1746.0	1746.0	1824.0	1824.0	1824.0	1794.0	1794.0	1839.0	1839.0	1839.0	1835.0	1835.0	1912.0	1912.0	1912.0	1923.0	1923.0	1913.0	1913.0	1913.0	1976.0	1976.0	1986.0	1986.0	1986.0	1977.0	1977.0	2013.0	2013.0	2013.0	2048.0	2048.0	2099.0	2099.0	2099.0	2088.0	2088.0	2097.0	2097.0	2097.0	2129.0	2129.0	2158.0	2158.0	2158.0	2184.0	2184.0	2171.0	2171.0	2171.0	2182.0	2182.0	2240.0	2240.0	2240.0	2215.0	2215.0	2237.0	2237.0	2237.0	2290.0	2290.0	2289.0	2289.0	2289.0	2259.0	2259.0	2314.0	2314.0	2314.0	2302.0	2302.0	2339.0	2339.0	2339.0	2302.0	2302.0	2374.0	2374.0	2374.0	2373.0	2373.0	2356.0	2356.0	2356.0	2363.0	2363.0	2409.0	2409.0	2409.0	2385.0	2385.0	2375.0	2375.0	2375.0	2388.0	2388.0	2380.0	2380.0	2380.0	2423.0	2423.0	2404.0	2404.0	2404.0	2436.0	2436.0	2427.0	2427.0	2434.0	2434.0	2434.0	2429.0	2429.0	2458.0	2458.0	2458.0	2436.0	2436.0	2417.0	2417.0	2417.0	2459.0	2459.0	2428.0	2428.0	2428.0	2432.0	2432.0	2471.0	2471.0	2471.0	2439.0	2439.0	2457.0	2457.0	2457.0	2453.0	2453.0	2474.0	2474.0	2474.0	2449.0	2449.0	2456.0	2456.0	2456.0	2481.0	2481.0	2445.0	2445.0	2445.0	2438.0	2438.0	2470.0	2470.0	2470.0	2484.0	2484.0	2435.0	2435.0	2435.0	2482.0	2482.0	2435.0	2435.0	2435.0	2438.0	2438.0	2431.0	2431.0	2431.0	2456.0	2456.0	2434.0	2434.0	2434.0	2454.0	2454.0	2468.0	2468.0	2468.0	2432.0	2432.0	2452.0	2452.0	2452.0	2463.0	2463.0	2449.0	2449.0	2449.0	2452.0	2452.0	2452.0	2452.0	2452.0	2428.0	2428.0	2402.0	2402.0	2402.0	2439.0	2439.0	2435.0	2435.0	2435.0	2409.0	2409.0	2433.0	2433.0	2433.0	2401.0	2401.0	2382.0	2382.0	2382.0	2377.0	2377.0	2383.0	2383.0	2383.0	2354.0	2354.0	2351.0	2351.0	2351.0	2358.0	2358.0	2358.0	2358.0	2358.0	2316.0	2316.0	2312.0	2312.0	2312.0	2298.0	2298.0	2289.0	2289.0	2289.0	2278.0	2278.0	2261.0	2261.0	2261.0	2291.0	2291.0	2259.0	2259.0	2259.0	2220.0	2220.0	2211.0	2211.0	2211.0	2202.0	2202.0	2214.0	2214.0	2214.0	2215.0	2215.0	2196.0	2196.0	2196.0	2150.0	2150.0	2171.0	2171.0	2171.0	2158.0	2158.0	2136.0	2136.0	2136.0	2159.0	2159.0	2104.0	2104.0	2104.0	2095.0	2095.0	2092.0	2092.0	2092.0	2083.0	2083.0	2090.0	2090.0	2090.0	2083.0	2083.0	2094.0	2094.0	2094.0	2067.0	2067.0	2072.0	2072.0	2072.0	2091.0	2091.0	2044.0	2044.0	2044.0	2050.0	2050.0	2022.0	2022.0	2027.0	2027.0	2027.0	2045.0	2045.0	2042.0	2042.0	2042.0	1991.0	1991.0	1994.0	1994.0	1994.0	2000.0	2000.0	1990.0	1990.0	1990.0	2017.0	2017.0	1972.0	1972.0	1972.0	1978.0	1978.0	2002.0	2002.0	2002.0	2015.0	2015.0	1978.0	1978.0	1978.0	2004.0	2004.0	2017.0	2017.0	2017.0	1988.0	1988.0	1972.0	1972.0	1972.0	1969.0	1969.0	1969.0	1969.0	1969.0	1985.0	1985.0	1973.0	1973.0	1973.0	1959.0	1959.0	1951.0	1951.0	1951.0	1970.0	1970.0	1968.0	1968.0	1968.0	1949.0	1949.0	1949.0	1949.0	1949.0	1952.0	1952.0	1941.0	1941.0	1941.0	1930.0	1930.0	1923.0	1923.0	1923.0	1957.0	1957.0	1950.0	1950.0	1950.0	1961.0	1961.0	1924.0	1924.0	1924.0	1899.0	1899.0	1936.0	1936.0	1936.0	1919.0	1919.0	1928.0	1928.0	1928.0	1902.0	1902.0	1932.0	1932.0	1932.0	1927.0	1927.0	1937.0	1937.0	1937.0	1891.0	1891.0	1888.0	1888.0	1888.0	1888.0	1888.0	1868.0	1868.0	1868.0	1878.0	1878.0	1884.0	1884.0	1884.0	1879.0	1879.0	1903.0	1903.0	1903.0	1905.0	1905.0	1864.0	1864.0	1864.0	1909.0	1909.0	1846.0	1846.0	1846.0	1873.0	1873.0	1848.0	1848.0	1848.0	1853.0	1853.0	1860.0	1860.0	1860.0	1853.0	1853.0	1874.0	1874.0	1874.0	1851.0	1851.0	1863.0	1863.0	1863.0	1871.0	1871.0	1825.0	1825.0	1825.0	1873.0	1873.0	1868.0	1868.0	1868.0	1861.0	1861.0	1814.0	1814.0	1814.0	1821.0	1821.0	1865.0	1865.0	1865.0	1816.0	1816.0	1806.0	1806.0	1806.0	1810.0	1810.0	1851.0	1851.0	1851.0	1843.0	1843.0	1814.0	1814.0	1814.0	1804.0	1804.0	1829.0	1829.0	1829.0	1830.0	1830.0	1808.0	1808.0	1808.0	1818.0	1818.0	1807.0	1807.0	1800.0	1800.0	1800.0	1807.0	1807.0	1816.0	1816.0	1816.0	1780.0	1780.0	1806.0	1806.0	1806.0	1822.0	1822.0	1819.0	1819.0	1819.0	1779.0	1779.0	1805.0	1805.0	1805.0	1793.0	1793.0	1796.0	1796.0	1796.0	1784.0	1784.0	1786.0	1786.0	1786.0	1750.0	1750.0	1746.0	1746.0	1746.0	1781.0	1781.0	1797.0	1797.0	1797.0	1780.0	1780.0	1770.0	1770.0	1770.0	1779.0	1779.0	1795.0	1795.0	1795.0	1765.0	1765.0	1785.0	1785.0	1785.0	1756.0	1756.0	1736.0	1736.0	1736.0	1747.0	1747.0	1761.0	1761.0	1761.0	1780.0	1780.0	1729.0	1729.0	1729.0	1762.0	1762.0	1775.0	1775.0	1775.0	1746.0	1746.0	1726.0	1726.0	1726.0	1724.0	1724.0	1739.0	1739.0	1739.0	1719.0	1719.0	1766.0	1766.0	1766.0	1723.0	1723.0	1770.0	1770.0	1770.0	1742.0	1742.0	1734.0	1734.0	1734.0	1746.0	1746.0	1711.0	1711.0	1711.0	1746.0	1746.0	1757.0	1757.0	1757.0	1731.0	1731.0	1738.0	1738.0	1738.0	1747.0	1747.0	1694.0	1694.0	1694.0	1730.0	1730.0	1737.0	1737.0	1737.0	1745.0	1745.0	1690.0	1690.0	1690.0	1744.0	1744.0	1720.0	1720.0	1720.0	1724.0	1724.0	1703.0	1703.0	1703.0	1701.0	1701.0	1712.0	1712.0	1712.0	1693.0	1693.0	1719.0	1719.0	1719.0	1718.0	1718.0	1699.0	1699.0	1699.0	1720.0	1720.0	1703.0	1703.0	1703.0	1700.0	1700.0	1726.0	1726.0	1726.0	1724.0	1724.0	1742.0	1742.0	1742.0	1746.0	1746.0	1746.0	1746.0	1746.0	1742.0	1742.0	1720.0	1720.0	1720.0	1688.0	1688.0	1723.0	1723.0	1723.0	1711.0	1711.0	1695.0	1695.0	1695.0	1756.0	1756.0	1757.0	1757.0	1757.0	1750.0	1750.0	1719.0	1719.0	1696.0	1696.0	1696.0	1750.0	1750.0	1749.0	1749.0	1749.0	1708.0	1708.0	1747.0	1747.0	1747.0	1726.0	1726.0	1737.0	1737.0	1737.0	1714.0	1714.0	1717.0	1717.0	1717.0	1754.0	1754.0	1708.0	1708.0	1708.0	1709.0	1709.0	1743.0	1743.0	1743.0	1723.0	1723.0	1730.0	1730.0	1730.0	1700.0	1700.0	1754.0	1754.0	1754.0	1699.0	1699.0	1703.0	1703.0	1703.0	1710.0	1710.0	1705.0	1705.0	1705.0	1694.0	1694.0	1700.0	1700.0	1700.0	1702.0	1702.0	1748.0	1748.0	1748.0	1704.0	1704.0	1743.0	1743.0	1743.0	1749.0	1749.0	1688.0	1688.0	1688.0	1691.0	1691.0	1699.0	1699.0	1699.0	1689.0	1689.0	1682.0	1682.0	1682.0	1746.0	1746.0	1687.0	1687.0	1687.0	1720.0	1720.0	1736.0	1736.0	1736.0	1731.0	1731.0	1742.0	1742.0	1742.0	1702.0	1702.0	1723.0	1723.0	1723.0	1757.0	1757.0	1748.0	1748.0	1748.0	1734.0	1734.0	1732.0	1732.0	1732.0	1724.0	1724.0	1775.0	1775.0	1775.0	1774.0	1774.0	1747.0	1747.0	1747.0	1809.0	1809.0	1826.0	1826.0	1826.0	1790.0	1790.0	1812.0	1812.0	1812.0	1836.0	1836.0	1863.0	1863.0	1863.0	1912.0	1912.0	1891.0	1891.0	1891.0	1940.0	1940.0	1933.0	1933.0	1933.0	1954.0	1954.0	1979.0	1979.0	1979.0	2055.0	2055.0	2034.0	2034.0	2034.0	2043.0	2043.0	2085.0	2085.0	2085.0	2091.0	2091.0	2105.0	2105.0	2105.0	2174.0	2174.0	2146.0	2146.0	2146.0	2178.0	2178.0	2206.0	2206.0	2206.0	2251.0	2251.0	2264.0	2264.0	2264.0	2232.0	2232.0	2276.0	2276.0	2276.0	2300.0	2300.0	2290.0	2290.0	2290.0	2315.0	2315.0	2345.0	2345.0	2345.0	2347.0	2347.0	2370.0	2370.0	2370.0	2382.0	2382.0	2374.0	2374.0	2368.0	2368.0	2368.0	2380.0	2380.0	2375.0	2375.0	2375.0	2386.0	2386.0	2435.0	2435.0	2435.0	2408.0	2408.0	2415.0	2415.0	2415.0	2417.0	2417.0	2445.0	2445.0	2445.0	2473.0	2473.0	2447.0	2447.0	2447.0	2453.0	2453.0	2457.0	2457.0	2457.0	2457.0	2457.0	2472.0	2472.0	2472.0	2468.0	2468.0	2498.0	2498.0	2498.0	2497.0	2497.0	2464.0	2464.0	2464.0	2471.0	2471.0	2474.0	2474.0	2474.0	2491.0	2491.0	2467.0	2467.0	2467.0	2469.0	2469.0	2484.0	2484.0	2484.0	2487.0	2487.0	2475.0	2475.0	2475.0	2502.0	2502.0	2478.0	2478.0	2478.0	2516.0	2516.0	2463.0	2463.0	2463.0	2473.0	2473.0	2519.0	2519.0	2519.0	2497.0	2497.0	2495.0	2495.0	2495.0	2503.0	2503.0	2511.0	2511.0	2511.0	2478.0	2478.0	2468.0	2468.0	2468.0	2492.0	2492.0	2503.0	2503.0	2503.0	2502.0	2502.0	2471.0	2471.0	2471.0	2461.0	2461.0	2468.0	2468.0	2468.0	2484.0	2484.0	2462.0	2462.0	2462.0	2471.0	2471.0	2451.0	2451.0	2451.0	2457.0	2457.0	2479.0	2479.0	2479.0	2436.0	2436.0	2445.0	2445.0	2445.0	2438.0	2438.0	2432.0	2432.0	2432.0	2425.0	2425.0	2415.0	2415.0	2415.0	2447.0	2447.0	2412.0	2412.0	2412.0	2435.0	2435.0	2433.0	2433.0	2433.0	2394.0	2394.0	2401.0	2401.0	2401.0	2368.0	2368.0	2376.0	2376.0	2376.0	2336.0	2336.0	2328.0	2328.0	2328.0	2356.0	2356.0	2320.0	2320.0	2320.0	2311.0	2311.0	2299.0	2299.0	2299.0	2278.0	2278.0	2252.0	2252.0	2252.0	2247.0	2247.0	2257.0	2257.0	2257.0	2234.0	2234.0	2247.0	2247.0	2247.0	2203.0	2203.0	2207.0	2207.0	2207.0	2223.0	2223.0	2203.0	2203.0	2184.0	2184.0	2184.0	2148.0	2148.0	2175.0	2175.0	2175.0	2158.0	2158.0	2144.0	2144.0	2144.0	2110.0	2110.0	2111.0	2111.0	2111.0	2094.0	2094.0	2099.0	2099.0	2099.0	2111.0	2111.0	2069.0	2069.0	2069.0	2088.0	2088.0	2096.0	2096.0	2096.0	2079.0	2079.0	2095.0	2095.0	2095.0	2076.0	2076.0	2074.0	2074.0	2074.0	2043.0	2043.0	2060.0	2060.0	2060.0	2036.0	2036.0	2035.0	2035.0	2035.0	2032.0	2032.0	2019.0	2019.0	2019.0	2035.0	2035.0	2032.0	2032.0	2032.0	2054.0	2054.0	2044.0	2044.0	2044.0	2009.0	2009.0	2012.0	2012.0	2012.0	2003.0	2003.0	2030.0	2030.0	2030.0	2000.0	2000.0	1992.0	1992.0	1992.0	2010.0	2010.0	2017.0	2017.0	2017.0	1986.0	1986.0	1998.0	1998.0	1998.0	1999.0	1999.0	2000.0	2000.0	2000.0	2022.0	2022.0	1982.0	1982.0	1982.0	1987.0	1987.0	1999.0	1999.0	1999.0	1974.0	1974.0	1963.0	1963.0	1963.0	1986.0	1986.0	1983.0	1983.0	1983.0	1980.0	1980.0	1944.0	1944.0	1944.0	1983.0	1983.0	1932.0	1932.0	1932.0	1947.0	1947.0	1939.0	1939.0	1939.0	1943.0	1943.0	1964.0	1964.0	1964.0	1969.0	1969.0	1911.0	1911.0	1911.0	1937.0	1937.0	1912.0	1912.0	1912.0	1909.0	1909.0	1936.0	1936.0	1936.0	1930.0	1930.0	1911.0	1911.0	1911.0	1907.0	1907.0	1919.0	1919.0	1919.0	1876.0	1876.0	1927.0	1927.0	1927.0	1880.0	1880.0	1921.0	1921.0	1921.0	1872.0	1872.0	1884.0	1884.0	1884.0	1910.0	1910.0	1868.0	1868.0	1868.0	1899.0	1899.0	1854.0	1854.0	1854.0	1865.0	1865.0	1864.0	1864.0	1864.0	1855.0	1855.0	1846.0	1846.0	1846.0	1879.0	1879.0	1861.0	1861.0	1840.0	1840.0	1840.0	1861.0	1861.0	1812.0	1812.0	1812.0	1829.0	1829.0	1827.0	1827.0	1827.0	1831.0	1831.0	1807.0	1807.0	1807.0	1858.0	1858.0	1835.0	1835.0	1835.0	1812.0	1812.0	1821.0	1821.0	1821.0	1820.0	1820.0	1810.0	1810.0	1810.0	1820.0	1820.0	1770.0	1770.0	1770.0	1801.0	1801.0	1811.0	1811.0	1811.0	1819.0	1819.0	1819.0	1819.0	1819.0	1793.0	1793.0	1755.0	1755.0	1755.0	1761.0	1761.0	1754.0	1754.0	1754.0	1762.0	1762.0	1751.0	1751.0	1751.0	1784.0	1784.0	1738.0	1738.0	1738.0	1749.0	1749.0	1727.0	1727.0	1727.0	1742.0	1742.0	1753.0	1753.0	1753.0	1723.0	1723.0	1731.0	1731.0	1731.0	1735.0	1735.0	1729.0	1729.0	1729.0	1732.0	1732.0	1723.0	1723.0	1723.0	1755.0	1755.0	1717.0	1717.0	1717.0	1746.0	1746.0	1708.0	1708.0	1708.0	1715.0	1715.0	1747.0	1747.0	1747.0	1720.0	1720.0	1752.0	1752.0	1752.0	1713.0	1713.0	1761.0	1761.0	1761.0	1710.0	1710.0	1724.0	1724.0	1724.0	1752.0	1752.0	1738.0	1738.0	1738.0	1720.0	1720.0	1710.0	1710.0	1710.0	1720.0	1720.0	1726.0	1726.0	1726.0	1712.0	1712.0	1737.0	1737.0	1737.0	1727.0	1727.0	1735.0	1735.0	1735.0	1730.0	1730.0	1695.0	1695.0	1695.0	1716.0	1716.0	1717.0	1717.0	1717.0	1711.0	1711.0	1710.0	1710.0	1710.0	1721.0	1721.0	1721.0	1721.0	1721.0	1707.0	1707.0	1733.0	1733.0	1733.0	1738.0	1738.0	1745.0	1745.0	1745.0	1701.0	1701.0	1703.0	1703.0	1703.0	1727.0	1727.0	1716.0	1716.0	1716.0	1702.0	1702.0	1679.0	1679.0	1679.0	1688.0	1688.0	1718.0	1718.0	1718.0	1688.0	1688.0	1702.0	1702.0	1702.0	1719.0	1719.0	1720.0	1720.0	1709.0	1709.0	1709.0	1696.0	1696.0	1704.0	1704.0	1704.0	1737.0	1737.0	1745.0	1745.0	1745.0	1714.0	1714.0	1707.0	1707.0	1707.0	1743.0	1743.0	1748.0	1748.0	1748.0	1744.0	1744.0	1735.0	1735.0	1735.0	1717.0	1717.0	1699.0	1699.0	1699.0	1726.0	1726.0	1694.0	1694.0	1694.0	1717.0	1717.0	1732.0	1732.0	1732.0	1724.0	1724.0	1708.0	1708.0	1708.0	1697.0	1697.0	1736.0	1736.0	1736.0	1704.0	1704.0	1721.0	1721.0	1721.0	1736.0	1736.0	1711.0	1711.0	1711.0	1724.0	1724.0	1742.0	1742.0	1742.0	1741.0	1741.0	1724.0	1724.0	1724.0	1716.0	1716.0	1737.0	1737.0	1737.0	1718.0	1718.0	1743.0	1743.0	1743.0	1709.0	1709.0	1718.0	1718.0	1718.0	1706.0	1706.0	1726.0	1726.0	1726.0	1709.0	1709.0	1734.0	1734.0	1734.0	1757.0	1757.0	1756.0	1756.0	1756.0	1717.0	1717.0	1755.0	1755.0	1755.0	1706.0	1706.0	1734.0	1734.0	1734.0	1745.0	1745.0	1709.0	1709.0	1709.0	1719.0	1719.0	1762.0	1762.0	1762.0	1755.0	1755.0	1744.0	1744.0	1744.0	1755.0	1755.0	1733.0	1733.0	1733.0	1756.0	1756.0	1699.0	1699.0	1699.0	1722.0	1722.0	1728.0	1728.0	1728.0	1742.0	1742.0	1732.0	1732.0	1732.0	1710.0	1710.0	1725.0	1725.0	1725.0	1748.0	1748.0	1763.0	1763.0	1763.0	1762.0	1762.0	1710.0	1710.0	1710.0	1737.0	1737.0	1758.0	1758.0	1758.0	1718.0	1718.0	1737.0	1737.0	1737.0	1756.0	1756.0	1735.0	1735.0	1735.0	1745.0	1745.0	1710.0	1710.0	1710.0	1771.0	1771.0	1750.0	1750.0	1750.0	1785.0	1785.0	1768.0	1768.0	1768.0	1758.0	1758.0	1813.0	1813.0	1813.0	1779.0	1779.0	1843.0	1843.0	1804.0	1804.0	1804.0	1861.0	1861.0	1872.0	1872.0	1872.0	1850.0	1850.0	1925.0	1925.0	1925.0	1895.0	1895.0	1959.0	1959.0	1959.0	1936.0	1936.0	2020.0	2020.0	2020.0	1999.0	1999.0	2041.0	2041.0	2041.0	2078.0	2078.0	2055.0	2055.0	2055.0	2094.0	2094.0	2153.0	2153.0	2153.0	2140.0	2140.0	2183.0	2183.0	2183.0	2196.0	2196.0	2218.0	2218.0	2218.0	2219.0	