1577.0	1580.0	1580.0	1580.0	1571.0	1571.0	1610.0	1610.0	1610.0	1609.0	1609.0	1588.0	1588.0	1588.0	1623.0	1623.0	1608.0	1608.0	1608.0	1616.0	1616.0	1554.0	1554.0	1554.0	1553.0	1553.0	1615.0	1615.0	1612.0	1612.0	1612.0	1613.0	1613.0	1577.0	1577.0	1577.0	1536.0	1536.0	1583.0	1583.0	1583.0	1543.0	1543.0	1549.0	1549.0	1549.0	1588.0	1588.0	1587.0	1587.0	1587.0	1609.0	1609.0	1603.0	1603.0	1603.0	1599.0	1599.0	1600.0	1600.0	1600.0	1614.0	1614.0	1555.0	1555.0	1555.0	1604.0	1604.0	1596.0	1596.0	1596.0	1607.0	1607.0	1607.0	1607.0	1607.0	1607.0	1607.0	1603.0	1603.0	1603.0	1608.0	1608.0	1613.0	1613.0	1613.0	1556.0	1556.0	1549.0	1549.0	1549.0	1574.0	1574.0	1569.0	1569.0	1569.0	1600.0	1600.0	1617.0	1617.0	1617.0	1633.0	1633.0	1619.0	1619.0	1619.0	1655.0	1655.0	1677.0	1677.0	1677.0	1693.0	1693.0	1695.0	1695.0	1695.0	1675.0	1675.0	1704.0	1704.0	1704.0	1705.0	1705.0	1742.0	1742.0	1742.0	1813.0	1813.0	1794.0	1794.0	1794.0	1848.0	1848.0	1851.0	1851.0	1851.0	1869.0	1869.0	1931.0	1931.0	1931.0	1932.0	1932.0	2000.0	2000.0	2000.0	2005.0	2005.0	2107.0	2107.0	2107.0	2080.0	2080.0	2156.0	2156.0	2156.0	2149.0	2149.0	2193.0	2193.0	2193.0	2231.0	2231.0	2307.0	2307.0	2307.0	2312.0	2312.0	2312.0	2312.0	2312.0	2402.0	2402.0	2395.0	2395.0	2395.0	2396.0	2396.0	2441.0	2441.0	2441.0	2465.0	2465.0	2499.0	2499.0	2499.0	2536.0	2536.0	2544.0	2544.0	2544.0	2575.0	2575.0	2556.0	2556.0	2556.0	2573.0	2573.0	2575.0	2575.0	2575.0	2570.0	2570.0	2634.0	2634.0	2634.0	2644.0	2644.0	2602.0	2602.0	2602.0	2657.0	2657.0	2627.0	2627.0	2627.0	2663.0	2663.0	2640.0	2640.0	2640.0	2647.0	2647.0	2687.0	2687.0	2687.0	2643.0	2643.0	2645.0	2645.0	2645.0	2692.0	2692.0	2672.0	2672.0	2661.0	2661.0	2661.0	2678.0	2678.0	2647.0	2647.0	2647.0	2634.0	2634.0	2690.0	2690.0	2690.0	2671.0	2671.0	2662.0	2662.0	2662.0	2624.0	2624.0	2684.0	2684.0	2684.0	2667.0	2667.0	2644.0	2644.0	2644.0	2670.0	2670.0	2618.0	2618.0	2618.0	2608.0	2608.0	2642.0	2642.0	2642.0	2636.0	2636.0	2620.0	2620.0	2620.0	2572.0	2572.0	2618.0	2618.0	2618.0	2559.0	2559.0	2597.0	2597.0	2597.0	2569.0	2569.0	2544.0	2544.0	2544.0	2550.0	2550.0	2566.0	2566.0	2566.0	2515.0	2515.0	2505.0	2505.0	2505.0	2491.0	2491.0	2542.0	2542.0	2542.0	2528.0	2528.0	2474.0	2474.0	2474.0	2502.0	2502.0	2482.0	2482.0	2482.0	2497.0	2497.0	2458.0	2458.0	2458.0	2441.0	2441.0	2430.0	2430.0	2430.0	2444.0	2444.0	2409.0	2409.0	2409.0	2447.0	2447.0	2428.0	2428.0	2428.0	2400.0	2400.0	2413.0	2413.0	2413.0	2355.0	2355.0	2377.0	2377.0	2377.0	2330.0	2330.0	2376.0	2376.0	2376.0	2365.0	2365.0	2306.0	2306.0	2306.0	2272.0	2272.0	2321.0	2321.0	2321.0	2282.0	2282.0	2234.0	2234.0	2234.0	2243.0	2243.0	2245.0	2245.0	2245.0	2203.0	2203.0	2211.0	2211.0	2211.0	2167.0	2167.0	2167.0	2167.0	2167.0	2158.0	2158.0	2144.0	2144.0	2144.0	2132.0	2132.0	2117.0	2117.0	2117.0	2107.0	2107.0	2094.0	2094.0	2094.0	2090.0	2090.0	2083.0	2083.0	2083.0	2125.0	2125.0	2058.0	2058.0	2058.0	2083.0	2083.0	2049.0	2049.0	2049.0	2039.0	2039.0	2049.0	2049.0	2049.0	2016.0	2016.0	2010.0	2010.0	2010.0	2001.0	2001.0	2057.0	2057.0	2057.0	1983.0	1983.0	2017.0	2017.0	2017.0	1966.0	1966.0	2013.0	2013.0	2010.0	2010.0	2010.0	1990.0	1990.0	1971.0	1971.0	1971.0	2020.0	2020.0	2002.0	2002.0	2002.0	2000.0	2000.0	1982.0	1982.0	1982.0	1976.0	1976.0	1989.0	1989.0	1989.0	1932.0	1932.0	1940.0	1940.0	1940.0	1936.0	1936.0	1988.0	1988.0	1988.0	1954.0	1954.0	1987.0	1987.0	1987.0	1929.0	1929.0	1981.0	1981.0	1981.0	1971.0	1971.0	1921.0	1921.0	1921.0	1922.0	1922.0	1931.0	1931.0	1931.0	1973.0	1973.0	1924.0	1924.0	1924.0	1924.0	1924.0	1964.0	1964.0	1964.0	1918.0	1918.0	1935.0	1935.0	1935.0	1959.0	1959.0	1951.0	1951.0	1951.0	1930.0	1930.0	1957.0	1957.0	1957.0	1911.0	1911.0	1884.0	1884.0	1884.0	1937.0	1937.0	1937.0	1937.0	1937.0	1895.0	1895.0	1913.0	1913.0	1913.0	1879.0	1879.0	1904.0	1904.0	1904.0	1931.0	1931.0	1927.0	1927.0	1927.0	1871.0	1871.0	1897.0	1897.0	1897.0	1876.0	1876.0	1912.0	1912.0	1912.0	1890.0	1890.0	1865.0	1865.0	1865.0	1908.0	1908.0	1888.0	1888.0	1888.0	1888.0	1888.0	1837.0	1837.0	1837.0	1862.0	1862.0	1880.0	1880.0	1880.0	1830.0	1830.0	1828.0	1828.0	1828.0	1800.0	1800.0	1840.0	1840.0	1840.0	1806.0	1806.0	1865.0	1865.0	1865.0	1861.0	1861.0	1833.0	1833.0	1833.0	1847.0	1847.0	1790.0	1790.0	1790.0	1846.0	1846.0	1841.0	1841.0	1841.0	1779.0	1779.0	1772.0	1772.0	1772.0	1821.0	1821.0	1763.0	1763.0	1763.0	1799.0	1799.0	1812.0	1812.0	1812.0	1808.0	1808.0	1808.0	1808.0	1808.0	1749.0	1749.0	1739.0	1739.0	1739.0	1780.0	1780.0	1791.0	1791.0	1791.0	1789.0	1789.0	1777.0	1777.0	1777.0	1778.0	1778.0	1718.0	1718.0	1718.0	1717.0	1717.0	1776.0	1776.0	1707.0	1707.0	1707.0	1710.0	1710.0	1748.0	1748.0	1748.0	1745.0	1745.0	1700.0	1700.0	1700.0	1703.0	1703.0	1736.0	1736.0	1736.0	1723.0	1723.0	1694.0	1694.0	1694.0	1747.0	1747.0	1725.0	1725.0	1725.0	1679.0	1679.0	1739.0	1739.0	1739.0	1700.0	1700.0	1672.0	1672.0	1672.0	1671.0	1671.0	1671.0	1671.0	1671.0	1736.0	1736.0	1725.0	1725.0	1725.0	1731.0	1731.0	1655.0	1655.0	1655.0	1710.0	1710.0	1723.0	1723.0	1723.0	1671.0	1671.0	1715.0	1715.0	1715.0	1705.0	1705.0	1716.0	1716.0	1716.0	1698.0	1698.0	1668.0	1668.0	1668.0	1663.0	1663.0	1704.0	1704.0	1704.0	1663.0	1663.0	1707.0	1707.0	1707.0	1713.0	1713.0	1686.0	1686.0	1686.0	1699.0	1699.0	1657.0	1657.0	1657.0	1685.0	1685.0	1673.0	1673.0	1673.0	1699.0	1699.0	1703.0	1703.0	1703.0	1709.0	1709.0	1650.0	1650.0	1650.0	1692.0	1692.0	1661.0	1661.0	1661.0	1690.0	1690.0	1635.0	1635.0	1635.0	1633.0	1633.0	1665.0	1665.0	1665.0	1620.0	1620.0	1667.0	1667.0	1667.0	1631.0	1631.0	1674.0	1674.0	1674.0	1680.0	1680.0	1619.0	1619.0	1619.0	1676.0	1676.0	1627.0	1627.0	1627.0	1639.0	1639.0	1655.0	1655.0	1655.0	1680.0	1680.0	1667.0	1667.0	1667.0	1656.0	1656.0	1614.0	1614.0	1614.0	1629.0	1629.0	1636.0	1636.0	1636.0	1606.0	1606.0	1657.0	1657.0	1657.0	1639.0	1639.0	1631.0	1631.0	1631.0	1618.0	1618.0	1615.0	1615.0	1615.0	1598.0	1598.0	1648.0	1648.0	1648.0	1615.0	1615.0	1639.0	1639.0	1639.0	1650.0	1650.0	1587.0	1587.0	1587.0	1658.0	1658.0	1591.0	1591.0	1591.0	1601.0	1601.0	1655.0	1655.0	1598.0	1598.0	1598.0	1593.0	1593.0	1626.0	1626.0	1626.0	1648.0	1648.0	1588.0	1588.0	1588.0	1591.0	1591.0	1610.0	1610.0	1610.0	1598.0	1598.0	1589.0	1589.0	1589.0	1661.0	1661.0	1637.0	1637.0	1637.0	1623.0	1623.0	1629.0	1629.0	1629.0	1669.0	1669.0	1630.0	1630.0	1630.0	1668.0	1668.0	1650.0	1650.0	1650.0	1718.0	1718.0	1702.0	1702.0	1702.0	1701.0	1701.0	1760.0	1760.0	1760.0	1740.0	1740.0	1818.0	1818.0	1818.0	1853.0	1853.0	1847.0	1847.0	1847.0	1908.0	1908.0	1878.0	1878.0	1878.0	1954.0	1954.0	1967.0	1967.0	1967.0	2018.0	2018.0	1990.0	1990.0	1990.0	2028.0	2028.0	2118.0	2118.0	2118.0	2144.0	2144.0	2120.0	2120.0	2120.0	2163.0	2163.0	2189.0	2189.0	2189.0	2252.0	2252.0	2248.0	2248.0	2248.0	2259.0	2259.0	2330.0	2330.0	2330.0	2343.0	2343.0	2395.0	2395.0	2395.0	2363.0	2363.0	2411.0	2411.0	2411.0	2442.0	2442.0	2421.0	2421.0	2421.0	2431.0	2431.0	2506.0	2506.0	2506.0	2507.0	2507.0	2473.0	2473.0	2473.0	2504.0	2504.0	2473.0	2473.0	2473.0	2519.0	2519.0	2549.0	2549.0	2549.0	2512.0	2512.0	2531.0	2531.0	2531.0	2565.0	2565.0	2537.0	2537.0	2537.0	2523.0	2523.0	2547.0	2547.0	2547.0	2520.0	2520.0	2513.0	2513.0	2513.0	2511.0	2511.0	2542.0	2542.0	2542.0	2525.0	2525.0	2516.0	2516.0	2516.0	2515.0	2515.0	2484.0	2484.0	2484.0	2496.0	2496.0	2536.0	2536.0	2536.0	2502.0	2502.0	2505.0	2505.0	2505.0	2500.0	2500.0	2459.0	2459.0	2459.0	2459.0	2459.0	2500.0	2500.0	2500.0	2428.0	2428.0	2423.0	2423.0	2423.0	2424.0	2424.0	2419.0	2419.0	2409.0	2409.0	2409.0	2392.0	2392.0	2385.0	2385.0	2385.0	2381.0	2381.0	2381.0	2381.0	2381.0	2400.0	2400.0	2349.0	2349.0	2349.0	2350.0	2350.0	2383.0	2383.0	2383.0	2324.0	2324.0	2342.0	2342.0	2342.0	2342.0	2342.0	2354.0	2354.0	2354.0	2347.0	2347.0	2348.0	2348.0	2348.0	2277.0	2277.0	2299.0	2299.0	2299.0	2256.0	2256.0	2289.0	2289.0	2289.0	2289.0	2289.0	2275.0	2275.0	2275.0	2218.0	2218.0	2260.0	2260.0	2260.0	2199.0	2199.0	2187.0	2187.0	2187.0	2188.0	2188.0	2212.0	2212.0	2212.0	2206.0	2206.0	2189.0	2189.0	2189.0	2194.0	2194.0	2155.0	2155.0	2155.0	2131.0	2131.0	2086.0	2086.0	2086.0	2065.0	2065.0	2110.0	2110.0	2110.0	2051.0	2051.0	2056.0	2056.0	2056.0	2059.0	2059.0	2042.0	2042.0	2042.0	2047.0	2047.0	1991.0	1991.0	1991.0	2033.0	2033.0	2027.0	2027.0	2027.0	1994.0	1994.0	2024.0	2024.0	2024.0	2000.0	2000.0	1939.0	1939.0	1939.0	1940.0	1940.0	1950.0	1950.0	1950.0	1907.0	1907.0	1975.0	1975.0	1975.0	1958.0	1958.0	1898.0	1898.0	1898.0	1934.0	1934.0	1900.0	1900.0	1900.0	1881.0	1881.0	1934.0	1934.0	1934.0	1874.0	1874.0	1898.0	1898.0	1898.0	1927.0	1927.0	1899.0	1899.0	1899.0	1858.0	1858.0	1867.0	1867.0	1867.0	1884.0	1884.0	1898.0	1898.0	1898.0	1841.0	1841.0	1892.0	1892.0	1892.0	1837.0	1837.0	1877.0	1877.0	1877.0	1855.0	1855.0	1873.0	1873.0	1873.0	1883.0	1883.0	1851.0	1851.0	1851.0	1905.0	1905.0	1880.0	1880.0	1880.0	1900.0	1900.0	1864.0	1864.0	1864.0	1884.0	1884.0	1874.0	1874.0	1874.0	1855.0	1855.0	1884.0	1884.0	1884.0	1839.0	1839.0	1867.0	1867.0	1868.0	1868.0	1868.0	1853.0	1853.0	1866.0	1866.0	1866.0	1846.0	1846.0	1878.0	1878.0	1878.0	1837.0	1837.0	1838.0	1838.0	1838.0	1863.0	1863.0	1834.0	1834.0	1834.0	1838.0	1838.0	1827.0	1827.0	1827.0	1852.0	1852.0	1877.0	1877.0	1877.0	1862.0	1862.0	1849.0	1849.0	1849.0	1862.0	1862.0	1799.0	1799.0	1799.0	1851.0	1851.0	1853.0	1853.0	1853.0	1794.0	1794.0	1792.0	1792.0	1792.0	1806.0	1806.0	1823.0	1823.0	1823.0	1800.0	1800.0	1815.0	1815.0	1815.0	1826.0	1826.0	1771.0	1771.0	1771.0	1800.0	1800.0	1821.0	1821.0	1821.0	1819.0	1819.0	1803.0	1803.0	1803.0	1822.0	1822.0	1807.0	1807.0	1807.0	1767.0	1767.0	1755.0	1755.0	1755.0	1806.0	1806.0	1770.0	1770.0	1770.0	1741.0	1741.0	1732.0	1732.0	1732.0	1775.0	1775.0	1776.0	1776.0	1776.0	1775.0	1775.0	1759.0	1759.0	1759.0	1704.0	1704.0	1702.0	1702.0	1702.0	1693.0	1693.0	1734.0	1734.0	1734.0	1752.0	1752.0	1744.0	1744.0	1744.0	1693.0	1693.0	1683.0	1683.0	1683.0	1746.0	1746.0	1726.0	1726.0	1726.0	1725.0	1725.0	1729.0	1729.0	1729.0	1708.0	1708.0	1708.0	1708.0	1708.0	1664.0	1664.0	1708.0	1708.0	1708.0	1660.0	1660.0	1655.0	1655.0	1655.0	1710.0	1710.0	1656.0	1656.0	1656.0	1681.0	1681.0	1712.0	1712.0	1712.0	1646.0	1646.0	1638.0	1638.0	1638.0	1649.0	1649.0	1643.0	1643.0	1643.0	1695.0	1695.0	1671.0	1671.0	1671.0	1646.0	1646.0	1626.0	1626.0	1626.0	1700.0	1700.0	1673.0	1673.0	1673.0	1673.0	1673.0	1651.0	1651.0	1651.0	1687.0	1687.0	1682.0	1682.0	1682.0	1620.0	1620.0	1610.0	1610.0	1664.0	1664.0	1664.0	1641.0	1641.0	1651.0	1651.0	1651.0	1620.0	1620.0	1607.0	1607.0	1607.0	1666.0	1666.0	1619.0	1619.0	1619.0	1609.0	1609.0	1627.0	1627.0	1627.0	1606.0	1606.0	1616.0	1616.0	1616.0	1591.0	1591.0	1612.0	1612.0	1612.0	1615.0	1615.0	1644.0	1644.0	1644.0	1591.0	1591.0	1578.0	1578.0	1578.0	1607.0	1607.0	1583.0	1583.0	1583.0	1581.0	1581.0	1582.0	1582.0	1582.0	1585.0	1585.0	1625.0	1625.0	1625.0	1618.0	1618.0	1629.0	1629.0	1629.0	1564.0	1564.0	1570.0	1570.0	1570.0	1552.0	1552.0	1620.0	1620.0	1620.0	1597.0	1597.0	1612.0	1612.0	1612.0	1590.0	1590.0	1555.0	1555.0	1555.0	1607.0	1607.0	1543.0	1543.0	1543.0	1586.0	1586.0	1569.0	1569.0	1569.0	1585.0	1585.0	1565.0	1565.0	1565.0	1546.0	1546.0	1527.0	1527.0	1527.0	1580.0	1580.0	1572.0	1572.0	1572.0	1523.0	1523.0	1543.0	1543.0	1543.0	1579.0	1579.0	1514.0	1514.0	1514.0	1543.0	1543.0	1574.0	1574.0	1574.0	1560.0	1560.0	1521.0	1521.0	1521.0	1536.0	1536.0	1562.0	1562.0	1562.0	1518.0	1518.0	1544.0	1544.0	1544.0	1496.0	1496.0	1509.0	1509.0	1509.0	1562.0	1562.0	1531.0	1531.0	1531.0	1495.0	1495.0	1555.0	1555.0	1555.0	1493.0	1493.0	1553.0	1553.0	1553.0	1488.0	1488.0	1510.0	1510.0	1510.0	1531.0	1531.0	1554.0	1554.0	1554.0	1552.0	1552.0	1506.0	1506.0	1506.0	1532.0	1532.0	1565.0	1565.0	1565.0	1549.0	1549.0	1514.0	1514.0	1514.0	1529.0	1529.0	1580.0	1580.0	1580.0	1599.0	1599.0	1613.0	1613.0	1613.0	1633.0	1633.0	1622.0	1622.0	1622.0	1646.0	1646.0	1716.0	1716.0	1722.0	1722.0	1722.0	1704.0	1704.0	1781.0	1781.0	1781.0	1747.0	1747.0	1806.0	1806.0	1806.0	1878.0	1878.0	1847.0	1847.0	1847.0	1895.0	1895.0	1968.0	1968.0	1968.0	1940.0	1940.0	1959.0	1959.0	1959.0	1995.0	1995.0	2028.0	2028.0	2028.0	2060.0	2060.0	2151.0	2151.0	2151.0	2119.0	2119.0	2181.0	2181.0	2181.0	2158.0	2158.0	2158.0	2158.0	2158.0	2223.0	2223.0	2238.0	2238.0	2238.0	2308.0	2308.0	2321.0	2321.0	2321.0	2301.0	2301.0	2347.0	2347.0	2347.0	2359.0	2359.0	2328.0	2328.0	2328.0	2394.0	2394.0	2355.0	2355.0	2355.0	2368.0	2368.0	2411.0	2411.0	2411.0	2415.0	2415.0	2400.0	2400.0	2400.0	2410.0	2410.0	2409.0	2409.0	2409.0	2398.0	2398.0	2447.0	2447.0	2447.0	2414.0	2414.0	2400.0	2400.0	2400.0	2461.0	2461.0	2432.0	2432.0	2432.0	2424.0	2424.0	2452.0	2452.0	2452.0	2423.0	2423.0	2434.0	2434.0	2434.0	2387.0	2387.0	2387.0	2387.0	2387.0	2423.0	2423.0	2359.0	2359.0	2359.0	2354.0	2354.0	2366.0	2366.0	2366.0	2349.0	2349.0	2327.0	2327.0	2327.0	2328.0	2328.0	2326.0	2326.0	2326.0	2345.0	2345.0	2285.0	2285.0	2285.0	2344.0	2344.0	2274.0	2274.0	2274.0	2283.0	2283.0	2294.0	2294.0	2294.0	2251.0	2251.0	2232.0	2232.0	2232.0	2234.0	2234.0	2210.0	2210.0	2210.0	2222.0	2222.0	2250.0	2250.0	2250.0	2181.0	2181.0	2181.0	2181.0	2181.0	2227.0	2227.0	2185.0	2185.0	2185.0	2202.0	2202.0	2135.0	2135.0	2135.0	2179.0	2179.0	2129.0	2129.0	2129.0	2111.0	2111.0	2151.0	2151.0	2151.0	2097.0	2097.0	2067.0	2067.0	2067.0	2065.0	2065.0	2096.0	2096.0	2096.0	2076.0	2076.0	2016.0	2016.0	2066.0	2066.0	2066.0	2053.0	2053.0	1997.0	1997.0	1997.0	1993.0	1993.0	1980.0	1980.0	1980.0	1935.0	1935.0	1932.0	1932.0	1932.0	1955.0	1955.0	1938.0	1938.0	1938.0	1956.0	1956.0	1895.0	1895.0	1895.0	1889.0	1889.0	1898.0	1898.0	1898.0	1913.0	1913.0	1907.0	1907.0	1907.0	1892.0	1892.0	1886.0	1886.0	1886.0	1855.0	1855.0	1872.0	1872.0	1872.0	1817.0	1817.0	1798.0	1798.0	1798.0	1790.0	1790.0	1802.0	1802.0	1802.0	1819.0	1819.0	1778.0	1778.0	1778.0	1786.0	1786.0	1755.0	1755.0	1755.0	1785.0	1785.0	1771.0	1771.0	1771.0	1780.0	1780.0	1746.0	1746.0	1746.0	1805.0	1805.0	1811.0	1811.0	1811.0	1750.0	1750.0	1732.0	1732.0	1732.0	1798.0	1798.0	1737.0	1737.0	1737.0	1765.0	1765.0	1730.0	1730.0	1730.0	1743.0	1743.0	1730.0	1730.0	1730.0	1737.0	1737.0	1779.0	1779.0	1779.0	1780.0	1780.0	1723.0	1723.0	1723.0	1781.0	1781.0	1771.0	1771.0	1771.0	1759.0	1759.0	1749.0	1749.0	1749.0	1764.0	1764.0	1764.0	1764.0	1764.0	1703.0	1703.0	1725.0	1725.0	1725.0	1736.0	1736.0	1725.0	1725.0	1725.0	1781.0	1781.0	1752.0	1752.0	1752.0	1710.0	1710.0	1775.0	1775.0	1775.0	1715.0	1715.0	1705.0	1705.0	1705.0	1743.0	1743.0	1712.0	1712.0	1712.0	1774.0	1774.0	1763.0	1763.0	1763.0	1719.0	1719.0	1755.0	1755.0	1755.0	1706.0	1706.0	1718.0	1718.0	1718.0	1724.0	1724.0	1740.0	1740.0	1740.0	1742.0	1742.0	1748.0	1748.0	1748.0	1703.0	1703.0	1699.0	1699.0	1699.0	1756.0	1756.0	1700.0	1700.0	1700.0	1696.0	1696.0	1683.0	1683.0	1683.0	1695.0	1695.0	1715.0	1715.0	1677.0	1677.0	1677.0	1731.0	1731.0	1675.0	1675.0	1675.0	1719.0	1719.0	1659.0	1659.0	1659.0	1717.0	1717.0	1714.0	1714.0	1714.0	1680.0	1680.0	1705.0	1705.0	1705.0	1643.0	1643.0	1655.0	1655.0	1655.0	1648.0	1648.0	1680.0	1680.0	