2294.0	2294.0	2300.0	2300.0	2268.0	2268.0	2268.0	2274.0	2274.0	2281.0	2281.0	2281.0	2296.0	2296.0	2272.0	2272.0	2272.0	2238.0	2238.0	2234.0	2234.0	2234.0	2239.0	2239.0	2255.0	2255.0	2255.0	2230.0	2230.0	2225.0	2225.0	2225.0	2236.0	2236.0	2233.0	2233.0	2233.0	2211.0	2211.0	2204.0	2204.0	2204.0	2188.0	2188.0	2213.0	2213.0	2213.0	2182.0	2182.0	2186.0	2186.0	2186.0	2152.0	2152.0	2159.0	2159.0	2159.0	2172.0	2172.0	2129.0	2129.0	2129.0	2151.0	2151.0	2119.0	2119.0	2119.0	2140.0	2140.0	2137.0	2137.0	2137.0	2106.0	2106.0	2090.0	2090.0	2090.0	2123.0	2123.0	2110.0	2110.0	2110.0	2097.0	2097.0	2084.0	2084.0	2084.0	2085.0	2085.0	2075.0	2075.0	2075.0	2072.0	2072.0	2041.0	2041.0	2041.0	2031.0	2031.0	2055.0	2055.0	2055.0	2041.0	2041.0	2046.0	2046.0	2046.0	2048.0	2048.0	2018.0	2018.0	2005.0	2005.0	2005.0	2030.0	2030.0	2018.0	2018.0	2018.0	2012.0	2012.0	1991.0	1991.0	1991.0	2008.0	2008.0	1999.0	1999.0	1999.0	2006.0	2006.0	2021.0	2021.0	2021.0	1989.0	1989.0	1992.0	1992.0	1992.0	1993.0	1993.0	2013.0	2013.0	2013.0	2013.0	2013.0	2000.0	2000.0	2000.0	1966.0	1966.0	1987.0	1987.0	1987.0	1980.0	1980.0	1974.0	1974.0	1974.0	1975.0	1975.0	1999.0	1999.0	1999.0	1976.0	1976.0	1992.0	1992.0	1992.0	1992.0	1992.0	1983.0	1983.0	1983.0	1976.0	1976.0	1963.0	1963.0	1963.0	1968.0	1968.0	1954.0	1954.0	1954.0	1961.0	1961.0	1976.0	1976.0	1976.0	1988.0	1988.0	1968.0	1968.0	1968.0	1979.0	1979.0	1957.0	1957.0	1957.0	1981.0	1981.0	1966.0	1966.0	1966.0	1940.0	1940.0	1979.0	1979.0	1979.0	1950.0	1950.0	1945.0	1945.0	1945.0	1947.0	1947.0	1967.0	1967.0	1967.0	1963.0	1963.0	1954.0	1954.0	1954.0	1933.0	1933.0	1940.0	1940.0	1940.0	1921.0	1921.0	1934.0	1934.0	1934.0	1938.0	1938.0	1929.0	1929.0	1929.0	1924.0	1924.0	1946.0	1946.0	1946.0	1923.0	1923.0	1949.0	1949.0	1949.0	1926.0	1926.0	1921.0	1921.0	1921.0	1920.0	1920.0	1935.0	1935.0	1935.0	1904.0	1904.0	1934.0	1934.0	1934.0	1911.0	1911.0	1943.0	1943.0	1943.0	1923.0	1923.0	1922.0	1922.0	1922.0	1915.0	1915.0	1896.0	1896.0	1896.0	1894.0	1894.0	1907.0	1907.0	1907.0	1880.0	1880.0	1869.0	1869.0	1869.0	1908.0	1908.0	1882.0	1882.0	1882.0	1910.0	1910.0	1909.0	1909.0	1909.0	1867.0	1867.0	1859.0	1859.0	1859.0	1895.0	1895.0	1867.0	1867.0	1867.0	1859.0	1859.0	1881.0	1881.0	1881.0	1855.0	1855.0	1896.0	1896.0	1888.0	1888.0	1888.0	1839.0	1839.0	1852.0	1852.0	1852.0	1844.0	1844.0	1861.0	1861.0	1861.0	1860.0	1860.0	1890.0	1890.0	1890.0	1830.0	1830.0	1839.0	1839.0	1839.0	1834.0	1834.0	1853.0	1853.0	1853.0	1833.0	1833.0	1854.0	1854.0	1854.0	1846.0	1846.0	1832.0	1832.0	1832.0	1838.0	1838.0	1851.0	1851.0	1851.0	1824.0	1824.0	1825.0	1825.0	1825.0	1856.0	1856.0	1815.0	1815.0	1815.0	1808.0	1808.0	1825.0	1825.0	1825.0	1835.0	1835.0	1828.0	1828.0	1828.0	1810.0	1810.0	1807.0	1807.0	1807.0	1846.0	1846.0	1798.0	1798.0	1798.0	1835.0	1835.0	1827.0	1827.0	1827.0	1832.0	1832.0	1809.0	1809.0	1809.0	1801.0	1801.0	1799.0	1799.0	1799.0	1797.0	1797.0	1810.0	1810.0	1810.0	1794.0	1794.0	1817.0	1817.0	1817.0	1796.0	1796.0	1810.0	1810.0	1810.0	1797.0	1797.0	1791.0	1791.0	1791.0	1803.0	1803.0	1807.0	1807.0	1807.0	1824.0	1824.0	1810.0	1810.0	1810.0	1811.0	1811.0	1805.0	1805.0	1805.0	1787.0	1787.0	1801.0	1801.0	1801.0	1812.0	1812.0	1786.0	1786.0	1786.0	1786.0	1786.0	1792.0	1792.0	1792.0	1798.0	1798.0	1784.0	1784.0	1784.0	1799.0	1799.0	1798.0	1798.0	1798.0	1804.0	1804.0	1768.0	1768.0	1768.0	1790.0	1790.0	1797.0	1797.0	1797.0	1772.0	1772.0	1776.0	1776.0	1776.0	1783.0	1783.0	1779.0	1779.0	1779.0	1782.0	1782.0	1789.0	1789.0	1789.0	1766.0	1766.0	1800.0	1800.0	1800.0	1757.0	1757.0	1800.0	1800.0	1800.0	1805.0	1805.0	1787.0	1787.0	1787.0	1792.0	1792.0	1767.0	1767.0	1767.0	1783.0	1783.0	1787.0	1787.0	1787.0	1786.0	1786.0	1802.0	1802.0	1798.0	1798.0	1798.0	1837.0	1837.0	1859.0	1859.0	1859.0	1837.0	1837.0	1895.0	1895.0	1895.0	1893.0	1893.0	1891.0	1891.0	1891.0	1901.0	1901.0	1935.0	1935.0	1935.0	1936.0	1936.0	1942.0	1942.0	1942.0	2003.0	2003.0	2007.0	2007.0	2007.0	2026.0	2026.0	2023.0	2023.0	2023.0	2038.0	2038.0	2081.0	2081.0	2081.0	2091.0	2091.0	2086.0	2086.0	2086.0	2102.0	2102.0	2119.0	2119.0	2119.0	2177.0	2177.0	2186.0	2186.0	2186.0	2200.0	2200.0	2214.0	2214.0	2214.0	2225.0	2225.0	2227.0	2227.0	2227.0	2230.0	2230.0	2242.0	2242.0	2242.0	2250.0	2250.0	2265.0	2265.0	2265.0	2269.0	2269.0	2281.0	2281.0	2281.0	2288.0	2288.0	2278.0	2278.0	2278.0	2322.0	2322.0	2316.0	2316.0	2316.0	2314.0	2314.0	2339.0	2339.0	2339.0	2334.0	2334.0	2342.0	2342.0	2342.0	2333.0	2333.0	2352.0	2352.0	2352.0	2337.0	2337.0	2337.0	2337.0	2337.0	2313.0	2313.0	2358.0	2358.0	2358.0	2351.0	2351.0	2335.0	2335.0	2335.0	2356.0	2356.0	2339.0	2339.0	2339.0	2348.0	2348.0	2355.0	2355.0	2355.0	2335.0	2335.0	2358.0	2358.0	2358.0	2355.0	2355.0	2356.0	2356.0	2356.0	2351.0	2351.0	2323.0	2323.0	2323.0	2326.0	2326.0	2334.0	2334.0	2334.0	2316.0	2316.0	2352.0	2352.0	2352.0	2329.0	2329.0	2345.0	2345.0	2345.0	2330.0	2330.0	2351.0	2351.0	2351.0	2300.0	2300.0	2309.0	2309.0	2309.0	2324.0	2324.0	2327.0	2327.0	2327.0	2307.0	2307.0	2291.0	2291.0	2291.0	2307.0	2307.0	2272.0	2272.0	2272.0	2281.0	2281.0	2286.0	2286.0	2286.0	2307.0	2307.0	2291.0	2291.0	2291.0	2300.0	2300.0	2272.0	2272.0	2276.0	2276.0	2276.0	2263.0	2263.0	2272.0	2272.0	2272.0	2255.0	2255.0	2246.0	2246.0	2246.0	2254.0	2254.0	2245.0	2245.0	2245.0	2239.0	2239.0	2270.0	2270.0	2270.0	2235.0	2235.0	2215.0	2215.0	2215.0	2220.0	2220.0	2232.0	2232.0	2232.0	2207.0	2207.0	2224.0	2224.0	2224.0	2211.0	2211.0	2211.0	2211.0	2211.0	2193.0	2193.0	2193.0	2193.0	2193.0	2171.0	2171.0	2187.0	2187.0	2187.0	2157.0	2157.0	2166.0	2166.0	2166.0	2160.0	2160.0	2155.0	2155.0	2155.0	2127.0	2127.0	2113.0	2113.0	2113.0	2107.0	2107.0	2131.0	2131.0	2131.0	2094.0	2094.0	2082.0	2082.0	2082.0	2114.0	2114.0	2087.0	2087.0	2087.0	2081.0	2081.0	2069.0	2069.0	2069.0	2041.0	2041.0	2071.0	2071.0	2071.0	2071.0	2071.0	2055.0	2055.0	2055.0	2055.0	2055.0	2021.0	2021.0	2021.0	2038.0	2038.0	2011.0	2011.0	2011.0	2013.0	2013.0	2002.0	2002.0	2002.0	2022.0	2022.0	2002.0	2002.0	2002.0	1999.0	1999.0	2017.0	2017.0	2017.0	2012.0	2012.0	2014.0	2014.0	2014.0	1992.0	1992.0	1975.0	1975.0	1975.0	2005.0	2005.0	1996.0	1996.0	1996.0	1992.0	1992.0	2012.0	2012.0	2012.0	2004.0	2004.0	2005.0	2005.0	2005.0	1955.0	1955.0	1960.0	1960.0	1960.0	1993.0	1993.0	1964.0	1964.0	1964.0	1985.0	1985.0	1981.0	1981.0	1981.0	1946.0	1946.0	1976.0	1976.0	1976.0	1973.0	1973.0	1996.0	1996.0	1996.0	1954.0	1954.0	1978.0	1978.0	1978.0	1950.0	1950.0	1959.0	1959.0	1959.0	1963.0	1963.0	1956.0	1956.0	1956.0	1946.0	1946.0	1945.0	1945.0	1945.0	1963.0	1963.0	1970.0	1970.0	1970.0	1979.0	1979.0	1973.0	1973.0	1973.0	1955.0	1955.0	1935.0	1935.0	1936.0	1936.0	1936.0	1965.0	1965.0	1955.0	1955.0	1955.0	1941.0	1941.0	1966.0	1966.0	1966.0	1953.0	1953.0	1956.0	1956.0	1956.0	1947.0	1947.0	1959.0	1959.0	1959.0	1954.0	1954.0	1950.0	1950.0	1950.0	1932.0	1932.0	1945.0	1945.0	1945.0	1925.0	1925.0	1944.0	1944.0	1944.0	1917.0	1917.0	1916.0	1916.0	1916.0	1918.0	1918.0	1915.0	1915.0	1915.0	1926.0	1926.0	1921.0	1921.0	1921.0	1899.0	1899.0	1940.0	1940.0	1940.0	1929.0	1929.0	1910.0	1910.0	1910.0	1882.0	1882.0	1887.0	1887.0	1887.0	1908.0	1908.0	1889.0	1889.0	1889.0	1923.0	1923.0	1901.0	1901.0	1901.0	1875.0	1875.0	1871.0	1871.0	1871.0	1906.0	1906.0	1867.0	1867.0	1867.0	1881.0	1881.0	1867.0	1867.0	1867.0	1858.0	1858.0	1875.0	1875.0	1875.0	1885.0	1885.0	1879.0	1879.0	1879.0	1887.0	1887.0	1864.0	1864.0	1864.0	1862.0	1862.0	1859.0	1859.0	1859.0	1844.0	1844.0	1872.0	1872.0	1872.0	1873.0	1873.0	1863.0	1863.0	1863.0	1882.0	1882.0	1862.0	1862.0	1862.0	1872.0	1872.0	1844.0	1844.0	1844.0	1859.0	1859.0	1851.0	1851.0	1851.0	1831.0	1831.0	1848.0	1848.0	1848.0	1837.0	1837.0	1837.0	1837.0	1837.0	1833.0	1833.0	1819.0	1819.0	1819.0	1827.0	1827.0	1834.0	1834.0	1834.0	1827.0	1827.0	1830.0	1830.0	1830.0	1823.0	1823.0	1841.0	1841.0	1841.0	1844.0	1844.0	1843.0	1843.0	1843.0	1816.0	1816.0	1824.0	1824.0	1824.0	1811.0	1811.0	1810.0	1810.0	1810.0	1811.0	1811.0	1809.0	1809.0	1809.0	1801.0	1801.0	1807.0	1807.0	1807.0	1801.0	1801.0	1807.0	1807.0	1807.0	1827.0	1827.0	1829.0	1829.0	1788.0	1788.0	1788.0	1792.0	1792.0	1839.0	1839.0	1839.0	1832.0	1832.0	1794.0	1794.0	1794.0	1785.0	1785.0	1809.0	1809.0	1809.0	1794.0	1794.0	1788.0	1788.0	1788.0	1794.0	1794.0	1806.0	1806.0	1806.0	1790.0	1790.0	1774.0	1774.0	1774.0	1818.0	1818.0	1787.0	1787.0	1787.0	1773.0	1773.0	1783.0	1783.0	1783.0	1785.0	1785.0	1795.0	1795.0	1795.0	1813.0	1813.0	1782.0	1782.0	1782.0	1820.0	1820.0	1803.0	1803.0	1803.0	1777.0	1777.0	1792.0	1792.0	1792.0	1820.0	1820.0	1784.0	1784.0	1784.0	1798.0	1798.0	1792.0	1792.0	1792.0	1777.0	1777.0	1774.0	1774.0	1774.0	1810.0	1810.0	1799.0	1799.0	1799.0	1787.0	1787.0	1816.0	1816.0	1816.0	1768.0	1768.0	1773.0	1773.0	1773.0	1776.0	1776.0	1761.0	1761.0	1761.0	1813.0	1813.0	1770.0	1770.0	1770.0	1812.0	1812.0	1802.0	1802.0	1802.0	1781.0	1781.0	1817.0	1817.0	1817.0	1802.0	1802.0	1826.0	1826.0	1826.0	1846.0	1846.0	1845.0	1845.0	1845.0	1880.0	1880.0	1876.0	1876.0	1876.0	1873.0	1873.0	1892.0	1892.0	1892.0	1916.0	1916.0	1931.0	1931.0	1931.0	1941.0	1941.0	1974.0	1974.0	1974.0	1962.0	1962.0	1993.0	1993.0	1993.0	2031.0	2031.0	2074.0	2074.0	2074.0	2079.0	2079.0	2064.0	2064.0	2064.0	2090.0	2090.0	2115.0	2115.0	2115.0	2116.0	2116.0	2121.0	2121.0	2121.0	2176.0	2176.0	2182.0	2182.0	2182.0	2216.0	2216.0	2200.0	2200.0	2200.0	2245.0	2245.0	2223.0	2223.0	2223.0	2243.0	2243.0	2284.0	2284.0	2284.0	2278.0	2278.0	2298.0	2298.0	2298.0	2286.0	2286.0	2296.0	2296.0	2296.0	2327.0	2327.0	2329.0	2329.0	2321.0	2321.0	2321.0	2351.0	2351.0	2355.0	2355.0	2355.0	2357.0	2357.0	2355.0	2355.0	2355.0	2333.0	2333.0	2352.0	2352.0	2352.0	2338.0	2338.0	2355.0	2355.0	2355.0	2352.0	2352.0	2365.0	2365.0	2365.0	2365.0	2365.0	2357.0	2357.0	2357.0	2379.0	2379.0	2368.0	2368.0	2368.0	2383.0	2383.0	2355.0	2355.0	2355.0	2359.0	2359.0	2359.0	2359.0	2359.0	2371.0	2371.0	2361.0	2361.0	2361.0	2348.0	2348.0	2356.0	2356.0	2356.0	2374.0	2374.0	2348.0	2348.0	2348.0	2365.0	2365.0	2360.0	2360.0	2360.0	2340.0	2340.0	2355.0	2355.0	2355.0	2365.0	2365.0	2366.0	2366.0	2366.0	2338.0	2338.0	2343.0	2343.0	2343.0	2332.0	2332.0	2321.0	2321.0	2321.0	2340.0	2340.0	2302.0	2302.0	2302.0	2323.0	2323.0	2341.0	2341.0	2341.0	2307.0	2307.0	2325.0	2325.0	2325.0	2288.0	2288.0	2287.0	2287.0	2287.0	2309.0	2309.0	2306.0	2306.0	2306.0	2298.0	2298.0	2274.0	2274.0	2274.0	2274.0	2274.0	2292.0	2292.0	2292.0	2301.0	2301.0	2270.0	2270.0	2270.0	2269.0	2269.0	2251.0	2251.0	2251.0	2252.0	2252.0	2252.0	2252.0	2252.0	2240.0	2240.0	2237.0	2237.0	2237.0	2229.0	2229.0	2234.0	2234.0	2234.0	2237.0	2237.0	2211.0	2211.0	2211.0	2200.0	2200.0	2224.0	2224.0	2224.0	2225.0	2225.0	2186.0	2186.0	2186.0	2176.0	2176.0	2183.0	2183.0	2183.0	2165.0	2165.0	2180.0	2180.0	2180.0	2149.0	2149.0	2152.0	2152.0	2152.0	2142.0	2142.0	2149.0	2149.0	2149.0	2129.0	2129.0	2118.0	2118.0	2118.0	2103.0	2103.0	2127.0	2127.0	2127.0	2130.0	2130.0	2119.0	2119.0	2119.0	2063.0	2063.0	2112.0	2112.0	2112.0	2085.0	2085.0	2065.0	2065.0	2076.0	2076.0	2076.0	2038.0	2038.0	2048.0	2048.0	2048.0	2067.0	2067.0	2035.0	2035.0	2035.0	2058.0	2058.0	2031.0	2031.0	2031.0	2039.0	2039.0	1995.0	1995.0	1995.0	2041.0	2041.0	2007.0	2007.0	2007.0	1995.0	1995.0	1987.0	1987.0	1987.0	1980.0	1980.0	1979.0	1979.0	1979.0	2004.0	2004.0	1974.0	1974.0	1974.0	2001.0	2001.0	1993.0	1993.0	1993.0	2000.0	2000.0	2001.0	2001.0	2001.0	1989.0	1989.0	1995.0	1995.0	1995.0	1979.0	1979.0	1989.0	1989.0	1989.0	1969.0	1969.0	1979.0	1979.0	1979.0	1995.0	1995.0	1999.0	1999.0	1999.0	1981.0	1981.0	1984.0	1984.0	1984.0	1995.0	1995.0	1994.0	1994.0	1994.0	1966.0	1966.0	1986.0	1986.0	1986.0	1959.0	1959.0	1975.0	1975.0	1975.0	1988.0	1988.0	1966.0	1966.0	1966.0	1958.0	1958.0	1965.0	1965.0	1965.0	1966.0	1966.0	1977.0	1977.0	1977.0	1977.0	1977.0	1965.0	1965.0	1965.0	1947.0	1947.0	1971.0	1971.0	1971.0	1977.0	1977.0	1946.0	1946.0	1946.0	1946.0	1946.0	1941.0	1941.0	1941.0	1946.0	1946.0	1943.0	1943.0	1943.0	1930.0	1930.0	1952.0	1952.0	1952.0	1946.0	1946.0	1935.0	1935.0	1935.0	1929.0	1929.0	1924.0	1924.0	1924.0	1925.0	1925.0	1899.0	1899.0	1899.0	1911.0	1911.0	1906.0	1906.0	1906.0	1914.0	1914.0	1926.0	1926.0	1926.0	1907.0	1907.0	1908.0	1908.0	1908.0	1914.0	1914.0	1880.0	1880.0	1880.0	1910.0	1910.0	1932.0	1932.0	1932.0	1882.0	1882.0	1879.0	1879.0	1879.0	1906.0	1906.0	1886.0	1886.0	1886.0	1887.0	1887.0	1892.0	1892.0	1892.0	1897.0	1897.0	1882.0	1882.0	1882.0	1907.0	1907.0	1866.0	1866.0	1860.0	1860.0	1860.0	1865.0	1865.0	1896.0	1896.0	1896.0	1871.0	1871.0	1874.0	1874.0	1874.0	1877.0	1877.0	1874.0	1874.0	1874.0	1868.0	1868.0	1845.0	1845.0	1845.0	1847.0	1847.0	1835.0	1835.0	1835.0	1835.0	1835.0	1825.0	1825.0	1825.0	1864.0	1864.0	1849.0	1849.0	1849.0	1873.0	1873.0	1859.0	1859.0	1859.0	1851.0	1851.0	1855.0	1855.0	1855.0	1815.0	1815.0	1822.0	1822.0	1822.0	1819.0	1819.0	1846.0	1846.0	1846.0	1843.0	1843.0	1819.0	1819.0	1819.0	1842.0	1842.0	1835.0	1835.0	1835.0	1830.0	1830.0	1825.0	1825.0	1825.0	1823.0	1823.0	1848.0	1848.0	1848.0	1813.0	1813.0	1803.0	1803.0	1803.0	1812.0	1812.0	1847.0	1847.0	1847.0	1837.0	1837.0	1814.0	1814.0	1814.0	1842.0	1842.0	1814.0	1814.0	1814.0	1825.0	1825.0	1837.0	1837.0	1837.0	1824.0	1824.0	1821.0	1821.0	1821.0	1821.0	1821.0	1804.0	1804.0	1804.0	1805.0	1805.0	1788.0	1788.0	1788.0	1797.0	1797.0	1798.0	1798.0	1798.0	1827.0	1827.0	1831.0	1831.0	1831.0	1814.0	1814.0	1795.0	1795.0	1795.0	1821.0	1821.0	1805.0	1805.0	1805.0	1792.0	1792.0	1790.0	1790.0	1790.0	1793.0	1793.0	1781.0	1781.0	1781.0	1794.0	1794.0	1806.0	1806.0	1806.0	1800.0	1800.0	1814.0	1814.0	1814.0	1789.0	1789.0	1775.0	1775.0	1775.0	1777.0	1777.0	1799.0	1799.0	1799.0	1782.0	1782.0	1778.0	1778.0	1778.0	1793.0	1793.0	1787.0	1787.0	1787.0	1773.0	1773.0	1795.0	1795.0	1795.0	1774.0	1774.0	1773.0	1773.0	1773.0	1787.0	1787.0	1809.0	1809.0	1809.0	1788.0	1788.0	1807.0	1807.0	1807.0	1798.0	1798.0	1796.0	1796.0	1796.0	1796.0	1796.0	1768.0	1768.0	1771.0	1771.0	1771.0	1796.0	1796.0	1811.0	1811.0	1811.0	1805.0	1805.0	1797.0	1797.0	1797.0	1783.0	1783.0	1797.0	1797.0	1797.0	1805.0	1805.0	1834.0	1834.0	1834.0	1825.0	1825.0	1839.0	1839.0	1839.0	1840.0	1840.0	1835.0	1835.0	1835.0	1871.0	1871.0	1847.0	1847.0	1847.0	1899.0	1899.0	1915.0	1915.0	1915.0	1879.0	1879.0	1927.0	1927.0	1927.0	1939.0	1939.0	1948.0	1948.0	1948.0	1974.0	1974.0	1989.0	1989.0	1989.0	1993.0	1993.0	2044.0	2044.0	2044.0	2043.0	2043.0	2072.0	2072.0	2072.0	2074.0	2074.0	2106.0	2106.0	2106.0	2119.0	2119.0	2133.0	2133.0	2133.0	2178.0	2178.0	2168.0	2168.0	2168.0	2209.0	2209.0	2226.0	2226.0	2226.0	2236.0	2236.0	2225.0	2225.0	2225.0	2239.0	2239.0	2253.0	2253.0	2253.0	2296.0	2296.0	2307.0	2307.0	2307.0	2296.0	2296.0	2311.0	2311.0	2311.0	2328.0	2328.0	2296.0	2296.0	2296.0	2317.0	2317.0	2318.0	2318.0	2318.0	2350.0	2350.0	2369.0	2369.0	2369.0	2357.0	2357.0	2345.0	2345.0	2345.0	2359.0	2359.0	2364.0	2364.0	2364.0	2341.0	2341.0	2376.0	2376.0	2376.0	2354.0	2354.0	2360.0	2360.0	2360.0	2384.0	2384.0	2355.0	2355.0	2355.0	2391.0	2391.0	2385.0	