1783.0	1783.0	1736.0	1736.0	1731.0	1731.0	1731.0	1725.0	1725.0	1759.0	1759.0	1759.0	1739.0	1739.0	1774.0	1774.0	1774.0	1724.0	1724.0	1759.0	1759.0	1759.0	1748.0	1748.0	1746.0	1746.0	1746.0	1716.0	1716.0	1738.0	1738.0	1738.0	1758.0	1758.0	1726.0	1726.0	1726.0	1767.0	1767.0	1759.0	1759.0	1759.0	1720.0	1720.0	1715.0	1715.0	1715.0	1735.0	1735.0	1728.0	1728.0	1728.0	1711.0	1711.0	1737.0	1737.0	1737.0	1705.0	1705.0	1725.0	1725.0	1725.0	1704.0	1704.0	1752.0	1752.0	1752.0	1692.0	1692.0	1703.0	1703.0	1703.0	1724.0	1724.0	1709.0	1709.0	1709.0	1693.0	1693.0	1737.0	1737.0	1737.0	1710.0	1710.0	1703.0	1703.0	1703.0	1715.0	1715.0	1746.0	1746.0	1746.0	1757.0	1757.0	1733.0	1733.0	1733.0	1714.0	1714.0	1745.0	1745.0	1745.0	1751.0	1751.0	1774.0	1774.0	1774.0	1748.0	1748.0	1775.0	1775.0	1775.0	1832.0	1832.0	1847.0	1847.0	1847.0	1837.0	1837.0	1861.0	1861.0	1861.0	1861.0	1861.0	1877.0	1877.0	1877.0	1891.0	1891.0	1934.0	1934.0	1934.0	1937.0	1937.0	1956.0	1956.0	1956.0	2016.0	2016.0	2019.0	2019.0	2019.0	2036.0	2036.0	2069.0	2069.0	2069.0	2075.0	2075.0	2122.0	2122.0	2122.0	2159.0	2159.0	2147.0	2147.0	2147.0	2175.0	2175.0	2196.0	2196.0	2196.0	2209.0	2209.0	2249.0	2249.0	2249.0	2279.0	2279.0	2264.0	2264.0	2264.0	2309.0	2309.0	2282.0	2282.0	2282.0	2313.0	2313.0	2337.0	2337.0	2337.0	2328.0	2328.0	2327.0	2327.0	2345.0	2345.0	2345.0	2383.0	2383.0	2362.0	2362.0	2362.0	2372.0	2372.0	2382.0	2382.0	2382.0	2381.0	2381.0	2400.0	2400.0	2400.0	2399.0	2399.0	2439.0	2439.0	2439.0	2418.0	2418.0	2432.0	2432.0	2432.0	2417.0	2417.0	2425.0	2425.0	2425.0	2411.0	2411.0	2415.0	2415.0	2415.0	2423.0	2423.0	2426.0	2426.0	2426.0	2417.0	2417.0	2439.0	2439.0	2439.0	2415.0	2415.0	2432.0	2432.0	2432.0	2437.0	2437.0	2435.0	2435.0	2435.0	2413.0	2413.0	2411.0	2411.0	2411.0	2449.0	2449.0	2415.0	2415.0	2415.0	2395.0	2395.0	2409.0	2409.0	2409.0	2434.0	2434.0	2408.0	2408.0	2408.0	2426.0	2426.0	2404.0	2404.0	2404.0	2418.0	2418.0	2395.0	2395.0	2395.0	2416.0	2416.0	2390.0	2390.0	2390.0	2406.0	2406.0	2373.0	2373.0	2373.0	2412.0	2412.0	2381.0	2381.0	2381.0	2391.0	2391.0	2372.0	2372.0	2372.0	2398.0	2398.0	2374.0	2374.0	2374.0	2357.0	2357.0	2361.0	2361.0	2361.0	2384.0	2384.0	2376.0	2376.0	2376.0	2378.0	2378.0	2344.0	2344.0	2344.0	2367.0	2367.0	2332.0	2332.0	2332.0	2357.0	2357.0	2371.0	2371.0	2371.0	2323.0	2323.0	2301.0	2301.0	2301.0	2320.0	2320.0	2304.0	2304.0	2304.0	2319.0	2319.0	2323.0	2323.0	2323.0	2291.0	2291.0	2292.0	2292.0	2292.0	2273.0	2273.0	2274.0	2274.0	2274.0	2263.0	2263.0	2254.0	2254.0	2254.0	2257.0	2257.0	2262.0	2262.0	2262.0	2219.0	2219.0	2249.0	2249.0	2249.0	2226.0	2226.0	2237.0	2237.0	2237.0	2200.0	2200.0	2203.0	2203.0	2203.0	2211.0	2211.0	2183.0	2183.0	2183.0	2197.0	2197.0	2172.0	2172.0	2172.0	2152.0	2152.0	2150.0	2150.0	2121.0	2121.0	2121.0	2134.0	2134.0	2126.0	2126.0	2126.0	2140.0	2140.0	2114.0	2114.0	2114.0	2136.0	2136.0	2120.0	2120.0	2120.0	2104.0	2104.0	2106.0	2106.0	2106.0	2091.0	2091.0	2097.0	2097.0	2097.0	2117.0	2117.0	2110.0	2110.0	2110.0	2096.0	2096.0	2077.0	2077.0	2077.0	2102.0	2102.0	2104.0	2104.0	2104.0	2119.0	2119.0	2119.0	2119.0	2119.0	2066.0	2066.0	2075.0	2075.0	2075.0	2072.0	2072.0	2070.0	2070.0	2070.0	2086.0	2086.0	2078.0	2078.0	2078.0	2079.0	2079.0	2074.0	2074.0	2074.0	2070.0	2070.0	2104.0	2104.0	2104.0	2058.0	2058.0	2087.0	2087.0	2087.0	2076.0	2076.0	2054.0	2054.0	2054.0	2057.0	2057.0	2072.0	2072.0	2072.0	2053.0	2053.0	2048.0	2048.0	2048.0	2090.0	2090.0	2041.0	2041.0	2041.0	2085.0	2085.0	2046.0	2046.0	2046.0	2061.0	2061.0	2060.0	2060.0	2060.0	2031.0	2031.0	2044.0	2044.0	2044.0	2062.0	2062.0	2045.0	2045.0	2045.0	2045.0	2045.0	2060.0	2060.0	2060.0	2031.0	2031.0	2021.0	2021.0	2021.0	2029.0	2029.0	2035.0	2035.0	2035.0	2037.0	2037.0	2004.0	2004.0	2004.0	2006.0	2006.0	2018.0	2018.0	2018.0	1995.0	1995.0	2001.0	2001.0	2001.0	1978.0	1978.0	1997.0	1997.0	1997.0	1971.0	1971.0	2012.0	2012.0	2012.0	1985.0	1985.0	1984.0	1984.0	1984.0	1964.0	1964.0	1957.0	1957.0	1957.0	1967.0	1967.0	1991.0	1991.0	1991.0	1975.0	1975.0	1967.0	1967.0	1967.0	1936.0	1936.0	1960.0	1960.0	1960.0	1957.0	1957.0	1912.0	1912.0	1912.0	1950.0	1950.0	1940.0	1940.0	1940.0	1950.0	1950.0	1947.0	1947.0	1947.0	1914.0	1914.0	1946.0	1946.0	1946.0	1910.0	1910.0	1922.0	1922.0	1894.0	1894.0	1894.0	1874.0	1874.0	1875.0	1875.0	1875.0	1869.0	1869.0	1869.0	1869.0	1869.0	1896.0	1896.0	1877.0	1877.0	1877.0	1885.0	1885.0	1861.0	1861.0	1861.0	1848.0	1848.0	1857.0	1857.0	1857.0	1863.0	1863.0	1868.0	1868.0	1868.0	1846.0	1846.0	1847.0	1847.0	1847.0	1865.0	1865.0	1877.0	1877.0	1877.0	1861.0	1861.0	1870.0	1870.0	1870.0	1851.0	1851.0	1866.0	1866.0	1866.0	1846.0	1846.0	1817.0	1817.0	1817.0	1837.0	1837.0	1818.0	1818.0	1818.0	1839.0	1839.0	1849.0	1849.0	1849.0	1809.0	1809.0	1840.0	1840.0	1840.0	1802.0	1802.0	1836.0	1836.0	1836.0	1801.0	1801.0	1786.0	1786.0	1786.0	1814.0	1814.0	1822.0	1822.0	1822.0	1807.0	1807.0	1793.0	1793.0	1793.0	1789.0	1789.0	1807.0	1807.0	1807.0	1808.0	1808.0	1775.0	1775.0	1775.0	1810.0	1810.0	1796.0	1796.0	1796.0	1819.0	1819.0	1797.0	1797.0	1797.0	1771.0	1771.0	1771.0	1771.0	1771.0	1790.0	1790.0	1786.0	1786.0	1786.0	1774.0	1774.0	1772.0	1772.0	1772.0	1763.0	1763.0	1798.0	1798.0	1798.0	1811.0	1811.0	1799.0	1799.0	1799.0	1771.0	1771.0	1767.0	1767.0	1767.0	1789.0	1789.0	1746.0	1746.0	1746.0	1796.0	1796.0	1760.0	1760.0	1760.0	1757.0	1757.0	1775.0	1775.0	1775.0	1795.0	1795.0	1755.0	1755.0	1755.0	1761.0	1761.0	1759.0	1759.0	1759.0	1768.0	1768.0	1764.0	1764.0	1764.0	1758.0	1758.0	1748.0	1748.0	1748.0	1735.0	1735.0	1742.0	1742.0	1742.0	1745.0	1745.0	1763.0	1763.0	1763.0	1768.0	1768.0	1751.0	1751.0	1751.0	1744.0	1744.0	1750.0	1750.0	1750.0	1739.0	1739.0	1772.0	1772.0	1778.0	1778.0	1778.0	1726.0	1726.0	1775.0	1775.0	1775.0	1742.0	1742.0	1738.0	1738.0	1738.0	1756.0	1756.0	1750.0	1750.0	1750.0	1770.0	1770.0	1784.0	1784.0	1784.0	1753.0	1753.0	1728.0	1728.0	1728.0	1758.0	1758.0	1730.0	1730.0	1730.0	1734.0	1734.0	1778.0	1778.0	1778.0	1751.0	1751.0	1760.0	1760.0	1760.0	1755.0	1755.0	1745.0	1745.0	1745.0	1760.0	1760.0	1759.0	1759.0	1759.0	1767.0	1767.0	1763.0	1763.0	1763.0	1748.0	1748.0	1745.0	1745.0	1745.0	1737.0	1737.0	1768.0	1768.0	1768.0	1790.0	1790.0	1769.0	1769.0	1769.0	1773.0	1773.0	1778.0	1778.0	1778.0	1755.0	1755.0	1783.0	1783.0	1783.0	1730.0	1730.0	1745.0	1745.0	1745.0	1750.0	1750.0	1736.0	1736.0	1736.0	1766.0	1766.0	1760.0	1760.0	1760.0	1748.0	1748.0	1744.0	1744.0	1744.0	1738.0	1738.0	1714.0	1714.0	1714.0	1729.0	1729.0	1720.0	1720.0	1720.0	1768.0	1768.0	1749.0	1749.0	1749.0	1730.0	1730.0	1758.0	1758.0	1758.0	1706.0	1706.0	1756.0	1756.0	1756.0	1711.0	1711.0	1736.0	1736.0	1736.0	1716.0	1716.0	1755.0	1755.0	1755.0	1737.0	1737.0	1748.0	1748.0	1748.0	1740.0	1740.0	1755.0	1755.0	1755.0	1711.0	1711.0	1736.0	1736.0	1736.0	1702.0	1702.0	1741.0	1741.0	1741.0	1739.0	1739.0	1738.0	1738.0	1738.0	1696.0	1696.0	1725.0	1725.0	1725.0	1689.0	1689.0	1717.0	1717.0	1717.0	1736.0	1736.0	1695.0	1695.0	1695.0	1713.0	1713.0	1715.0	1715.0	1715.0	1718.0	1718.0	1725.0	1725.0	1725.0	1708.0	1708.0	1712.0	1712.0	1712.0	1706.0	1706.0	1714.0	1714.0	1714.0	1713.0	1713.0	1708.0	1708.0	1708.0	1761.0	1761.0	1776.0	1776.0	1778.0	1778.0	1778.0	1757.0	1757.0	1790.0	1790.0	1790.0	1788.0	1788.0	1803.0	1803.0	1803.0	1842.0	1842.0	1824.0	1824.0	1824.0	1872.0	1872.0	1887.0	1887.0	1887.0	1915.0	1915.0	1969.0	1969.0	1969.0	1938.0	1938.0	1972.0	1972.0	1972.0	1971.0	1971.0	2019.0	2019.0	2019.0	2067.0	2067.0	2072.0	2072.0	2072.0	2114.0	2114.0	2138.0	2138.0	2138.0	2122.0	2122.0	2150.0	2150.0	2150.0	2209.0	2209.0	2225.0	2225.0	2225.0	2238.0	2238.0	2251.0	2251.0	2251.0	2255.0	2255.0	2284.0	2284.0	2284.0	2323.0	2323.0	2311.0	2311.0	2311.0	2359.0	2359.0	2329.0	2329.0	2329.0	2355.0	2355.0	2354.0	2354.0	2354.0	2409.0	2409.0	2377.0	2377.0	2377.0	2426.0	2426.0	2423.0	2423.0	2423.0	2442.0	2442.0	2439.0	2439.0	2439.0	2425.0	2425.0	2446.0	2446.0	2446.0	2462.0	2462.0	2471.0	2471.0	2471.0	2452.0	2452.0	2437.0	2437.0	2437.0	2445.0	2445.0	2483.0	2483.0	2483.0	2458.0	2458.0	2464.0	2464.0	2464.0	2486.0	2486.0	2474.0	2474.0	2474.0	2460.0	2460.0	2447.0	2447.0	2447.0	2476.0	2476.0	2450.0	2450.0	2450.0	2476.0	2476.0	2443.0	2443.0	2443.0	2475.0	2475.0	2457.0	2457.0	2457.0	2448.0	2448.0	2426.0	2426.0	2426.0	2463.0	2463.0	2456.0	2456.0	2456.0	2469.0	2469.0	2442.0	2442.0	2442.0	2452.0	2452.0	2453.0	2453.0	2453.0	2432.0	2432.0	2430.0	2430.0	2430.0	2403.0	2403.0	2421.0	2421.0	2421.0	2428.0	2428.0	2422.0	2422.0	2422.0	2427.0	2427.0	2406.0	2406.0	2406.0	2408.0	2408.0	2429.0	2429.0	2429.0	2383.0	2383.0	2400.0	2400.0	2400.0	2412.0	2412.0	2363.0	2363.0	2407.0	2407.0	2407.0	2371.0	2371.0	2375.0	2375.0	2375.0	2359.0	2359.0	2382.0	2382.0	2382.0	2382.0	2382.0	2361.0	2361.0	2361.0	2357.0	2357.0	2363.0	2363.0	2363.0	2376.0	2376.0	2359.0	2359.0	2359.0	2350.0	2350.0	2337.0	2337.0	2337.0	2296.0	2296.0	2314.0	2314.0	2314.0	2299.0	2299.0	2323.0	2323.0	2323.0	2282.0	2282.0	2288.0	2288.0	2288.0	2264.0	2264.0	2277.0	2277.0	2277.0	2268.0	2268.0	2259.0	2259.0	2259.0	2261.0	2261.0	2257.0	2257.0	2257.0	2238.0	2238.0	2221.0	2221.0	2221.0	2197.0	2197.0	2220.0	2220.0	2220.0	2199.0	2199.0	2201.0	2201.0	2201.0	2220.0	2220.0	2193.0	2193.0	2193.0	2205.0	2205.0	2204.0	2204.0	2204.0	2160.0	2160.0	2199.0	2199.0	2199.0	2199.0	2199.0	2145.0	2145.0	2145.0	2180.0	2180.0	2153.0	2153.0	2153.0	2172.0	2172.0	2171.0	2171.0	2171.0	2128.0	2128.0	2151.0	2151.0	2151.0	2138.0	2138.0	2160.0	2160.0	2160.0	2113.0	2113.0	2141.0	2141.0	2141.0	2158.0	2158.0	2142.0	2142.0	2142.0	2156.0	2156.0	2136.0	2136.0	2136.0	2120.0	2120.0	2112.0	2112.0	2112.0	2112.0	2112.0	2122.0	2122.0	2122.0	2135.0	2135.0	2125.0	2125.0	2125.0	2144.0	2144.0	2136.0	2136.0	2136.0	2126.0	2126.0	2116.0	2116.0	2116.0	2119.0	2119.0	2119.0	2119.0	2119.0	2144.0	2144.0	2127.0	2127.0	2127.0	2097.0	2097.0	2101.0	2101.0	2101.0	2082.0	2082.0	2142.0	2142.0	2142.0	2115.0	2115.0	2103.0	2103.0	2103.0	2091.0	2091.0	2124.0	2124.0	2124.0	2105.0	2105.0	2123.0	2123.0	2123.0	2086.0	2086.0	2111.0	2111.0	2111.0	2063.0	2063.0	2104.0	2104.0	2108.0	2108.0	2108.0	2078.0	2078.0	2059.0	2059.0	2059.0	2075.0	2075.0	2065.0	2065.0	2065.0	2071.0	2071.0	2056.0	2056.0	2056.0	2044.0	2044.0	2043.0	2043.0	2043.0	2041.0	2041.0	2069.0	2069.0	2069.0	2071.0	2071.0	2027.0	2027.0	2027.0	2027.0	2027.0	2008.0	2008.0	2008.0	2043.0	2043.0	2051.0	2051.0	2051.0	2016.0	2016.0	2016.0	2016.0	2016.0	2019.0	2019.0	2005.0	2005.0	2005.0	1990.0	1990.0	2002.0	2002.0	2002.0	2016.0	2016.0	1968.0	1968.0	1968.0	1977.0	1977.0	1987.0	1987.0	1987.0	1998.0	1998.0	1984.0	1984.0	1984.0	1984.0	1984.0	1970.0	1970.0	1970.0	1984.0	1984.0	1928.0	1928.0	1928.0	1935.0	1935.0	1935.0	1935.0	1935.0	1956.0	1956.0	1959.0	1959.0	1959.0	1917.0	1917.0	1945.0	1945.0	1945.0	1950.0	1950.0	1946.0	1946.0	1946.0	1926.0	1926.0	1931.0	1931.0	1931.0	1943.0	1943.0	1918.0	1918.0	1918.0	1930.0	1930.0	1926.0	1926.0	1926.0	1886.0	1886.0	1901.0	1901.0	1901.0	1886.0	1886.0	1890.0	1890.0	1890.0	1913.0	1913.0	1870.0	1870.0	1870.0	1908.0	1908.0	1879.0	1879.0	1879.0	1867.0	1867.0	1859.0	1859.0	1859.0	1899.0	1899.0	1880.0	1880.0	1880.0	1885.0	1885.0	1865.0	1865.0	1865.0	1866.0	1866.0	1854.0	1854.0	1854.0	1855.0	1855.0	1878.0	1878.0	1878.0	1835.0	1835.0	1831.0	1831.0	1831.0	1870.0	1870.0	1856.0	1856.0	1856.0	1834.0	1834.0	1848.0	1848.0	1848.0	1863.0	1863.0	1867.0	1867.0	1867.0	1818.0	1818.0	1836.0	1836.0	1836.0	1843.0	1843.0	1835.0	1835.0	1835.0	1861.0	1861.0	1821.0	1821.0	1821.0	1810.0	1810.0	1810.0	1810.0	1810.0	1846.0	1846.0	1836.0	1836.0	1839.0	1839.0	1839.0	1803.0	1803.0	1804.0	1804.0	1804.0	1835.0	1835.0	1817.0	1817.0	1817.0	1836.0	1836.0	1801.0	1801.0	1801.0	1804.0	1804.0	1797.0	1797.0	1797.0	1797.0	1797.0	1831.0	1831.0	1831.0	1797.0	1797.0	1799.0	1799.0	1799.0	1819.0	1819.0	1830.0	1830.0	1830.0	1822.0	1822.0	1819.0	1819.0	1819.0	1819.0	1819.0	1829.0	1829.0	1829.0	1847.0	1847.0	1808.0	1808.0	1808.0	1822.0	1822.0	1793.0	1793.0	1793.0	1785.0	1785.0	1788.0	1788.0	1788.0	1807.0	1807.0	1836.0	1836.0	1836.0	1784.0	1784.0	1795.0	1795.0	1795.0	1813.0	1813.0	1809.0	1809.0	1809.0	1829.0	1829.0	1812.0	1812.0	1812.0	1823.0	1823.0	1779.0	1779.0	1779.0	1838.0	1838.0	1811.0	1811.0	1811.0	1809.0	1809.0	1810.0	1810.0	1810.0	1823.0	1823.0	1814.0	1814.0	1814.0	1789.0	1789.0	1816.0	1816.0	1816.0	1800.0	1800.0	1799.0	1799.0	1799.0	1793.0	1793.0	1802.0	1802.0	1802.0	1801.0	1801.0	1787.0	1787.0	1787.0	1785.0	1785.0	1788.0	1788.0	1788.0	1779.0	1779.0	1773.0	1773.0	1773.0	1773.0	1773.0	1797.0	1797.0	1797.0	1785.0	1785.0	1777.0	1777.0	1777.0	1771.0	1771.0	1785.0	1785.0	1785.0	1767.0	1767.0	1761.0	1761.0	1761.0	1796.0	1796.0	1778.0	1778.0	1778.0	1790.0	1790.0	1783.0	1783.0	1783.0	1743.0	1743.0	1743.0	1743.0	1743.0	1743.0	1743.0	1778.0	1778.0	1778.0	1795.0	1795.0	1760.0	1760.0	1760.0	1740.0	1740.0	1774.0	1774.0	1774.0	1756.0	1756.0	1740.0	1740.0	1740.0	1798.0	1798.0	1767.0	1767.0	1767.0	1736.0	1736.0	1764.0	1764.0	1764.0	1774.0	1774.0	1799.0	1799.0	1763.0	1763.0	1763.0	1784.0	1784.0	1812.0	1812.0	1812.0	1790.0	1790.0	1811.0	1811.0	1811.0	1799.0	1799.0	1800.0	1800.0	1800.0	1813.0	1813.0	1867.0	1867.0	1867.0	1856.0	1856.0	1895.0	1895.0	1895.0	1913.0	1913.0	1904.0	1904.0	1904.0	1947.0	1947.0	1959.0	1959.0	1959.0	1997.0	1997.0	2012.0	2012.0	2012.0	2040.0	2040.0	2080.0	2080.0	2080.0	2050.0	2050.0	2077.0	2077.0	2077.0	2099.0	2099.0	2155.0	2155.0	2155.0	2144.0	2144.0	2190.0	2190.0	2190.0	2197.0	2197.0	2218.0	2218.0	2218.0	2244.0	2244.0	2243.0	2243.0	2243.0	2279.0	2279.0	2282.0	2282.0	2282.0	2299.0	2299.0	2319.0	2319.0	2319.0	2301.0	2301.0	2322.0	2322.0	2322.0	2327.0	2327.0	2385.0	2385.0	2385.0	2370.0	2370.0	2370.0	2370.0	2370.0	2403.0	2403.0	2384.0	2384.0	2384.0	2379.0	2379.0	2414.0	2414.0	2414.0	2446.0	2446.0	2398.0	2398.0	2398.0	2393.0	2393.0	2426.0	2426.0	2426.0	2416.0	2416.0	2420.0	2420.0	2420.0	2442.0	2442.0	2438.0	2438.0	2438.0	2444.0	2444.0	2436.0	2436.0	2436.0	2456.0	2456.0	2435.0	2435.0	2435.0	2432.0	2432.0	2422.0	2422.0	2422.0	2425.0	2425.0	2438.0	2438.0	2438.0	2447.0	2447.0	2416.0	2416.0	2416.0	2453.0	2453.0	2446.0	2446.0	2446.0	2459.0	2459.0	2442.0	2442.0	2442.0	2443.0	2443.0	2408.0	2408.0	2408.0	2402.0	2402.0	2416.0	2416.0	2416.0	2417.0	2417.0	2422.0	2422.0	2422.0	2446.0	2446.0	2397.0	2397.0	2397.0	2442.0	2442.0	2387.0	2387.0	2387.0	2406.0	2406.0	2397.0	2397.0	2397.0	2383.0	2383.0	2379.0	2379.0	2379.0	2409.0	2409.0	2387.0	2387.0	2401.0	2401.0	2401.0	2363.0	2363.0	2379.0	2379.0	2379.0	2351.0	2351.0	2361.0	2361.0	2361.0	2360.0	2360.0	2364.0	2364.0	2364.0	2339.0	2339.0	2345.0	2345.0	2345.0	2341.0	2341.0	2371.0	2371.0	2371.0	2318.0	2318.0	2347.0	2347.0	2347.0	2339.0	2339.0	2323.0	2323.0	2323.0	2338.0	2338.0	2319.0	2319.0	2319.0	2298.0	2298.0	2298.0	2298.0	2298.0	2283.0	2283.0	2275.0	2275.0	2275.0	2267.0	2267.0	2269.0	2269.0	2269.0	2250.0	2250.0	2260.0	2260.0	2260.0	2226.0	2226.0	2214.0	2214.0	2214.0	2256.0	2256.0	2209.0	2209.0	2209.0	2200.0	2200.0	2204.0	2204.0	2204.0	2217.0	2217.0	2173.0	