2695.0	2695.0	2712.0	2712.0	2740.0	2740.0	2740.0	2699.0	2699.0	2697.0	2697.0	2707.0	2707.0	2707.0	2698.0	2698.0	2685.0	2685.0	2685.0	2687.0	2687.0	2633.0	2633.0	2633.0	2660.0	2660.0	2636.0	2636.0	2636.0	2587.0	2587.0	2556.0	2556.0	2556.0	2604.0	2604.0	2553.0	2553.0	2553.0	2545.0	2545.0	2572.0	2572.0	2572.0	2551.0	2551.0	2538.0	2538.0	2538.0	2499.0	2499.0	2521.0	2521.0	2521.0	2468.0	2468.0	2468.0	2468.0	2468.0	2506.0	2506.0	2445.0	2445.0	2445.0	2433.0	2433.0	2437.0	2437.0	2437.0	2415.0	2415.0	2479.0	2479.0	2479.0	2472.0	2472.0	2468.0	2468.0	2468.0	2386.0	2386.0	2381.0	2381.0	2381.0	2441.0	2441.0	2389.0	2389.0	2389.0	2363.0	2363.0	2412.0	2412.0	2412.0	2348.0	2348.0	2397.0	2397.0	2397.0	2340.0	2340.0	2370.0	2370.0	2370.0	2314.0	2314.0	2350.0	2350.0	2350.0	2362.0	2362.0	2346.0	2346.0	2346.0	2354.0	2354.0	2290.0	2290.0	2290.0	2323.0	2323.0	2287.0	2287.0	2287.0	2295.0	2295.0	2291.0	2291.0	2291.0	2304.0	2304.0	2241.0	2241.0	2241.0	2218.0	2218.0	2279.0	2279.0	2279.0	2254.0	2254.0	2277.0	2277.0	2277.0	2250.0	2250.0	2190.0	2190.0	2190.0	2183.0	2183.0	2254.0	2254.0	2254.0	2177.0	2177.0	2217.0	2217.0	2217.0	2212.0	2212.0	2165.0	2165.0	2165.0	2202.0	2202.0	2138.0	2138.0	2138.0	2138.0	2138.0	2152.0	2152.0	2152.0	2126.0	2126.0	2158.0	2158.0	2158.0	2154.0	2154.0	2135.0	2135.0	2135.0	2163.0	2163.0	2168.0	2168.0	2168.0	2151.0	2151.0	2140.0	2140.0	2140.0	2127.0	2127.0	2152.0	2152.0	2152.0	2130.0	2130.0	2143.0	2143.0	2143.0	2070.0	2070.0	2136.0	2136.0	2136.0	2100.0	2100.0	2129.0	2129.0	2129.0	2052.0	2052.0	2123.0	2123.0	2098.0	2098.0	2098.0	2084.0	2084.0	2065.0	2065.0	2065.0	2054.0	2054.0	2083.0	2083.0	2083.0	2052.0	2052.0	2078.0	2078.0	2078.0	2101.0	2101.0	2032.0	2032.0	2032.0	2016.0	2016.0	2037.0	2037.0	2037.0	2004.0	2004.0	1999.0	1999.0	1999.0	2009.0	2009.0	2001.0	2001.0	2001.0	1992.0	1992.0	2003.0	2003.0	2003.0	2043.0	2043.0	1994.0	1994.0	1994.0	2021.0	2021.0	2034.0	2034.0	2034.0	2028.0	2028.0	1981.0	1981.0	1981.0	1995.0	1995.0	1992.0	1992.0	1992.0	1972.0	1972.0	2040.0	2040.0	2040.0	2004.0	2004.0	2005.0	2005.0	2005.0	1980.0	1980.0	1991.0	1991.0	1991.0	1947.0	1947.0	1953.0	1953.0	1953.0	1969.0	1969.0	2023.0	2023.0	2023.0	1975.0	1975.0	1955.0	1955.0	1955.0	1948.0	1948.0	2016.0	2016.0	2016.0	1931.0	1931.0	2010.0	2010.0	2010.0	1928.0	1928.0	2001.0	2001.0	2001.0	1943.0	1943.0	1966.0	1966.0	1966.0	1984.0	1984.0	1983.0	1983.0	1983.0	1927.0	1927.0	1985.0	1985.0	1985.0	1919.0	1919.0	1921.0	1921.0	1921.0	1967.0	1967.0	1988.0	1988.0	1988.0	1987.0	1987.0	1960.0	1960.0	1960.0	1915.0	1915.0	1911.0	1911.0	1911.0	1980.0	1980.0	1937.0	1937.0	1937.0	1938.0	1938.0	1902.0	1902.0	1902.0	1954.0	1954.0	1948.0	1948.0	1948.0	1890.0	1890.0	1899.0	1899.0	1899.0	1903.0	1903.0	1920.0	1920.0	1920.0	1966.0	1966.0	1959.0	1959.0	1959.0	1892.0	1892.0	1924.0	1924.0	1924.0	1894.0	1894.0	1938.0	1938.0	1938.0	1939.0	1939.0	1965.0	1965.0	1965.0	1975.0	1975.0	1984.0	1984.0	1984.0	1915.0	1915.0	1962.0	1962.0	1962.0	1941.0	1941.0	1965.0	1965.0	1972.0	1972.0	1972.0	2000.0	2000.0	2035.0	2035.0	2035.0	2038.0	2038.0	1995.0	1995.0	1995.0	2056.0	2056.0	2076.0	2076.0	2076.0	2043.0	2043.0	2053.0	2053.0	2053.0	2122.0	2122.0	2081.0	2081.0	2081.0	2161.0	2161.0	2111.0	2111.0	2111.0	2137.0	2137.0	2185.0	2185.0	2185.0	2214.0	2214.0	2250.0	2250.0	2250.0	2222.0	2222.0	2253.0	2253.0	2253.0	2252.0	2252.0	2285.0	2285.0	2285.0	2286.0	2286.0	2288.0	2288.0	2288.0	2297.0	2297.0	2362.0	2362.0	2362.0	2371.0	2371.0	2402.0	2402.0	2402.0	2418.0	2418.0	2425.0	2425.0	2425.0	2377.0	2377.0	2427.0	2427.0	2427.0	2423.0	2423.0	2432.0	2432.0	2432.0	2430.0	2430.0	2491.0	2491.0	2491.0	2442.0	2442.0	2473.0	2473.0	2473.0	2469.0	2469.0	2465.0	2465.0	2465.0	2498.0	2498.0	2529.0	2529.0	2529.0	2486.0	2486.0	2556.0	2556.0	2556.0	2513.0	2513.0	2548.0	2548.0	2548.0	2561.0	2561.0	2528.0	2528.0	2528.0	2556.0	2556.0	2533.0	2533.0	2533.0	2576.0	2576.0	2564.0	2564.0	2564.0	2522.0	2522.0	2577.0	2577.0	2577.0	2567.0	2567.0	2535.0	2535.0	2535.0	2506.0	2506.0	2507.0	2507.0	2507.0	2547.0	2547.0	2563.0	2563.0	2563.0	2514.0	2514.0	2558.0	2558.0	2558.0	2551.0	2551.0	2541.0	2541.0	2541.0	2503.0	2503.0	2485.0	2485.0	2485.0	2508.0	2508.0	2547.0	2547.0	2547.0	2477.0	2477.0	2468.0	2468.0	2468.0	2478.0	2478.0	2490.0	2490.0	2490.0	2526.0	2526.0	2465.0	2465.0	2465.0	2455.0	2455.0	2446.0	2446.0	2446.0	2449.0	2449.0	2497.0	2497.0	2497.0	2463.0	2463.0	2439.0	2439.0	2439.0	2415.0	2415.0	2417.0	2417.0	2441.0	2441.0	2441.0	2418.0	2418.0	2420.0	2420.0	2420.0	2477.0	2477.0	2403.0	2403.0	2403.0	2447.0	2447.0	2420.0	2420.0	2420.0	2422.0	2422.0	2404.0	2404.0	2404.0	2412.0	2412.0	2425.0	2425.0	2425.0	2369.0	2369.0	2367.0	2367.0	2367.0	2359.0	2359.0	2400.0	2400.0	2400.0	2354.0	2354.0	2388.0	2388.0	2388.0	2323.0	2323.0	2323.0	2323.0	2323.0	2348.0	2348.0	2297.0	2297.0	2297.0	2348.0	2348.0	2280.0	2280.0	2280.0	2329.0	2329.0	2269.0	2269.0	2269.0	2294.0	2294.0	2243.0	2243.0	2243.0	2224.0	2224.0	2230.0	2230.0	2230.0	2283.0	2283.0	2237.0	2237.0	2237.0	2248.0	2248.0	2247.0	2247.0	2247.0	2185.0	2185.0	2198.0	2198.0	2198.0	2225.0	2225.0	2149.0	2149.0	2149.0	2212.0	2212.0	2149.0	2149.0	2149.0	2203.0	2203.0	2187.0	2187.0	2187.0	2199.0	2199.0	2115.0	2115.0	2115.0	2109.0	2109.0	2184.0	2184.0	2184.0	2136.0	2136.0	2156.0	2156.0	2156.0	2088.0	2088.0	2153.0	2153.0	2153.0	2119.0	2119.0	2075.0	2075.0	2075.0	2109.0	2109.0	2067.0	2067.0	2067.0	2096.0	2096.0	2134.0	2134.0	2134.0	2072.0	2072.0	2099.0	2099.0	2099.0	2125.0	2125.0	2088.0	2088.0	2088.0	2054.0	2054.0	2120.0	2120.0	2120.0	2050.0	2050.0	2056.0	2056.0	2056.0	2082.0	2082.0	2109.0	2109.0	2109.0	2104.0	2104.0	2094.0	2094.0	2094.0	2069.0	2069.0	2071.0	2071.0	2071.0	2042.0	2042.0	2052.0	2052.0	2052.0	2111.0	2111.0	2059.0	2059.0	2059.0	2118.0	2118.0	2051.0	2051.0	2051.0	2121.0	2121.0	2096.0	2096.0	2096.0	2048.0	2048.0	2118.0	2118.0	2118.0	2087.0	2087.0	2068.0	2068.0	2068.0	2039.0	2039.0	2059.0	2059.0	2066.0	2066.0	2066.0	2082.0	2082.0	2088.0	2088.0	2088.0	2047.0	2047.0	2090.0	2090.0	2090.0	2058.0	2058.0	2039.0	2039.0	2039.0	2122.0	2122.0	2088.0	2088.0	2088.0	2111.0	2111.0	2039.0	2039.0	2039.0	2109.0	2109.0	2097.0	2097.0	2097.0	2048.0	2048.0	2086.0	2086.0	2086.0	2048.0	2048.0	2032.0	2032.0	2032.0	2053.0	2053.0	2088.0	2088.0	2088.0	2035.0	2035.0	2050.0	2050.0	2050.0	2029.0	2029.0	2097.0	2097.0	2097.0	2083.0	2083.0	2025.0	2025.0	2025.0	2063.0	2063.0	2039.0	2039.0	2039.0	2082.0	2082.0	2053.0	2053.0	2053.0	2081.0	2081.0	2034.0	2034.0	2034.0	2071.0	2071.0	2003.0	2003.0	2003.0	2027.0	2027.0	2063.0	2063.0	2063.0	2066.0	2066.0	1991.0	1991.0	1991.0	2060.0	2060.0	2066.0	2066.0	2066.0	1993.0	1993.0	2056.0	2056.0	2056.0	2035.0	2035.0	2047.0	2047.0	2047.0	1999.0	1999.0	2002.0	2002.0	2002.0	2059.0	2059.0	1979.0	1979.0	1979.0	1971.0	1971.0	2039.0	2039.0	2039.0	2027.0	2027.0	2036.0	2036.0	2036.0	2019.0	2019.0	1989.0	1989.0	1989.0	2020.0	2020.0	1951.0	1951.0	1951.0	2011.0	2011.0	1963.0	1963.0	1963.0	1952.0	1952.0	1972.0	1972.0	1972.0	1995.0	1995.0	1949.0	1949.0	1949.0	2006.0	2006.0	1988.0	1988.0	1988.0	2006.0	2006.0	1932.0	1932.0	1932.0	1927.0	1927.0	1930.0	1930.0	1930.0	1919.0	1919.0	1981.0	1981.0	1981.0	1963.0	1963.0	1915.0	1915.0	1915.0	1933.0	1933.0	1931.0	1931.0	1931.0	1911.0	1911.0	1901.0	1901.0	1901.0	1943.0	1943.0	1907.0	1907.0	1907.0	1908.0	1908.0	1885.0	1885.0	1885.0	1948.0	1948.0	1896.0	1896.0	1882.0	1882.0	1882.0	1879.0	1879.0	1883.0	1883.0	1883.0	1927.0	1927.0	1929.0	1929.0	1929.0	1866.0	1866.0	1927.0	1927.0	1927.0	1904.0	1904.0	1928.0	1928.0	1928.0	1858.0	1858.0	1907.0	1907.0	1907.0	1873.0	1873.0	1858.0	1858.0	1858.0	1854.0	1854.0	1847.0	1847.0	1847.0	1917.0	1917.0	1899.0	1899.0	1899.0	1907.0	1907.0	1843.0	1843.0	1843.0	1843.0	1843.0	1890.0	1890.0	1890.0	1883.0	1883.0	1824.0	1824.0	1824.0	1831.0	1831.0	1815.0	1815.0	1815.0	1857.0	1857.0	1829.0	1829.0	1829.0	1828.0	1828.0	1876.0	1876.0	1876.0	1863.0	1863.0	1866.0	1866.0	1866.0	1811.0	1811.0	1826.0	1826.0	1826.0	1828.0	1828.0	1827.0	1827.0	1827.0	1827.0	1827.0	1802.0	1802.0	1802.0	1853.0	1853.0	1853.0	1853.0	1853.0	1791.0	1791.0	1790.0	1790.0	1790.0	1794.0	1794.0	1803.0	1803.0	1803.0	1798.0	1798.0	1812.0	1812.0	1812.0	1788.0	1788.0	1793.0	1793.0	1793.0	1807.0	1807.0	1835.0	1835.0	1835.0	1805.0	1805.0	1794.0	1794.0	1794.0	1809.0	1809.0	1803.0	1803.0	1803.0	1811.0	1811.0	1800.0	1800.0	1800.0	1820.0	1820.0	1825.0	1825.0	1825.0	1856.0	1856.0	1854.0	1854.0	1854.0	1795.0	1795.0	1831.0	1831.0	1831.0	1834.0	1834.0	1793.0	1793.0	1793.0	1794.0	1794.0	1798.0	1798.0	1798.0	1806.0	1806.0	1778.0	1778.0	1778.0	1796.0	1796.0	1847.0	1847.0	1847.0	1804.0	1804.0	1794.0	1794.0	1794.0	1806.0	1806.0	1794.0	1794.0	1794.0	1809.0	1809.0	1784.0	1784.0	1784.0	1839.0	1839.0	1859.0	1859.0	1859.0	1822.0	1822.0	1776.0	1776.0	1776.0	1785.0	1785.0	1807.0	1807.0	1807.0	1848.0	1848.0	1806.0	1806.0	1853.0	1853.0	1853.0	1792.0	1792.0	1781.0	1781.0	1781.0	1829.0	1829.0	1787.0	1787.0	1787.0	1782.0	1782.0	1852.0	1852.0	1852.0	1795.0	1795.0	1873.0	1873.0	1873.0	1789.0	1789.0	1873.0	1873.0	1873.0	1845.0	1845.0	1840.0	1840.0	1840.0	1848.0	1848.0	1786.0	1786.0	1786.0	1869.0	1869.0	1838.0	1838.0	1838.0	1849.0	1849.0	1848.0	1848.0	1848.0	1831.0	1831.0	1810.0	1810.0	1810.0	1799.0	1799.0	1848.0	1848.0	1848.0	1856.0	1856.0	1866.0	1866.0	1866.0	1832.0	1832.0	1798.0	1798.0	1798.0	1867.0	1867.0	1874.0	1874.0	1874.0	1826.0	1826.0	1871.0	1871.0	1871.0	1808.0	1808.0	1846.0	1846.0	1846.0	1827.0	1827.0	1801.0	1801.0	1801.0	1833.0	1833.0	1817.0	1817.0	1817.0	1814.0	1814.0	1812.0	1812.0	1812.0	1856.0	1856.0	1900.0	1900.0	1900.0	1883.0	1883.0	1847.0	1847.0	1847.0	1901.0	1901.0	1865.0	1865.0	1865.0	1865.0	1865.0	1877.0	1877.0	1877.0	1874.0	1874.0	1923.0	1923.0	1923.0	1920.0	1920.0	1970.0	1970.0	1970.0	1968.0	1968.0	1987.0	1987.0	1987.0	1926.0	1926.0	1998.0	1998.0	1998.0	1999.0	1999.0	1968.0	1968.0	1968.0	2053.0	2053.0	2064.0	2064.0	2064.0	2035.0	2035.0	2093.0	2093.0	2093.0	2096.0	2096.0	2074.0	2074.0	2074.0	2107.0	2107.0	2102.0	2102.0	2102.0	2127.0	2127.0	2156.0	2156.0	2156.0	2203.0	2203.0	2233.0	2233.0	2233.0	2237.0	2237.0	2270.0	2270.0	2270.0	2234.0	2234.0	2243.0	2243.0	2243.0	2256.0	2256.0	2338.0	2338.0	2338.0	2327.0	2327.0	2304.0	2304.0	2304.0	2377.0	2377.0	2398.0	2398.0	2398.0	2385.0	2385.0	2416.0	2416.0	2375.0	2375.0	2375.0	2380.0	2380.0	2428.0	2428.0	2428.0	2385.0	2385.0	2459.0	2459.0	2459.0	2412.0	2412.0	2485.0	2485.0	2485.0	2487.0	2487.0	2435.0	2435.0	2435.0	2498.0	2498.0	2435.0	2435.0	2435.0	2517.0	2517.0	2448.0	2448.0	2448.0	2522.0	2522.0	2514.0	2514.0	2514.0	2529.0	2529.0	2522.0	2522.0	2522.0	2457.0	2457.0	2458.0	2458.0	2458.0	2520.0	2520.0	2489.0	2489.0	2489.0	2459.0	2459.0	2504.0	2504.0	2504.0	2453.0	2453.0	2514.0	2514.0	2514.0	2528.0	2528.0	2476.0	2476.0	2476.0	2474.0	2474.0	2524.0	2524.0	2524.0	2464.0	2464.0	2518.0	2518.0	2518.0	2446.0	2446.0	2459.0	2459.0	2459.0	2442.0	2442.0	2508.0	2508.0	2508.0	2463.0	2463.0	2432.0	2432.0	2432.0	2445.0	2445.0	2479.0	2479.0	2479.0	2438.0	2438.0	2445.0	2445.0	2445.0	2435.0	2435.0	2430.0	2430.0	2430.0	2468.0	2468.0	2464.0	2464.0	2464.0	2395.0	2395.0	2390.0	2390.0	2390.0	2397.0	2397.0	2454.0	2454.0	2454.0	2393.0	2393.0	2446.0	2446.0	2446.0	2378.0	2378.0	2387.0	2387.0	2387.0	2416.0	2416.0	2420.0	2420.0	2420.0	2366.0	2366.0	2416.0	2416.0	2416.0	2367.0	2367.0	2334.0	2334.0	2334.0	2353.0	2353.0	2391.0	2391.0	2391.0	2371.0	2371.0	2352.0	2352.0	2352.0	2354.0	2354.0	2367.0	2367.0	2367.0	2283.0	2283.0	2338.0	2338.0	2338.0	2279.0	2279.0	2269.0	2269.0	2269.0	2257.0	2257.0	2312.0	2312.0	2312.0	2252.0	2252.0	2259.0	2259.0	2259.0	2260.0	2260.0	2271.0	2271.0	2271.0	2273.0	2273.0	2255.0	2255.0	2255.0	2190.0	2190.0	2195.0	2195.0	2195.0	2247.0	2247.0	2214.0	2214.0	2186.0	2186.0	2186.0	2162.0	2162.0	2157.0	2157.0	2157.0	2180.0	2180.0	2143.0	2143.0	2143.0	2154.0	2154.0	2192.0	2192.0	2192.0	2124.0	2124.0	2171.0	2171.0	2171.0	2115.0	2115.0	2166.0	2166.0	2166.0	2150.0	2150.0	2110.0	2110.0	2110.0	2127.0	2127.0	2076.0	2076.0	2076.0	2062.0	2062.0	2132.0	2132.0	2132.0	2054.0	2054.0	2054.0	2054.0	2054.0	2108.0	2108.0	2075.0	2075.0	2075.0	2056.0	2056.0	2083.0	2083.0	2083.0	2095.0	2095.0	2031.0	2031.0	2031.0	2056.0	2056.0	2025.0	2025.0	2025.0	2098.0	2098.0	2024.0	2024.0	2024.0	2063.0	2063.0	2086.0	2086.0	2086.0	2076.0	2076.0	2079.0	2079.0	2079.0	2019.0	2019.0	2035.0	2035.0	2035.0	2080.0	2080.0	2084.0	2084.0	2084.0	2025.0	2025.0	2055.0	2055.0	2055.0	2058.0	2058.0	2059.0	2059.0	2059.0	2047.0	2047.0	2078.0	2078.0	2078.0	2087.0	2087.0	2061.0	2061.0	2061.0	2089.0	2089.0	2079.0	2079.0	2079.0	2023.0	2023.0	2087.0	2087.0	2087.0	2013.0	2013.0	2071.0	2071.0	2071.0	2077.0	2077.0	2052.0	2052.0	2052.0	2041.0	2041.0	2083.0	2083.0	2083.0	2083.0	2083.0	2061.0	2061.0	2061.0	2073.0	2073.0	2011.0	2011.0	2011.0	2037.0	2037.0	2056.0	2056.0	2056.0	2002.0	2002.0	2083.0	2083.0	2083.0	2077.0	2077.0	2029.0	2029.0	2029.0	2031.0	2031.0	2043.0	2043.0	2043.0	1995.0	1995.0	2071.0	2071.0	2071.0	2052.0	2052.0	2014.0	2014.0	2014.0	2019.0	2019.0	2014.0	2014.0	2014.0	2059.0	2059.0	2059.0	2059.0	2059.0	2052.0	2052.0	2008.0	2008.0	2008.0	2000.0	2000.0	2000.0	2000.0	2000.0	1982.0	1982.0	2050.0	2050.0	2050.0	1978.0	1978.0	2014.0	2014.0	2027.0	2027.0	2027.0	1976.0	1976.0	1978.0	1978.0	1978.0	1967.0	1967.0	1976.0	1976.0	1976.0	2040.0	2040.0	2012.0	2012.0	2012.0	1990.0	1990.0	2024.0	2024.0	2024.0	2019.0	2019.0	2001.0	2001.0	2001.0	1947.0	1947.0	1954.0	1954.0	1954.0	1980.0	1980.0	1943.0	1943.0	1943.0	2015.0	2015.0	1992.0	1992.0	1992.0	1986.0	1986.0	1941.0	1941.0	1941.0	1998.0	1998.0	1931.0	1931.0	1931.0	1936.0	1936.0	1946.0	1946.0	1946.0	1989.0	1989.0	1918.0	1918.0	1918.0	1920.0	1920.0	1987.0	1987.0	1987.0	1928.0	1928.0	1926.0	1926.0	1926.0	1911.0	1911.0	1955.0	1955.0	1955.0	1927.0	1927.0	1971.0	1971.0	1971.0	1952.0	1952.0	1891.0	1891.0	1891.0	1891.0	1891.0	1903.0	1903.0	1903.0	1891.0	1891.0	1903.0	1903.0	1903.0	1949.0	1949.0	1939.0	1939.0	1939.0	1886.0	1886.0	1877.0	1877.0	1877.0	1912.0	1912.0	1871.0	1871.0	1871.0	1869.0	1869.0	1895.0	1895.0	1895.0	1912.0	1912.0	1900.0	1900.0	1900.0	1927.0	1927.0	1892.0	1892.0	1892.0	1921.0	1921.0	1872.0	1872.0	1872.0	1852.0	1852.0	1848.0	1848.0	1848.0	1837.0	1837.0	1916.0	1916.0	1916.0	1881.0	1881.0	1865.0	1865.0	1865.0	1910.0	1910.0	1879.0	1879.0	1879.0	1828.0	1828.0	1895.0	1895.0	1895.0	1875.0	1875.0	1873.0	1873.0	1873.0	1892.0	1892.0	1872.0	1872.0	1872.0	1888.0	1888.0	1817.0	1817.0	1817.0	1871.0	1871.0	1831.0	1831.0	1831.0	1836.0	1836.0	1843.0	1843.0	1843.0	1886.0	1886.0	1872.0	1872.0	1872.0	1859.0	1859.0	1805.0	1805.0	1805.0	1876.0	1876.0	1800.0	1800.0	1800.0	1839.0	1839.0	1820.0	1820.0	1830.0	1830.0	1830.0	1826.0	1826.0	1788.0	1788.0	1788.0	1867.0	1867.0	1820.0	1820.0	1820.0	1791.0	1791.0	1783.0	1783.0	1783.0	1855.0	1855.0	1781.0	1781.0	1781.0	1785.0	1785.0	1858.0	1858.0	1858.0	1792.0	1792.0	1791.0	1791.0	1791.0	1838.0	1838.0	1845.0	1845.0	1845.0	1836.0	1836.0	1770.0	1770.0	1770.0	1774.0	1774.0	1830.0	1830.0	1830.0	1844.0	