2139.0	2070.0	2070.0	2070.0	2071.0	2071.0	2072.0	2072.0	2072.0	2127.0	2127.0	2049.0	2049.0	2049.0	2093.0	2093.0	2104.0	2104.0	2027.0	2027.0	2027.0	2028.0	2028.0	2035.0	2035.0	2035.0	2086.0	2086.0	2030.0	2030.0	2030.0	2020.0	2020.0	2084.0	2084.0	2084.0	2054.0	2054.0	1996.0	1996.0	1996.0	2070.0	2070.0	2004.0	2004.0	2004.0	1999.0	1999.0	2075.0	2075.0	2075.0	2060.0	2060.0	2066.0	2066.0	2066.0	2039.0	2039.0	2023.0	2023.0	2023.0	1978.0	1978.0	1988.0	1988.0	1988.0	2018.0	2018.0	2035.0	2035.0	2035.0	2037.0	2037.0	1987.0	1987.0	1987.0	1974.0	1974.0	2005.0	2005.0	2005.0	1981.0	1981.0	1980.0	1980.0	1980.0	1981.0	1981.0	1976.0	1976.0	1976.0	1978.0	1978.0	1988.0	1988.0	1988.0	1996.0	1996.0	1973.0	1973.0	1973.0	2046.0	2046.0	1983.0	1983.0	1983.0	2022.0	2022.0	1978.0	1978.0	1978.0	1983.0	1983.0	1992.0	1992.0	1992.0	1987.0	1987.0	2000.0	2000.0	2000.0	2024.0	2024.0	1999.0	1999.0	1999.0	1978.0	1978.0	1979.0	1979.0	1979.0	1981.0	1981.0	1996.0	1996.0	1996.0	1972.0	1972.0	1995.0	1995.0	1995.0	2023.0	2023.0	1964.0	1964.0	1964.0	2004.0	2004.0	2010.0	2010.0	2010.0	1960.0	1960.0	1996.0	1996.0	1996.0	2012.0	2012.0	1999.0	1999.0	1999.0	2008.0	2008.0	2017.0	2017.0	2017.0	1956.0	1956.0	1985.0	1985.0	1985.0	2018.0	2018.0	1956.0	1956.0	1956.0	2025.0	2025.0	1950.0	1950.0	1950.0	1971.0	1971.0	1940.0	1940.0	1940.0	1965.0	1965.0	1956.0	1956.0	1956.0	1957.0	1957.0	1952.0	1952.0	1952.0	2000.0	2000.0	1930.0	1930.0	1930.0	1927.0	1927.0	2001.0	2001.0	2001.0	1922.0	1922.0	1944.0	1944.0	1944.0	1953.0	1953.0	1981.0	1981.0	1981.0	1911.0	1911.0	1955.0	1955.0	1921.0	1921.0	1921.0	1960.0	1960.0	1975.0	1975.0	1975.0	1949.0	1949.0	1938.0	1938.0	1938.0	1913.0	1913.0	1963.0	1963.0	1963.0	1951.0	1951.0	1906.0	1906.0	1906.0	1886.0	1886.0	1922.0	1922.0	1922.0	1887.0	1887.0	1943.0	1943.0	1943.0	1878.0	1878.0	1920.0	1920.0	1920.0	1922.0	1922.0	1958.0	1958.0	1958.0	1930.0	1930.0	1947.0	1947.0	1947.0	1924.0	1924.0	1867.0	1867.0	1867.0	1886.0	1886.0	1871.0	1871.0	1871.0	1876.0	1876.0	1864.0	1864.0	1864.0	1866.0	1866.0	1927.0	1927.0	1927.0	1920.0	1920.0	1854.0	1854.0	1854.0	1852.0	1852.0	1847.0	1847.0	1847.0	1863.0	1863.0	1851.0	1851.0	1851.0	1917.0	1917.0	1907.0	1907.0	1907.0	1895.0	1895.0	1839.0	1839.0	1839.0	1847.0	1847.0	1880.0	1880.0	1880.0	1872.0	1872.0	1822.0	1822.0	1822.0	1883.0	1883.0	1875.0	1875.0	1875.0	1872.0	1872.0	1821.0	1821.0	1821.0	1883.0	1883.0	1805.0	1805.0	1805.0	1860.0	1860.0	1887.0	1887.0	1887.0	1863.0	1863.0	1882.0	1882.0	1882.0	1855.0	1855.0	1864.0	1864.0	1864.0	1870.0	1870.0	1799.0	1799.0	1799.0	1869.0	1869.0	1867.0	1867.0	1867.0	1869.0	1869.0	1798.0	1798.0	1798.0	1867.0	1867.0	1858.0	1858.0	1858.0	1799.0	1799.0	1831.0	1831.0	1831.0	1846.0	1846.0	1791.0	1791.0	1791.0	1851.0	1851.0	1807.0	1807.0	1807.0	1783.0	1783.0	1822.0	1822.0	1822.0	1800.0	1800.0	1804.0	1804.0	1804.0	1811.0	1811.0	1843.0	1843.0	1843.0	1775.0	1775.0	1806.0	1806.0	1806.0	1835.0	1835.0	1817.0	1817.0	1817.0	1799.0	1799.0	1836.0	1836.0	1836.0	1827.0	1827.0	1756.0	1756.0	1756.0	1779.0	1779.0	1797.0	1797.0	1797.0	1797.0	1797.0	1828.0	1828.0	1760.0	1760.0	1760.0	1756.0	1756.0	1766.0	1766.0	1766.0	1820.0	1820.0	1750.0	1750.0	1750.0	1785.0	1785.0	1799.0	1799.0	1799.0	1806.0	1806.0	1824.0	1824.0	1824.0	1801.0	1801.0	1755.0	1755.0	1755.0	1786.0	1786.0	1780.0	1780.0	1780.0	1799.0	1799.0	1764.0	1764.0	1764.0	1746.0	1746.0	1815.0	1815.0	1815.0	1738.0	1738.0	1790.0	1790.0	1790.0	1774.0	1774.0	1772.0	1772.0	1772.0	1791.0	1791.0	1783.0	1783.0	1783.0	1739.0	1739.0	1776.0	1776.0	1776.0	1740.0	1740.0	1795.0	1795.0	1795.0	1808.0	1808.0	1745.0	1745.0	1745.0	1739.0	1739.0	1757.0	1757.0	1757.0	1749.0	1749.0	1793.0	1793.0	1793.0	1725.0	1725.0	1720.0	1720.0	1720.0	1760.0	1760.0	1738.0	1738.0	1738.0	1802.0	1802.0	1771.0	1771.0	1771.0	1756.0	1756.0	1794.0	1794.0	1794.0	1783.0	1783.0	1772.0	1772.0	1772.0	1749.0	1749.0	1731.0	1731.0	1731.0	1758.0	1758.0	1788.0	1788.0	1788.0	1717.0	1717.0	1793.0	1793.0	1793.0	1777.0	1777.0	1734.0	1734.0	1734.0	1717.0	1717.0	1734.0	1734.0	1734.0	1726.0	1726.0	1752.0	1752.0	1752.0	1719.0	1719.0	1751.0	1751.0	1751.0	1792.0	1792.0	1764.0	1764.0	1764.0	1792.0	1792.0	1796.0	1796.0	1796.0	1725.0	1725.0	1747.0	1747.0	1747.0	1789.0	1789.0	1804.0	1804.0	1804.0	1743.0	1743.0	1769.0	1769.0	1769.0	1759.0	1759.0	1838.0	1838.0	1838.0	1812.0	1812.0	1812.0	1812.0	1812.0	1802.0	1802.0	1813.0	1813.0	1813.0	1867.0	1867.0	1820.0	1820.0	1820.0	1872.0	1872.0	1853.0	1853.0	1853.0	1851.0	1851.0	1862.0	1862.0	1871.0	1871.0	1871.0	1907.0	1907.0	1980.0	1980.0	1980.0	1994.0	1994.0	1942.0	1942.0	1942.0	2027.0	2027.0	1982.0	1982.0	1982.0	2050.0	2050.0	2035.0	2035.0	2035.0	2028.0	2028.0	2098.0	2098.0	2098.0	2092.0	2092.0	2078.0	2078.0	2078.0	2168.0	2168.0	2116.0	2116.0	2116.0	2140.0	2140.0	2216.0	2216.0	2216.0	2179.0	2179.0	2174.0	2174.0	2174.0	2246.0	2246.0	2219.0	2219.0	2219.0	2226.0	2226.0	2254.0	2254.0	2254.0	2259.0	2259.0	2338.0	2338.0	2338.0	2348.0	2348.0	2309.0	2309.0	2309.0	2366.0	2366.0	2388.0	2388.0	2388.0	2353.0	2353.0	2332.0	2332.0	2332.0	2424.0	2424.0	2407.0	2407.0	2407.0	2361.0	2361.0	2384.0	2384.0	2384.0	2394.0	2394.0	2447.0	2447.0	2447.0	2416.0	2416.0	2425.0	2425.0	2425.0	2382.0	2382.0	2403.0	2403.0	2403.0	2460.0	2460.0	2457.0	2457.0	2457.0	2403.0	2403.0	2444.0	2444.0	2444.0	2455.0	2455.0	2466.0	2466.0	2466.0	2474.0	2474.0	2458.0	2458.0	2458.0	2425.0	2425.0	2439.0	2439.0	2439.0	2424.0	2424.0	2441.0	2441.0	2441.0	2398.0	2398.0	2467.0	2467.0	2467.0	2447.0	2447.0	2398.0	2398.0	2398.0	2457.0	2457.0	2415.0	2415.0	2415.0	2395.0	2395.0	2409.0	2409.0	2409.0	2391.0	2391.0	2460.0	2460.0	2460.0	2400.0	2400.0	2399.0	2399.0	2399.0	2443.0	2443.0	2448.0	2448.0	2448.0	2407.0	2407.0	2437.0	2437.0	2437.0	2367.0	2367.0	2402.0	2402.0	2402.0	2382.0	2382.0	2365.0	2365.0	2365.0	2409.0	2409.0	2423.0	2423.0	2423.0	2380.0	2380.0	2424.0	2424.0	2424.0	2412.0	2412.0	2366.0	2366.0	2366.0	2388.0	2388.0	2321.0	2321.0	2400.0	2400.0	2400.0	2320.0	2320.0	2370.0	2370.0	2370.0	2366.0	2366.0	2311.0	2311.0	2311.0	2312.0	2312.0	2293.0	2293.0	2293.0	2333.0	2333.0	2276.0	2276.0	2276.0	2283.0	2283.0	2270.0	2270.0	2270.0	2260.0	2260.0	2293.0	2293.0	2293.0	2277.0	2277.0	2234.0	2234.0	2234.0	2292.0	2292.0	2294.0	2294.0	2294.0	2291.0	2291.0	2291.0	2291.0	2291.0	2278.0	2278.0	2274.0	2274.0	2274.0	2181.0	2181.0	2252.0	2252.0	2252.0	2185.0	2185.0	2171.0	2171.0	2171.0	2196.0	2196.0	2154.0	2154.0	2154.0	2200.0	2200.0	2144.0	2144.0	2144.0	2138.0	2138.0	2161.0	2161.0	2161.0	2129.0	2129.0	2127.0	2127.0	2127.0	2115.0	2115.0	2154.0	2154.0	2154.0	2101.0	2101.0	2168.0	2168.0	2168.0	2115.0	2115.0	2104.0	2104.0	2104.0	2143.0	2143.0	2080.0	2080.0	2080.0	2104.0	2104.0	2058.0	2058.0	2058.0	2061.0	2061.0	2079.0	2079.0	2079.0	2092.0	2092.0	2039.0	2039.0	2039.0	2109.0	2109.0	2115.0	2115.0	2115.0	2090.0	2090.0	2060.0	2060.0	2060.0	2027.0	2027.0	2038.0	2038.0	2038.0	2092.0	2092.0	2095.0	2095.0	2095.0	2080.0	2080.0	2041.0	2041.0	2041.0	2082.0	2082.0	2050.0	2050.0	2050.0	2042.0	2042.0	2032.0	2032.0	2032.0	2079.0	2079.0	2003.0	2003.0	2003.0	2031.0	2031.0	2011.0	2011.0	2011.0	2013.0	2013.0	2036.0	2036.0	2036.0	2086.0	2086.0	2031.0	2031.0	2031.0	2070.0	2070.0	2050.0	2050.0	2050.0	2012.0	2012.0	2083.0	2083.0	2083.0	2018.0	2018.0	2095.0	2095.0	2095.0	2044.0	2044.0	2067.0	2067.0	2067.0	2090.0	2090.0	2085.0	2085.0	2085.0	2066.0	2066.0	2099.0	2099.0	2099.0	2061.0	2061.0	2033.0	2033.0	2090.0	2090.0	2090.0	2037.0	2037.0	2031.0	2031.0	2031.0	2063.0	2063.0	2054.0	2054.0	2054.0	2121.0	2121.0	2041.0	2041.0	2041.0	2104.0	2104.0	2042.0	2042.0	2042.0	2126.0	2126.0	2063.0	2063.0	2063.0	2105.0	2105.0	2121.0	2121.0	2121.0	2104.0	2104.0	2124.0	2124.0	2124.0	2050.0	2050.0	2050.0	2050.0	2050.0	2037.0	2037.0	2082.0	2082.0	2082.0	2051.0	2051.0	2071.0	2071.0	2071.0	2115.0	2115.0	2066.0	2066.0	2066.0	2065.0	2065.0	2062.0	2062.0	2062.0	2065.0	2065.0	2107.0	2107.0	2107.0	2054.0	2054.0	2110.0	2110.0	2110.0	2032.0	2032.0	2050.0	2050.0	2050.0	2036.0	2036.0	2032.0	2032.0	2032.0	2066.0	2066.0	2030.0	2030.0	2030.0	2044.0	2044.0	2038.0	2038.0	2038.0	2068.0	2068.0	2050.0	2050.0	2050.0	2036.0	2036.0	2045.0	2045.0	2045.0	2005.0	2005.0	2060.0	2060.0	2060.0	2036.0	2036.0	2024.0	2024.0	2024.0	2079.0	2079.0	2044.0	2044.0	2044.0	2010.0	2010.0	2023.0	2023.0	2023.0	2060.0	2060.0	2014.0	2014.0	2014.0	1995.0	1995.0	1974.0	1974.0	1974.0	1959.0	1959.0	2027.0	2027.0	2027.0	1965.0	1965.0	2005.0	2005.0	2005.0	1975.0	1975.0	2030.0	2030.0	2030.0	1943.0	1943.0	2001.0	2001.0	2001.0	1956.0	1956.0	1983.0	1983.0	1983.0	1964.0	1964.0	1984.0	1984.0	1984.0	1996.0	1996.0	1974.0	1974.0	1974.0	1945.0	1945.0	1907.0	1907.0	1907.0	1980.0	1980.0	1905.0	1905.0	1905.0	1893.0	1893.0	1941.0	1941.0	1941.0	1895.0	1895.0	1911.0	1911.0	1911.0	1947.0	1947.0	1952.0	1952.0	1952.0	1935.0	1935.0	1883.0	1883.0	1883.0	1914.0	1914.0	1874.0	1874.0	1865.0	1865.0	1865.0	1871.0	1871.0	1870.0	1870.0	1870.0	1882.0	1882.0	1898.0	1898.0	1898.0	1887.0	1887.0	1838.0	1838.0	1838.0	1904.0	1904.0	1869.0	1869.0	1869.0	1899.0	1899.0	1855.0	1855.0	1855.0	1818.0	1818.0	1814.0	1814.0	1814.0	1864.0	1864.0	1882.0	1882.0	1882.0	1863.0	1863.0	1857.0	1857.0	1857.0	1859.0	1859.0	1794.0	1794.0	1794.0	1804.0	1804.0	1864.0	1864.0	1864.0	1866.0	1866.0	1782.0	1782.0	1782.0	1850.0	1850.0	1808.0	1808.0	1808.0	1782.0	1782.0	1781.0	1781.0	1781.0	1761.0	1761.0	1777.0	1777.0	1777.0	1802.0	1802.0	1764.0	1764.0	1764.0	1771.0	1771.0	1825.0	1825.0	1825.0	1747.0	1747.0	1774.0	1774.0	1774.0	1792.0	1792.0	1784.0	1784.0	1784.0	1811.0	1811.0	1724.0	1724.0	1724.0	1787.0	1787.0	1803.0	1803.0	1803.0	1800.0	1800.0	1720.0	1720.0	1720.0	1758.0	1758.0	1745.0	1745.0	1745.0	1723.0	1723.0	1784.0	1784.0	1784.0	1724.0	1724.0	1735.0	1735.0	1735.0	1712.0	1712.0	1791.0	1791.0	1791.0	1750.0	1750.0	1742.0	1742.0	1742.0	1730.0	1730.0	1725.0	1725.0	1725.0	1773.0	1773.0	1784.0	1784.0	1784.0	1752.0	1752.0	1718.0	1718.0	1718.0	1771.0	1771.0	1718.0	1718.0	1718.0	1793.0	1793.0	1723.0	1723.0	1723.0	1724.0	1724.0	1790.0	1790.0	1790.0	1722.0	1722.0	1736.0	1736.0	1736.0	1770.0	1770.0	1760.0	1760.0	1760.0	1726.0	1726.0	1749.0	1749.0	1749.0	1731.0	1731.0	1723.0	1723.0	1723.0	1803.0	1803.0	1777.0	1777.0	1777.0	1805.0	1805.0	1757.0	1757.0	1757.0	1766.0	1766.0	1741.0	1741.0	1741.0	1771.0	1771.0	1770.0	1770.0	1770.0	1756.0	1756.0	1730.0	1730.0	1741.0	1741.0	1741.0	1775.0	1775.0	1810.0	1810.0	1810.0	1744.0	1744.0	1789.0	1789.0	1789.0	1745.0	1745.0	1771.0	1771.0	1771.0	1790.0	1790.0	1774.0	1774.0	1774.0	1752.0	1752.0	1788.0	1788.0	1788.0	1815.0	1815.0	1804.0	1804.0	1804.0	1782.0	1782.0	1771.0	1771.0	1771.0	1751.0	1751.0	1802.0	1802.0	1802.0	1818.0	1818.0	1819.0	1819.0	1819.0	1802.0	1802.0	1753.0	1753.0	1753.0	1744.0	1744.0	1823.0	1823.0	1823.0	1798.0	1798.0	1821.0	1821.0	1821.0	1824.0	1824.0	1755.0	1755.0	1755.0	1764.0	1764.0	1835.0	1835.0	1835.0	1768.0	1768.0	1767.0	1767.0	1767.0	1767.0	1767.0	1844.0	1844.0	1844.0	1798.0	1798.0	1775.0	1775.0	1775.0	1856.0	1856.0	1791.0	1791.0	1791.0	1828.0	1828.0	1870.0	1870.0	1870.0	1802.0	1802.0	1838.0	1838.0	1838.0	1852.0	1852.0	1840.0	1840.0	1840.0	1888.0	1888.0	1906.0	1906.0	1906.0	1871.0	1871.0	1898.0	1898.0	1898.0	1958.0	1958.0	1912.0	1912.0	1912.0	1991.0	1991.0	1941.0	1941.0	1941.0	1955.0	1955.0	2008.0	2008.0	2008.0	1999.0	1999.0	2002.0	2002.0	2002.0	2086.0	2086.0	2078.0	2078.0	2078.0	2136.0	2136.0	2107.0	2107.0	2107.0	2167.0	2167.0	2183.0	2183.0	2183.0	2195.0	2195.0	2145.0	2145.0	2145.0	2197.0	2197.0	2182.0	2182.0	2182.0	2228.0	2228.0	2263.0	2263.0	2263.0	2232.0	2232.0	2270.0	2270.0	2270.0	2285.0	2285.0	2282.0	2282.0	2282.0	2364.0	2364.0	2362.0	2362.0	2362.0	2360.0	2360.0	2332.0	2332.0	2332.0	2400.0	2400.0	2398.0	2398.0	2398.0	2362.0	2362.0	2415.0	2415.0	2415.0	2454.0	2454.0	2391.0	2391.0	2454.0	2454.0	2454.0	2442.0	2442.0	2450.0	2450.0	2450.0	2463.0	2463.0	2481.0	2481.0	2481.0	2433.0	2433.0	2435.0	2435.0	2435.0	2434.0	2434.0	2490.0	2490.0	2490.0	2455.0	2455.0	2510.0	2510.0	2510.0	2505.0	2505.0	2461.0	2461.0	2461.0	2512.0	2512.0	2449.0	2449.0	2449.0	2477.0	2477.0	2440.0	2440.0	2440.0	2483.0	2483.0	2456.0	2456.0	2456.0	2449.0	2449.0	2468.0	2468.0	2468.0	2443.0	2443.0	2479.0	2479.0	2479.0	2434.0	2434.0	2475.0	2475.0	2475.0	2496.0	2496.0	2439.0	2439.0	2439.0	2486.0	2486.0	2443.0	2443.0	2443.0	2491.0	2491.0	2421.0	2421.0	2421.0	2451.0	2451.0	2427.0	2427.0	2427.0	2427.0	2427.0	2465.0	2465.0	2465.0	2402.0	2402.0	2443.0	2443.0	2443.0	2450.0	2450.0	2406.0	2406.0	2406.0	2393.0	2393.0	2430.0	2430.0	2430.0	2427.0	2427.0	2444.0	2444.0	2444.0	2368.0	2368.0	2435.0	2435.0	2435.0	2367.0	2367.0	2355.0	2355.0	2355.0	2409.0	2409.0	2346.0	2346.0	2346.0	2357.0	2357.0	2394.0	2394.0	2394.0	2347.0	2347.0	2387.0	2387.0	2387.0	2345.0	2345.0	2310.0	2310.0	2310.0	2330.0	2330.0	2348.0	2348.0	2348.0	2329.0	2329.0	2307.0	2307.0	2307.0	2292.0	2292.0	2332.0	2332.0	2332.0	2276.0	2276.0	2335.0	2335.0	2335.0	2273.0	2273.0	2248.0	2248.0	2248.0	2243.0	2243.0	2232.0	2232.0	2232.0	2260.0	2260.0	2214.0	2214.0	2214.0	2202.0	2202.0	2212.0	2212.0	2212.0	2270.0	2270.0	2234.0	2234.0	2234.0	2238.0	2238.0	2181.0	2181.0	2181.0	2168.0	2168.0	2158.0	2158.0	2158.0	2141.0	2141.0	2125.0	2125.0	2125.0	2129.0	2129.0	2120.0	2120.0	2134.0	2134.0	2134.0	2146.0	2146.0	2112.0	2112.0	2112.0	2116.0	2116.0	2113.0	2113.0	2113.0	2100.0	2100.0	2076.0	2076.0	2076.0	2086.0	2086.0	2133.0	2133.0	2133.0	2050.0	2050.0	2125.0	2125.0	2125.0	2052.0	2052.0	2105.0	2105.0	2105.0	2098.0	2098.0	2107.0	2107.0	2107.0	2033.0	2033.0	2091.0	2091.0	2091.0	2082.0	2082.0	2082.0	2082.0	2082.0	2023.0	2023.0	2072.0	2072.0	2072.0	2005.0	2005.0	2024.0	2024.0	2024.0	1998.0	1998.0	2071.0	2071.0	2071.0	2065.0	2065.0	2005.0	2005.0	2005.0	2015.0	2015.0	1984.0	1984.0	1984.0	2010.0	2010.0	2018.0	2018.0	2018.0	2027.0	2027.0	1971.0	1971.0	1971.0	2024.0	2024.0	1973.0	1973.0	1973.0	2002.0	2002.0	1965.0	1965.0	1965.0	2025.0	2025.0	2033.0	2033.0	2033.0	1973.0	1973.0	1961.0	1961.0	1961.0	2000.0	2000.0	1991.0	1991.0	1991.0	1959.0	1959.0	1985.0	1985.0	1985.0	1974.0	1974.0	1968.0	1968.0	1968.0	1966.0	1966.0	1960.0	1960.0	1960.0	2007.0	2007.0	1959.0	1959.0	1959.0	2024.0	2024.0	1964.0	1964.0	1964.0	1984.0	1984.0	1979.0	1979.0	1979.0	2009.0	2009.0	1967.0	1967.0	1967.0	1953.0	1953.0	2029.0	2029.0	2029.0	1988.0	1988.0	2017.0	2017.0	2017.0	1973.0	1973.0	2003.0	2003.0	2003.0	1967.0	1967.0	1949.0	1949.0	1949.0	1995.0	1995.0	2013.0	2013.0	2013.0	1961.0	1961.0	1965.0	1965.0	1965.0	1964.0	1964.0	1937.0	1937.0	1937.0	1951.0	1951.0	2000.0	2000.0	2000.0	2012.0	2012.0	2003.0	2003.0	2003.0	2016.0	2016.0	1955.0	1955.0	1955.0	1981.0	1981.0	1944.0	1944.0	1944.0	1964.0	1964.0	1924.0	1924.0	1924.0	1909.0	1909.0	1928.0	1928.0	1958.0	1958.0	1958.0	1991.0	1991.0	1941.0	1941.0	1941.0	1936.0	1936.0	1984.0	1984.0	1984.0	1946.0	1946.0	1905.0	1905.0	1905.0	1982.0	1982.0	1951.0	1951.0	1951.0	1952.0	1952.0	1939.0	1939.0	1939.0	1955.0	1955.0	1931.0	1931.0	1931.0	1948.0	1948.0	1890.0	1890.0	1890.0	1939.0	1939.0	1949.0	1949.0	