2286.0	2286.0	2297.0	2297.0	2275.0	2275.0	2275.0	2309.0	2309.0	2281.0	2281.0	2281.0	2231.0	2231.0	2239.0	2239.0	2239.0	2244.0	2244.0	2217.0	2217.0	2217.0	2247.0	2247.0	2206.0	2206.0	2206.0	2204.0	2204.0	2243.0	2243.0	2243.0	2195.0	2195.0	2198.0	2198.0	2198.0	2181.0	2181.0	2178.0	2178.0	2178.0	2197.0	2197.0	2226.0	2226.0	2226.0	2211.0	2211.0	2199.0	2199.0	2199.0	2198.0	2198.0	2182.0	2182.0	2182.0	2183.0	2183.0	2147.0	2147.0	2147.0	2199.0	2199.0	2181.0	2181.0	2181.0	2166.0	2166.0	2157.0	2157.0	2157.0	2175.0	2175.0	2132.0	2132.0	2132.0	2154.0	2154.0	2109.0	2109.0	2109.0	2176.0	2176.0	2144.0	2144.0	2144.0	2115.0	2115.0	2114.0	2114.0	2114.0	2115.0	2115.0	2127.0	2127.0	2127.0	2118.0	2118.0	2152.0	2152.0	2152.0	2103.0	2103.0	2142.0	2142.0	2142.0	2099.0	2099.0	2094.0	2094.0	2094.0	2126.0	2126.0	2089.0	2089.0	2089.0	2075.0	2075.0	2113.0	2113.0	2113.0	2084.0	2084.0	2107.0	2107.0	2107.0	2057.0	2057.0	2077.0	2077.0	2077.0	2054.0	2054.0	2099.0	2099.0	2099.0	2082.0	2082.0	2051.0	2051.0	2051.0	2031.0	2031.0	2065.0	2065.0	2065.0	2066.0	2066.0	2032.0	2032.0	2032.0	2023.0	2023.0	2072.0	2072.0	2072.0	2018.0	2018.0	2062.0	2062.0	2062.0	1985.0	1985.0	2011.0	2011.0	2011.0	1990.0	1990.0	1977.0	1977.0	1977.0	1998.0	1998.0	2009.0	2009.0	1978.0	1978.0	1978.0	1998.0	1998.0	1972.0	1972.0	1972.0	1986.0	1986.0	2002.0	2002.0	2002.0	1944.0	1944.0	1949.0	1949.0	1949.0	1994.0	1994.0	1933.0	1933.0	1933.0	1939.0	1939.0	1933.0	1933.0	1933.0	1940.0	1940.0	1961.0	1961.0	1961.0	1930.0	1930.0	1947.0	1947.0	1947.0	1944.0	1944.0	1922.0	1922.0	1922.0	1956.0	1956.0	1937.0	1937.0	1937.0	1904.0	1904.0	1929.0	1929.0	1929.0	1929.0	1929.0	1900.0	1900.0	1900.0	1895.0	1895.0	1892.0	1892.0	1892.0	1865.0	1865.0	1899.0	1899.0	1899.0	1927.0	1927.0	1857.0	1857.0	1857.0	1886.0	1886.0	1877.0	1877.0	1877.0	1853.0	1853.0	1881.0	1881.0	1881.0	1849.0	1849.0	1872.0	1872.0	1872.0	1863.0	1863.0	1848.0	1848.0	1848.0	1849.0	1849.0	1869.0	1869.0	1869.0	1850.0	1850.0	1839.0	1839.0	1839.0	1832.0	1832.0	1827.0	1827.0	1827.0	1806.0	1806.0	1804.0	1804.0	1804.0	1810.0	1810.0	1814.0	1814.0	1814.0	1828.0	1828.0	1791.0	1791.0	1791.0	1806.0	1806.0	1838.0	1838.0	1838.0	1836.0	1836.0	1774.0	1774.0	1774.0	1793.0	1793.0	1815.0	1815.0	1815.0	1811.0	1811.0	1773.0	1773.0	1773.0	1822.0	1822.0	1774.0	1774.0	1774.0	1809.0	1809.0	1774.0	1774.0	1774.0	1798.0	1798.0	1779.0	1779.0	1779.0	1757.0	1757.0	1803.0	1803.0	1803.0	1775.0	1775.0	1777.0	1777.0	1777.0	1795.0	1795.0	1771.0	1771.0	1771.0	1779.0	1779.0	1770.0	1770.0	1770.0	1775.0	1775.0	1742.0	1742.0	1742.0	1771.0	1771.0	1745.0	1745.0	1745.0	1754.0	1754.0	1727.0	1727.0	1727.0	1772.0	1772.0	1774.0	1774.0	1774.0	1775.0	1775.0	1727.0	1727.0	1752.0	1752.0	1752.0	1759.0	1759.0	1766.0	1766.0	1766.0	1722.0	1722.0	1728.0	1728.0	1728.0	1732.0	1732.0	1747.0	1747.0	1747.0	1712.0	1712.0	1742.0	1742.0	1742.0	1733.0	1733.0	1753.0	1753.0	1753.0	1721.0	1721.0	1706.0	1706.0	1706.0	1750.0	1750.0	1753.0	1753.0	1753.0	1748.0	1748.0	1732.0	1732.0	1732.0	1750.0	1750.0	1731.0	1731.0	1731.0	1729.0	1729.0	1725.0	1725.0	1725.0	1683.0	1683.0	1737.0	1737.0	1737.0	1733.0	1733.0	1687.0	1687.0	1687.0	1742.0	1742.0	1708.0	1708.0	1708.0	1705.0	1705.0	1693.0	1693.0	1693.0	1700.0	1700.0	1718.0	1718.0	1718.0	1699.0	1699.0	1683.0	1683.0	1683.0	1726.0	1726.0	1697.0	1697.0	1697.0	1686.0	1686.0	1684.0	1684.0	1684.0	1688.0	1688.0	1652.0	1652.0	1652.0	1674.0	1674.0	1712.0	1712.0	1712.0	1700.0	1700.0	1670.0	1670.0	1670.0	1693.0	1693.0	1653.0	1653.0	1653.0	1689.0	1689.0	1680.0	1680.0	1680.0	1696.0	1696.0	1696.0	1696.0	1696.0	1674.0	1674.0	1639.0	1639.0	1639.0	1657.0	1657.0	1705.0	1705.0	1705.0	1682.0	1682.0	1630.0	1630.0	1630.0	1678.0	1678.0	1647.0	1647.0	1647.0	1692.0	1692.0	1656.0	1656.0	1656.0	1632.0	1632.0	1663.0	1663.0	1663.0	1669.0	1669.0	1696.0	1696.0	1696.0	1698.0	1698.0	1660.0	1660.0	1660.0	1707.0	1707.0	1692.0	1692.0	1692.0	1688.0	1688.0	1672.0	1672.0	1672.0	1687.0	1687.0	1693.0	1693.0	1693.0	1747.0	1747.0	1699.0	1699.0	1699.0	1708.0	1708.0	1722.0	1722.0	1722.0	1738.0	1738.0	1779.0	1779.0	1779.0	1812.0	1812.0	1804.0	1804.0	1804.0	1803.0	1803.0	1819.0	1819.0	1885.0	1885.0	1885.0	1868.0	1868.0	1926.0	1926.0	1926.0	1898.0	1898.0	1936.0	1936.0	1936.0	1947.0	1947.0	2012.0	2012.0	2012.0	1993.0	1993.0	2012.0	2012.0	2012.0	2069.0	2069.0	2041.0	2041.0	2041.0	2080.0	2080.0	2136.0	2136.0	2136.0	2109.0	2109.0	2160.0	2160.0	2160.0	2135.0	2135.0	2215.0	2215.0	2215.0	2224.0	2224.0	2224.0	2224.0	2224.0	2246.0	2246.0	2259.0	2259.0	2259.0	2270.0	2270.0	2262.0	2262.0	2262.0	2311.0	2311.0	2339.0	2339.0	2339.0	2347.0	2347.0	2326.0	2326.0	2326.0	2371.0	2371.0	2339.0	2339.0	2339.0	2407.0	2407.0	2396.0	2396.0	2396.0	2386.0	2386.0	2390.0	2390.0	2390.0	2426.0	2426.0	2420.0	2420.0	2420.0	2446.0	2446.0	2466.0	2466.0	2466.0	2447.0	2447.0	2500.0	2500.0	2500.0	2457.0	2457.0	2477.0	2477.0	2477.0	2466.0	2466.0	2488.0	2488.0	2488.0	2502.0	2502.0	2503.0	2503.0	2503.0	2526.0	2526.0	2504.0	2504.0	2504.0	2564.0	2564.0	2552.0	2552.0	2552.0	2499.0	2499.0	2530.0	2530.0	2530.0	2540.0	2540.0	2570.0	2570.0	2570.0	2535.0	2535.0	2528.0	2528.0	2528.0	2576.0	2576.0	2523.0	2523.0	2523.0	2524.0	2524.0	2577.0	2577.0	2577.0	2545.0	2545.0	2583.0	2583.0	2583.0	2529.0	2529.0	2553.0	2553.0	2553.0	2544.0	2544.0	2587.0	2587.0	2587.0	2567.0	2567.0	2583.0	2583.0	2583.0	2544.0	2544.0	2527.0	2527.0	2527.0	2557.0	2557.0	2526.0	2526.0	2526.0	2551.0	2551.0	2573.0	2573.0	2573.0	2578.0	2578.0	2568.0	2568.0	2568.0	2531.0	2531.0	2512.0	2512.0	2512.0	2520.0	2520.0	2537.0	2537.0	2537.0	2504.0	2504.0	2536.0	2536.0	2536.0	2538.0	2538.0	2475.0	2475.0	2487.0	2487.0	2487.0	2480.0	2480.0	2484.0	2484.0	2484.0	2485.0	2485.0	2480.0	2480.0	2480.0	2445.0	2445.0	2457.0	2457.0	2457.0	2416.0	2416.0	2412.0	2412.0	2412.0	2427.0	2427.0	2411.0	2411.0	2411.0	2364.0	2364.0	2382.0	2382.0	2382.0	2397.0	2397.0	2364.0	2364.0	2364.0	2370.0	2370.0	2330.0	2330.0	2330.0	2324.0	2324.0	2324.0	2324.0	2324.0	2296.0	2296.0	2293.0	2293.0	2293.0	2296.0	2296.0	2307.0	2307.0	2307.0	2261.0	2261.0	2268.0	2268.0	2268.0	2289.0	2289.0	2286.0	2286.0	2286.0	2237.0	2237.0	2225.0	2225.0	2225.0	2236.0	2236.0	2247.0	2247.0	2247.0	2247.0	2247.0	2192.0	2192.0	2192.0	2180.0	2180.0	2198.0	2198.0	2198.0	2182.0	2182.0	2227.0	2227.0	2227.0	2182.0	2182.0	2157.0	2157.0	2157.0	2190.0	2190.0	2196.0	2196.0	2196.0	2143.0	2143.0	2138.0	2138.0	2138.0	2173.0	2173.0	2186.0	2186.0	2186.0	2158.0	2158.0	2166.0	2166.0	2166.0	2176.0	2176.0	2128.0	2128.0	2128.0	2142.0	2142.0	2133.0	2133.0	2133.0	2139.0	2139.0	2155.0	2155.0	2155.0	2108.0	2108.0	2098.0	2098.0	2098.0	2130.0	2130.0	2091.0	2091.0	2091.0	2087.0	2087.0	2107.0	2107.0	2107.0	2136.0	2136.0	2071.0	2071.0	2071.0	2125.0	2125.0	2074.0	2074.0	2074.0	2105.0	2105.0	2072.0	2072.0	2072.0	2059.0	2059.0	2059.0	2059.0	2059.0	2071.0	2071.0	2060.0	2060.0	2060.0	2053.0	2053.0	2073.0	2073.0	2073.0	2086.0	2086.0	2081.0	2081.0	2081.0	2058.0	2058.0	2032.0	2032.0	2032.0	2033.0	2033.0	2059.0	2059.0	2059.0	2032.0	2032.0	2044.0	2044.0	2044.0	2056.0	2056.0	2042.0	2042.0	2027.0	2027.0	2027.0	2017.0	2017.0	1990.0	1990.0	1990.0	2014.0	2014.0	1999.0	1999.0	1999.0	1997.0	1997.0	1996.0	1996.0	1996.0	1998.0	1998.0	1967.0	1967.0	1967.0	1987.0	1987.0	1970.0	1970.0	1970.0	1954.0	1954.0	1947.0	1947.0	1947.0	1939.0	1939.0	1971.0	1971.0	1971.0	1958.0	1958.0	1924.0	1924.0	1924.0	1905.0	1905.0	1925.0	1925.0	1925.0	1948.0	1948.0	1947.0	1947.0	1947.0	1935.0	1935.0	1892.0	1892.0	1892.0	1933.0	1933.0	1870.0	1870.0	1870.0	1884.0	1884.0	1902.0	1902.0	1902.0	1911.0	1911.0	1884.0	1884.0	1884.0	1875.0	1875.0	1882.0	1882.0	1882.0	1859.0	1859.0	1898.0	1898.0	1898.0	1839.0	1839.0	1836.0	1836.0	1836.0	1862.0	1862.0	1848.0	1848.0	1848.0	1820.0	1820.0	1832.0	1832.0	1832.0	1816.0	1816.0	1811.0	1811.0	1811.0	1827.0	1827.0	1815.0	1815.0	1815.0	1816.0	1816.0	1819.0	1819.0	1819.0	1851.0	1851.0	1840.0	1840.0	1840.0	1783.0	1783.0	1850.0	1850.0	1850.0	1803.0	1803.0	1780.0	1780.0	1780.0	1783.0	1783.0	1791.0	1791.0	1791.0	1801.0	1801.0	1765.0	1765.0	1765.0	1810.0	1810.0	1756.0	1756.0	1756.0	1754.0	1754.0	1814.0	1814.0	1814.0	1799.0	1799.0	1771.0	1771.0	1771.0	1790.0	1790.0	1791.0	1791.0	1791.0	1743.0	1743.0	1737.0	1737.0	1737.0	1766.0	1766.0	1744.0	1744.0	1744.0	1733.0	1733.0	1769.0	1769.0	1769.0	1722.0	1722.0	1729.0	1729.0	1729.0	1759.0	1759.0	1731.0	1731.0	1731.0	1724.0	1724.0	1734.0	1734.0	1734.0	1706.0	1706.0	1728.0	1728.0	1728.0	1763.0	1763.0	1740.0	1740.0	1740.0	1718.0	1718.0	1712.0	1712.0	1712.0	1723.0	1723.0	1691.0	1691.0	1721.0	1721.0	1721.0	1702.0	1702.0	1735.0	1735.0	1735.0	1724.0	1724.0	1719.0	1719.0	1719.0	1724.0	1724.0	1679.0	1679.0	1679.0	1692.0	1692.0	1684.0	1684.0	1684.0	1671.0	1671.0	1674.0	1674.0	1674.0	1735.0	1735.0	1693.0	1693.0	1693.0	1678.0	1678.0	1680.0	1680.0	1680.0	1703.0	1703.0	1665.0	1665.0	1665.0	1719.0	1719.0	1683.0	1683.0	1683.0	1688.0	1688.0	1663.0	1663.0	1663.0	1681.0	1681.0	1708.0	1708.0	1708.0	1676.0	1676.0	1656.0	1656.0	1656.0	1665.0	1665.0	1670.0	1670.0	1670.0	1680.0	1680.0	1638.0	1638.0	1638.0	1627.0	1627.0	1697.0	1697.0	1697.0	1672.0	1672.0	1638.0	1638.0	1638.0	1671.0	1671.0	1667.0	1667.0	1667.0	1671.0	1671.0	1628.0	1628.0	1628.0	1662.0	1662.0	1637.0	1637.0	1637.0	1683.0	1683.0	1699.0	1699.0	1699.0	1632.0	1632.0	1673.0	1673.0	1673.0	1637.0	1637.0	1669.0	1669.0	1669.0	1619.0	1619.0	1629.0	1629.0	1629.0	1656.0	1656.0	1627.0	1627.0	1627.0	1615.0	1615.0	1660.0	1660.0	1660.0	1652.0	1652.0	1602.0	1602.0	1602.0	1626.0	1626.0	1627.0	1627.0	1627.0	1619.0	1619.0	1645.0	1645.0	1645.0	1642.0	1642.0	1656.0	1656.0	1656.0	1631.0	1631.0	1614.0	1614.0	1614.0	1606.0	1606.0	1643.0	1643.0	1643.0	1624.0	1624.0	1598.0	1598.0	1598.0	1607.0	1607.0	1591.0	1591.0	1591.0	1601.0	1601.0	1627.0	1627.0	1627.0	1586.0	1586.0	1600.0	1600.0	1600.0	1622.0	1622.0	1651.0	1651.0	1651.0	1616.0	1616.0	1635.0	1635.0	1635.0	1664.0	1664.0	1652.0	1652.0	1652.0	1679.0	1679.0	1679.0	1679.0	1679.0	1688.0	1688.0	1708.0	1708.0	1712.0	1712.0	1712.0	1732.0	1732.0	1769.0	1769.0	1769.0	1736.0	1736.0	1796.0	1796.0	1796.0	1760.0	1760.0	1831.0	1831.0	1831.0	1822.0	1822.0	1864.0	1864.0	1864.0	1878.0	1878.0	1906.0	1906.0	1906.0	1915.0	1915.0	1960.0	1960.0	1960.0	1979.0	1979.0	1968.0	1968.0	1968.0	1973.0	1973.0	1991.0	1991.0	1991.0	2042.0	2042.0	2060.0	2060.0	2060.0	2085.0	2085.0	2128.0	2128.0	2128.0	2106.0	2106.0	2126.0	2126.0	2126.0	2176.0	2176.0	2147.0	2147.0	2147.0	2171.0	2171.0	2220.0	2220.0	2220.0	2199.0	2199.0	2269.0	2269.0	2269.0	2238.0	2238.0	2286.0	2286.0	2286.0	2273.0	2273.0	2287.0	2287.0	2287.0	2325.0	2325.0	2327.0	2327.0	2327.0	2332.0	2332.0	2338.0	2338.0	2338.0	2358.0	2358.0	2397.0	2397.0	2397.0	2384.0	2384.0	2409.0	2409.0	2409.0	2401.0	2401.0	2406.0	2406.0	2406.0	2399.0	2399.0	2415.0	2415.0	2415.0	2461.0	2461.0	2473.0	2473.0	2473.0	2477.0	2477.0	2477.0	2477.0	2477.0	2464.0	2464.0	2468.0	2468.0	2468.0	2454.0	2454.0	2475.0	2475.0	2475.0	2496.0	2496.0	2486.0	2486.0	2486.0	2483.0	2483.0	2493.0	2493.0	2493.0	2477.0	2477.0	2497.0	2497.0	2497.0	2529.0	2529.0	2511.0	2511.0	2511.0	2544.0	2544.0	2546.0	2546.0	2546.0	2517.0	2517.0	2544.0	2544.0	2544.0	2553.0	2553.0	2504.0	2504.0	2504.0	2548.0	2548.0	2563.0	2563.0	2563.0	2507.0	2507.0	2551.0	2551.0	2551.0	2551.0	2551.0	2560.0	2560.0	2560.0	2550.0	2550.0	2501.0	2501.0	2501.0	2516.0	2516.0	2545.0	2545.0	2545.0	2540.0	2540.0	2530.0	2530.0	2530.0	2539.0	2539.0	2540.0	2540.0	2532.0	2532.0	2532.0	2509.0	2509.0	2498.0	2498.0	2498.0	2482.0	2482.0	2476.0	2476.0	2476.0	2485.0	2485.0	2472.0	2472.0	2472.0	2473.0	2473.0	2480.0	2480.0	2480.0	2471.0	2471.0	2430.0	2430.0	2430.0	2433.0	2433.0	2434.0	2434.0	2434.0	2402.0	2402.0	2432.0	2432.0	2432.0	2423.0	2423.0	2399.0	2399.0	2399.0	2398.0	2398.0	2368.0	2368.0	2368.0	2403.0	2403.0	2360.0	2360.0	2360.0	2324.0	2324.0	2370.0	2370.0	2370.0	2360.0	2360.0	2355.0	2355.0	2355.0	2284.0	2284.0	2284.0	2284.0	2284.0	2267.0	2267.0	2265.0	2265.0	2265.0	2257.0	2257.0	2282.0	2282.0	2282.0	2276.0	2276.0	2263.0	2263.0	2263.0	2230.0	2230.0	2227.0	2227.0	2227.0	2228.0	2228.0	2185.0	2185.0	2185.0	2185.0	2185.0	2200.0	2200.0	2200.0	2174.0	2174.0	2183.0	2183.0	2183.0	2219.0	2219.0	2209.0	2209.0	2209.0	2154.0	2154.0	2178.0	2178.0	2178.0	2196.0	2196.0	2170.0	2170.0	2170.0	2151.0	2151.0	2140.0	2140.0	2140.0	2116.0	2116.0	2139.0	2139.0	2139.0	2133.0	2133.0	2135.0	2135.0	2135.0	2158.0	2158.0	2155.0	2155.0	2155.0	2137.0	2137.0	2132.0	2132.0	2132.0	2113.0	2113.0	2133.0	2133.0	2133.0	2134.0	2134.0	2126.0	2126.0	2126.0	2093.0	2093.0	2097.0	2097.0	2097.0	2075.0	2075.0	2069.0	2069.0	2069.0	2099.0	2099.0	2111.0	2111.0	2111.0	2103.0	2103.0	2091.0	2091.0	2091.0	2094.0	2094.0	2062.0	2062.0	2062.0	2075.0	2075.0	2052.0	2052.0	2052.0	2037.0	2037.0	2057.0	2057.0	2057.0	2026.0	2026.0	2029.0	2029.0	2029.0	2065.0	2065.0	2040.0	2040.0	2040.0	2060.0	2060.0	2013.0	2013.0	2013.0	2039.0	2039.0	2014.0	2014.0	2037.0	2037.0	2037.0	2003.0	2003.0	2016.0	2016.0	2016.0	1999.0	1999.0	2002.0	2002.0	2002.0	1984.0	1984.0	1986.0	1986.0	1986.0	1989.0	1989.0	1960.0	1960.0	1960.0	2007.0	2007.0	1964.0	1964.0	1964.0	1941.0	1941.0	1950.0	1950.0	1950.0	1995.0	1995.0	1962.0	1962.0	1962.0	1941.0	1941.0	1977.0	1977.0	1977.0	1921.0	1921.0	1955.0	1955.0	1955.0	1936.0	1936.0	1961.0	1961.0	1961.0	1947.0	1947.0	1919.0	1919.0	1919.0	1940.0	1940.0	1907.0	1907.0	1907.0	1908.0	1908.0	1957.0	1957.0	1957.0	1893.0	1893.0	1905.0	1905.0	1905.0	1889.0	1889.0	1907.0	1907.0	1907.0	1885.0	1885.0	1877.0	1877.0	1877.0	1900.0	1900.0	1898.0	1898.0	1898.0	1857.0	1857.0	1902.0	1902.0	1902.0	1895.0	1895.0	1873.0	1873.0	1873.0	1833.0	1833.0	1868.0	1868.0	1868.0	1834.0	1834.0	1821.0	1821.0	1821.0	1825.0	1825.0	1840.0	1840.0	1840.0	1869.0	1869.0	1819.0	1819.0	1819.0	1807.0	1807.0	1820.0	1820.0	1820.0	1827.0	1827.0	1819.0	1819.0	1819.0	1818.0	1818.0	1831.0	1831.0	1831.0	1833.0	1833.0	1783.0	1783.0	1783.0	1818.0	1818.0	1782.0	1782.0	1782.0	1817.0	1817.0	1792.0	1792.0	1792.0	1810.0	1810.0	1772.0	1772.0	1772.0	1820.0	1820.0	1824.0	1824.0	1824.0	1788.0	1788.0	1794.0	1794.0	1794.0	1797.0	1797.0	1803.0	1803.0	1803.0	1771.0	1771.0	1786.0	1786.0	1786.0	1746.0	1746.0	1745.0	1745.0	1745.0	1768.0	1768.0	1795.0	1795.0	1795.0	1731.0	1731.0	1732.0	1732.0	1732.0	1713.0	1713.0	1744.0	1744.0	1744.0	1763.0	1763.0	1752.0	1752.0	1752.0	1720.0	1720.0	1741.0	1741.0	1763.0	1763.0	1763.0	1755.0	1755.0	1754.0	1754.0	1754.0	1696.0	1696.0	1733.0	1733.0	1733.0	1696.0	1696.0	1703.0	1703.0	1703.0	1702.0	1702.0	1687.0	1687.0	1687.0	1745.0	1745.0	1743.0	1743.0	1743.0	1724.0	1724.0	1716.0	1716.0	1716.0	1681.0	1681.0	1692.0	1692.0	1692.0	1687.0	1687.0	1693.0	1693.0	1693.0	1705.0	1705.0	1679.0	1679.0	1679.0	1674.0	1674.0	1695.0	1695.0	1695.0	1696.0	1696.0	1720.0	1720.0	1720.0	1682.0	1682.0	1715.0	1715.0	1715.0	1715.0	1715.0	1703.0	1703.0	1703.0	1664.0	1664.0	1704.0	1704.0	1704.0	1711.0	1711.0	1691.0	1691.0	1691.0	1687.0	1687.0	1712.0	1712.0	1712.0	1661.0	1661.0	1666.0	1666.0	1666.0	1696.0	1696.0	1693.0	