2412.0	2402.0	2402.0	2402.0	2367.0	2367.0	2389.0	2389.0	2389.0	2340.0	2340.0	2370.0	2370.0	2370.0	2317.0	2317.0	2319.0	2319.0	2319.0	2325.0	2325.0	2295.0	2295.0	2295.0	2310.0	2310.0	2261.0	2261.0	2261.0	2280.0	2280.0	2280.0	2280.0	2280.0	2231.0	2231.0	2266.0	2266.0	2266.0	2217.0	2217.0	2255.0	2255.0	2255.0	2247.0	2247.0	2207.0	2207.0	2207.0	2232.0	2232.0	2217.0	2217.0	2217.0	2182.0	2182.0	2162.0	2162.0	2162.0	2202.0	2202.0	2175.0	2175.0	2175.0	2175.0	2175.0	2138.0	2138.0	2138.0	2147.0	2147.0	2150.0	2150.0	2150.0	2172.0	2172.0	2177.0	2177.0	2177.0	2159.0	2159.0	2164.0	2164.0	2164.0	2143.0	2143.0	2147.0	2147.0	2147.0	2129.0	2129.0	2127.0	2127.0	2127.0	2138.0	2138.0	2158.0	2158.0	2158.0	2110.0	2110.0	2142.0	2142.0	2142.0	2110.0	2110.0	2098.0	2098.0	2098.0	2100.0	2100.0	2124.0	2124.0	2124.0	2088.0	2088.0	2124.0	2124.0	2124.0	2104.0	2104.0	2100.0	2100.0	2100.0	2115.0	2115.0	2068.0	2068.0	2068.0	2096.0	2096.0	2083.0	2083.0	2083.0	2073.0	2073.0	2080.0	2080.0	2080.0	2063.0	2063.0	2086.0	2086.0	2086.0	2069.0	2069.0	2081.0	2081.0	2081.0	2087.0	2087.0	2077.0	2077.0	2077.0	2080.0	2080.0	2047.0	2047.0	2047.0	2052.0	2052.0	2079.0	2079.0	2079.0	2074.0	2074.0	2067.0	2067.0	2067.0	2069.0	2069.0	2035.0	2035.0	2035.0	2019.0	2019.0	2006.0	2006.0	2006.0	2011.0	2011.0	2033.0	2033.0	2033.0	1991.0	1991.0	2045.0	2045.0	2045.0	2023.0	2023.0	1993.0	1993.0	2036.0	2036.0	2036.0	2022.0	2022.0	1994.0	1994.0	1994.0	1996.0	1996.0	1975.0	1975.0	1975.0	2004.0	2004.0	1991.0	1991.0	1991.0	1987.0	1987.0	1982.0	1982.0	1982.0	1999.0	1999.0	1955.0	1955.0	1955.0	2001.0	2001.0	1995.0	1995.0	1995.0	1995.0	1995.0	1978.0	1978.0	1978.0	1951.0	1951.0	1983.0	1983.0	1983.0	1966.0	1966.0	1959.0	1959.0	1959.0	1931.0	1931.0	1957.0	1957.0	1957.0	1987.0	1987.0	1966.0	1966.0	1966.0	1940.0	1940.0	1947.0	1947.0	1947.0	1949.0	1949.0	1938.0	1938.0	1938.0	1964.0	1964.0	1950.0	1950.0	1950.0	1963.0	1963.0	1919.0	1919.0	1919.0	1922.0	1922.0	1907.0	1907.0	1907.0	1912.0	1912.0	1891.0	1891.0	1891.0	1930.0	1930.0	1912.0	1912.0	1912.0	1944.0	1944.0	1939.0	1939.0	1939.0	1912.0	1912.0	1927.0	1927.0	1927.0	1942.0	1942.0	1887.0	1887.0	1887.0	1886.0	1886.0	1919.0	1919.0	1919.0	1930.0	1930.0	1896.0	1896.0	1896.0	1882.0	1882.0	1893.0	1893.0	1893.0	1891.0	1891.0	1886.0	1886.0	1886.0	1915.0	1915.0	1885.0	1885.0	1885.0	1900.0	1900.0	1868.0	1868.0	1868.0	1866.0	1866.0	1886.0	1886.0	1886.0	1905.0	1905.0	1893.0	1893.0	1893.0	1862.0	1862.0	1886.0	1886.0	1886.0	1900.0	1900.0	1897.0	1897.0	1897.0	1869.0	1869.0	1866.0	1866.0	1866.0	1905.0	1905.0	1896.0	1896.0	1896.0	1871.0	1871.0	1893.0	1893.0	1893.0	1885.0	1885.0	1843.0	1843.0	1843.0	1852.0	1852.0	1866.0	1866.0	1866.0	1835.0	1835.0	1857.0	1857.0	1857.0	1864.0	1864.0	1859.0	1859.0	1859.0	1867.0	1867.0	1877.0	1877.0	1877.0	1855.0	1855.0	1839.0	1839.0	1884.0	1884.0	1884.0	1877.0	1877.0	1848.0	1848.0	1848.0	1856.0	1856.0	1883.0	1883.0	1883.0	1858.0	1858.0	1828.0	1828.0	1828.0	1842.0	1842.0	1826.0	1826.0	1826.0	1863.0	1863.0	1826.0	1826.0	1826.0	1831.0	1831.0	1874.0	1874.0	1874.0	1824.0	1824.0	1871.0	1871.0	1871.0	1869.0	1869.0	1871.0	1871.0	1871.0	1871.0	1871.0	1846.0	1846.0	1846.0	1857.0	1857.0	1822.0	1822.0	1822.0	1827.0	1827.0	1864.0	1864.0	1864.0	1859.0	1859.0	1841.0	1841.0	1841.0	1827.0	1827.0	1819.0	1819.0	1819.0	1865.0	1865.0	1828.0	1828.0	1828.0	1877.0	1877.0	1833.0	1833.0	1833.0	1824.0	1824.0	1817.0	1817.0	1817.0	1840.0	1840.0	1857.0	1857.0	1857.0	1878.0	1878.0	1837.0	1837.0	1837.0	1840.0	1840.0	1860.0	1860.0	1860.0	1851.0	1851.0	1853.0	1853.0	1853.0	1814.0	1814.0	1831.0	1831.0	1831.0	1842.0	1842.0	1835.0	1835.0	1835.0	1858.0	1858.0	1840.0	1840.0	1840.0	1847.0	1847.0	1862.0	1862.0	1862.0	1855.0	1855.0	1862.0	1862.0	1862.0	1874.0	1874.0	1861.0	1861.0	1861.0	1832.0	1832.0	1861.0	1861.0	1861.0	1807.0	1807.0	1839.0	1839.0	1839.0	1860.0	1860.0	1811.0	1811.0	1811.0	1815.0	1815.0	1822.0	1822.0	1822.0	1847.0	1847.0	1862.0	1862.0	1862.0	1824.0	1824.0	1824.0	1824.0	1824.0	1818.0	1818.0	1839.0	1839.0	1839.0	1833.0	1833.0	1853.0	1853.0	1853.0	1825.0	1825.0	1855.0	1855.0	1855.0	1822.0	1822.0	1831.0	1831.0	1831.0	1862.0	1862.0	1820.0	1820.0	1820.0	1849.0	1849.0	1822.0	1822.0	1822.0	1799.0	1799.0	1850.0	1850.0	1850.0	1807.0	1807.0	1828.0	1828.0	1854.0	1854.0	1854.0	1817.0	1817.0	1812.0	1812.0	1812.0	1821.0	1821.0	1799.0	1799.0	1799.0	1822.0	1822.0	1798.0	1798.0	1798.0	1810.0	1810.0	1812.0	1812.0	1812.0	1848.0	1848.0	1833.0	1833.0	1833.0	1815.0	1815.0	1795.0	1795.0	1795.0	1799.0	1799.0	1805.0	1805.0	1805.0	1799.0	1799.0	1828.0	1828.0	1828.0	1822.0	1822.0	1822.0	1822.0	1822.0	1841.0	1841.0	1792.0	1792.0	1792.0	1813.0	1813.0	1840.0	1840.0	1840.0	1813.0	1813.0	1827.0	1827.0	1827.0	1843.0	1843.0	1850.0	1850.0	1850.0	1847.0	1847.0	1878.0	1878.0	1878.0	1897.0	1897.0	1900.0	1900.0	1900.0	1930.0	1930.0	1922.0	1922.0	1922.0	1923.0	1923.0	1932.0	1932.0	1932.0	1977.0	1977.0	1999.0	1999.0	1999.0	2011.0	2011.0	2029.0	2029.0	2029.0	2038.0	2038.0	2044.0	2044.0	2044.0	2065.0	2065.0	2107.0	2107.0	2107.0	2126.0	2126.0	2117.0	2117.0	2117.0	2188.0	2188.0	2158.0	2158.0	2158.0	2189.0	2189.0	2232.0	2232.0	2232.0	2234.0	2234.0	2249.0	2249.0	2249.0	2271.0	2271.0	2290.0	2290.0	2290.0	2306.0	2306.0	2320.0	2320.0	2320.0	2322.0	2322.0	2368.0	2368.0	2368.0	2346.0	2346.0	2373.0	2373.0	2373.0	2383.0	2383.0	2395.0	2395.0	2395.0	2404.0	2404.0	2419.0	2419.0	2419.0	2447.0	2447.0	2456.0	2456.0	2456.0	2451.0	2451.0	2445.0	2445.0	2445.0	2483.0	2483.0	2465.0	2465.0	2465.0	2481.0	2481.0	2439.0	2439.0	2439.0	2496.0	2496.0	2464.0	2464.0	2464.0	2478.0	2478.0	2518.0	2518.0	2518.0	2505.0	2505.0	2479.0	2479.0	2479.0	2510.0	2510.0	2529.0	2529.0	2529.0	2504.0	2504.0	2488.0	2488.0	2488.0	2541.0	2541.0	2510.0	2510.0	2515.0	2515.0	2515.0	2543.0	2543.0	2522.0	2522.0	2522.0	2515.0	2515.0	2561.0	2561.0	2561.0	2534.0	2534.0	2506.0	2506.0	2506.0	2549.0	2549.0	2522.0	2522.0	2522.0	2536.0	2536.0	2513.0	2513.0	2513.0	2531.0	2531.0	2549.0	2549.0	2549.0	2538.0	2538.0	2562.0	2562.0	2562.0	2528.0	2528.0	2563.0	2563.0	2563.0	2529.0	2529.0	2549.0	2549.0	2549.0	2550.0	2550.0	2528.0	2528.0	2528.0	2543.0	2543.0	2538.0	2538.0	2538.0	2531.0	2531.0	2549.0	2549.0	2549.0	2529.0	2529.0	2530.0	2530.0	2530.0	2506.0	2506.0	2503.0	2503.0	2503.0	2498.0	2498.0	2516.0	2516.0	2516.0	2523.0	2523.0	2508.0	2508.0	2508.0	2496.0	2496.0	2499.0	2499.0	2499.0	2539.0	2539.0	2501.0	2501.0	2501.0	2496.0	2496.0	2472.0	2472.0	2472.0	2488.0	2488.0	2475.0	2475.0	2475.0	2492.0	2492.0	2471.0	2471.0	2471.0	2475.0	2475.0	2498.0	2498.0	2498.0	2482.0	2482.0	2466.0	2466.0	2466.0	2471.0	2471.0	2438.0	2438.0	2438.0	2445.0	2445.0	2469.0	2469.0	2469.0	2451.0	2451.0	2440.0	2440.0	2440.0	2409.0	2409.0	2445.0	2445.0	2445.0	2412.0	2412.0	2435.0	2435.0	2435.0	2397.0	2397.0	2388.0	2388.0	2388.0	2375.0	2375.0	2352.0	2352.0	2352.0	2384.0	2384.0	2355.0	2355.0	2355.0	2342.0	2342.0	2375.0	2375.0	2375.0	2319.0	2319.0	2331.0	2331.0	2331.0	2308.0	2308.0	2293.0	2293.0	2293.0	2282.0	2282.0	2301.0	2301.0	2301.0	2306.0	2306.0	2302.0	2302.0	2302.0	2273.0	2273.0	2261.0	2261.0	2261.0	2238.0	2238.0	2219.0	2219.0	2219.0	2212.0	2212.0	2196.0	2196.0	2196.0	2201.0	2201.0	2223.0	2223.0	2221.0	2221.0	2221.0	2213.0	2213.0	2210.0	2210.0	2210.0	2197.0	2197.0	2194.0	2194.0	2194.0	2198.0	2198.0	2151.0	2151.0	2151.0	2150.0	2150.0	2150.0	2150.0	2150.0	2155.0	2155.0	2150.0	2150.0	2150.0	2142.0	2142.0	2190.0	2190.0	2190.0	2150.0	2150.0	2171.0	2171.0	2171.0	2162.0	2162.0	2159.0	2159.0	2159.0	2139.0	2139.0	2156.0	2156.0	2156.0	2116.0	2116.0	2127.0	2127.0	2127.0	2168.0	2168.0	2112.0	2112.0	2112.0	2155.0	2155.0	2115.0	2115.0	2115.0	2144.0	2144.0	2140.0	2140.0	2140.0	2099.0	2099.0	2107.0	2107.0	2107.0	2104.0	2104.0	2147.0	2147.0	2147.0	2118.0	2118.0	2124.0	2124.0	2124.0	2089.0	2089.0	2089.0	2089.0	2089.0	2094.0	2094.0	2080.0	2080.0	2080.0	2059.0	2059.0	2080.0	2080.0	2080.0	2091.0	2091.0	2079.0	2079.0	2079.0	2076.0	2076.0	2067.0	2067.0	2067.0	2055.0	2055.0	2036.0	2036.0	2036.0	2070.0	2070.0	2067.0	2067.0	2067.0	2035.0	2035.0	2058.0	2058.0	2058.0	2026.0	2026.0	2023.0	2023.0	2023.0	2048.0	2048.0	2026.0	2026.0	2026.0	2017.0	2017.0	2024.0	2024.0	2024.0	2013.0	2013.0	2040.0	2040.0	2040.0	2023.0	2023.0	2018.0	2018.0	2018.0	2037.0	2037.0	2031.0	2031.0	2031.0	1982.0	1982.0	2027.0	2027.0	2027.0	1986.0	1986.0	1982.0	1982.0	1982.0	1998.0	1998.0	1980.0	1980.0	1980.0	2006.0	2006.0	1971.0	1971.0	1971.0	1974.0	1974.0	2003.0	2003.0	2003.0	1985.0	1985.0	1986.0	1986.0	1986.0	1973.0	1973.0	1956.0	1956.0	1956.0	1983.0	1983.0	1949.0	1949.0	1949.0	1955.0	1955.0	1979.0	1979.0	1979.0	1959.0	1959.0	1960.0	1960.0	1960.0	1983.0	1983.0	1977.0	1977.0	1938.0	1938.0	1938.0	1935.0	1935.0	1962.0	1962.0	1962.0	1968.0	1968.0	1967.0	1967.0	1967.0	1949.0	1949.0	1951.0	1951.0	1951.0	1941.0	1941.0	1916.0	1916.0	1916.0	1911.0	1911.0	1915.0	1915.0	1915.0	1901.0	1901.0	1937.0	1937.0	1937.0	1922.0	1922.0	1930.0	1930.0	1930.0	1948.0	1948.0	1916.0	1916.0	1916.0	1942.0	1942.0	1898.0	1898.0	1898.0	1905.0	1905.0	1898.0	1898.0	1898.0	1937.0	1937.0	1896.0	1896.0	1896.0	1921.0	1921.0	1892.0	1892.0	1892.0	1884.0	1884.0	1882.0	1882.0	1882.0	1920.0	1920.0	1867.0	1867.0	1867.0	1888.0	1888.0	1876.0	1876.0	1876.0	1910.0	1910.0	1875.0	1875.0	1875.0	1902.0	1902.0	1893.0	1893.0	1893.0	1908.0	1908.0	1857.0	1857.0	1857.0	1885.0	1885.0	1896.0	1896.0	1896.0	1862.0	1862.0	1881.0	1881.0	1881.0	1869.0	1869.0	1885.0	1885.0	1885.0	1867.0	1867.0	1842.0	1842.0	1842.0	1895.0	1895.0	1891.0	1891.0	1891.0	1868.0	1868.0	1888.0	1888.0	1888.0	1879.0	1879.0	1843.0	1843.0	1843.0	1874.0	1874.0	1868.0	1868.0	1868.0	1843.0	1843.0	1891.0	1891.0	1891.0	1848.0	1848.0	1866.0	1866.0	1866.0	1846.0	1846.0	1876.0	1876.0	1876.0	1861.0	1861.0	1850.0	1850.0	1850.0	1835.0	1835.0	1879.0	1879.0	1879.0	1871.0	1871.0	1883.0	1883.0	1883.0	1840.0	1840.0	1880.0	1880.0	1880.0	1882.0	1882.0	1865.0	1865.0	1865.0	1851.0	1851.0	1854.0	1854.0	1854.0	1879.0	1879.0	1869.0	1869.0	1869.0	1863.0	1863.0	1845.0	1845.0	1845.0	1837.0	1837.0	1831.0	1831.0	1831.0	1877.0	1877.0	1836.0	1836.0	1836.0	1870.0	1870.0	1863.0	1863.0	1851.0	1851.0	1851.0	1882.0	1882.0	1861.0	1861.0	1861.0	1831.0	1831.0	1881.0	1881.0	1881.0	1867.0	1867.0	1838.0	1838.0	1838.0	1851.0	1851.0	1865.0	1865.0	1865.0	1853.0	1853.0	1861.0	1861.0	1861.0	1853.0	1853.0	1827.0	1827.0	1827.0	1853.0	1853.0	1851.0	1851.0	1851.0	1839.0	1839.0	1864.0	1864.0	1864.0	1851.0	1851.0	1840.0	1840.0	1840.0	1851.0	1851.0	1868.0	1868.0	1868.0	1821.0	1821.0	1829.0	1829.0	1829.0	1847.0	1847.0	1877.0	1877.0	1877.0	1813.0	1813.0	1869.0	1869.0	1869.0	1848.0	1848.0	1837.0	1837.0	1837.0	1816.0	1816.0	1858.0	1858.0	1858.0	1867.0	1867.0	1813.0	1813.0	1813.0	1819.0	1819.0	1829.0	1829.0	1829.0	1848.0	1848.0	1835.0	1835.0	1835.0	1840.0	1840.0	1827.0	1827.0	1827.0	1855.0	1855.0	1845.0	1845.0	1845.0	1866.0	1866.0	1856.0	1856.0	1856.0	1855.0	1855.0	1835.0	1835.0	1835.0	1854.0	1854.0	1817.0	1817.0	1817.0	1854.0	1854.0	1848.0	1848.0	1848.0	1803.0	1803.0	1842.0	1842.0	1842.0	1851.0	1851.0	1859.0	1859.0	1859.0	1830.0	1830.0	1817.0	1817.0	1817.0	1816.0	1816.0	1817.0	1817.0	1817.0	1838.0	1838.0	1811.0	1811.0	1811.0	1827.0	1827.0	1815.0	1815.0	1815.0	1846.0	1846.0	1796.0	1796.0	1796.0	1809.0	1809.0	1830.0	1830.0	1830.0	1841.0	1841.0	1822.0	1822.0	1822.0	1823.0	1823.0	1863.0	1863.0	1863.0	1801.0	1801.0	1809.0	1809.0	1809.0	1833.0	1833.0	1831.0	1831.0	1831.0	1813.0	1813.0	1866.0	1866.0	1866.0	1819.0	1819.0	1835.0	1835.0	1835.0	1863.0	1863.0	1867.0	1867.0	1867.0	1887.0	1887.0	1904.0	1904.0	1909.0	1909.0	1909.0	1903.0	1903.0	1936.0	1936.0	1936.0	1923.0	1923.0	1970.0	1970.0	1970.0	1966.0	1966.0	1953.0	1953.0	1953.0	2010.0	2010.0	2052.0	2052.0	2052.0	2057.0	2057.0	2050.0	2050.0	2050.0	2084.0	2084.0	2076.0	2076.0	2076.0	2137.0	2137.0	2157.0	2157.0	2157.0	2173.0	2173.0	2183.0	2183.0	2183.0	2188.0	2188.0	2188.0	2188.0	2188.0	2222.0	2222.0	2234.0	2234.0	2234.0	2297.0	2297.0	2316.0	2316.0	2316.0	2288.0	2288.0	2295.0	2295.0	2295.0	2335.0	2335.0	2335.0	2335.0	2335.0	2382.0	2382.0	2354.0	2354.0	2354.0	2362.0	2362.0	2408.0	2408.0	2408.0	2422.0	2422.0	2435.0	2435.0	2435.0	2464.0	2464.0	2433.0	2433.0	2433.0	2440.0	2440.0	2466.0	2466.0	2466.0	2473.0	2473.0	2490.0	2490.0	2490.0	2495.0	2495.0	2482.0	2482.0	2482.0	2494.0	2494.0	2478.0	2478.0	2478.0	2499.0	2499.0	2520.0	2520.0	2520.0	2537.0	2537.0	2503.0	2503.0	2503.0	2490.0	2490.0	2529.0	2529.0	2529.0	2532.0	2532.0	2498.0	2498.0	2498.0	2502.0	2502.0	2521.0	2521.0	2521.0	2552.0	2552.0	2522.0	2522.0	2522.0	2526.0	2526.0	2541.0	2541.0	2541.0	2524.0	2524.0	2537.0	2537.0	2537.0	2539.0	2539.0	2534.0	2534.0	2534.0	2526.0	2526.0	2527.0	2527.0	2527.0	2524.0	2524.0	2547.0	2547.0	2547.0	2563.0	2563.0	2543.0	2543.0	2543.0	2534.0	2534.0	2562.0	2562.0	2562.0	2542.0	2542.0	2548.0	2548.0	2548.0	2528.0	2528.0	2558.0	2558.0	2558.0	2535.0	2535.0	2559.0	2559.0	2559.0	2529.0	2529.0	2549.0	2549.0	2549.0	2529.0	2529.0	2515.0	2515.0	2515.0	2558.0	2558.0	2512.0	2512.0	2512.0	2508.0	2508.0	2511.0	2511.0	2526.0	2526.0	2526.0	2535.0	2535.0	2527.0	2527.0	2527.0	2512.0	2512.0	2513.0	2513.0	2513.0	2523.0	2523.0	2541.0	2541.0	2541.0	2533.0	2533.0	2495.0	2495.0	2495.0	2501.0	2501.0	2493.0	2493.0	2493.0	2503.0	2503.0	2489.0	2489.0	2489.0	2512.0	2512.0	2505.0	2505.0	2505.0	2524.0	2524.0	2457.0	2457.0	2457.0	2497.0	2497.0	2489.0	2489.0	2489.0	2472.0	2472.0	2493.0	2493.0	2493.0	2493.0	2493.0	2449.0	2449.0	2449.0	2473.0	2473.0	2442.0	2442.0	2442.0	2428.0	2428.0	2413.0	2413.0	2413.0	2416.0	2416.0	2406.0	2406.0	2406.0	2403.0	2403.0	2425.0	2425.0	2425.0	2365.0	2365.0	2383.0	2383.0	2383.0	2349.0	2349.0	2369.0	2369.0	2369.0	2350.0	2350.0	2355.0	2355.0	2355.0	2332.0	2332.0	2316.0	2316.0	2316.0	2343.0	2343.0	2291.0	2291.0	2291.0	2272.0	2272.0	2307.0	2307.0	2307.0	2252.0	2252.0	2250.0	2250.0	2250.0	2249.0	2249.0	2257.0	2257.0	2257.0	2224.0	2224.0	2232.0	2232.0	2232.0	2218.0	2218.0	2202.0	2202.0	2202.0	2216.0	2216.0	2186.0	2186.0	2186.0	2174.0	2174.0	2212.0	2212.0	2212.0	2181.0	2181.0	2205.0	2205.0	2205.0	2179.0	2179.0	2198.0	2198.0	2198.0	2205.0	2205.0	2140.0	2140.0	2140.0	2180.0	2180.0	2158.0	2158.0	2158.0	2167.0	2167.0	2159.0	2159.0	2159.0	2143.0	2143.0	2152.0	2152.0	2152.0	2171.0	2171.0	2157.0	2157.0	2157.0	2168.0	2168.0	2130.0	2130.0	2130.0	2161.0	2161.0	2155.0	2155.0	2155.0	2113.0	2113.0	2134.0	2134.0	2134.0	2121.0	2121.0	2112.0	2112.0	2112.0	2116.0	2116.0	2110.0	2110.0	2110.0	2104.0	2104.0	2124.0	2124.0	2090.0	2090.0	2090.0	2115.0	2115.0	2103.0	2103.0	2103.0	2085.0	2085.0	2096.0	2096.0	2096.0	2109.0	2109.0	2090.0	2090.0	2090.0	2079.0	2079.0	2106.0	2106.0	2106.0	2087.0	2087.0	2073.0	2073.0	2073.0	2090.0	2090.0	2083.0	2083.0	2083.0	2051.0	2051.0	2050.0	2050.0	2050.0	2057.0	2057.0	2038.0	2038.0	2038.0	2029.0	2029.0	2051.0	2051.0	2051.0	2024.0	2024.0	2040.0	2040.0	2040.0	2039.0	2039.0	2031.0	2031.0	2031.0	2012.0	2012.0	2045.0	2045.0	2045.0	2012.0	2012.0	2035.0	2035.0	2035.0	2044.0	2044.0	2001.0	2001.0	2001.0	2006.0	