1993.0	1993.0	1993.0	1987.0	1987.0	1998.0	1998.0	1998.0	1955.0	1955.0	1988.0	1988.0	1988.0	1978.0	1978.0	1978.0	1978.0	1978.0	1957.0	1957.0	1951.0	1951.0	1951.0	1999.0	1999.0	1992.0	1992.0	1992.0	1955.0	1955.0	1974.0	1974.0	1974.0	1982.0	1982.0	1992.0	1992.0	1992.0	1954.0	1954.0	1954.0	1954.0	1954.0	1960.0	1960.0	1952.0	1952.0	1952.0	1975.0	1975.0	1971.0	1971.0	1971.0	1992.0	1992.0	1972.0	1972.0	1972.0	1932.0	1932.0	1970.0	1970.0	1970.0	1947.0	1947.0	1927.0	1927.0	1927.0	1941.0	1941.0	1926.0	1926.0	1926.0	1932.0	1932.0	1922.0	1922.0	1922.0	1924.0	1924.0	1940.0	1940.0	1940.0	1950.0	1950.0	1960.0	1960.0	1960.0	1931.0	1931.0	1967.0	1967.0	1967.0	1930.0	1930.0	1919.0	1919.0	1919.0	1971.0	1971.0	1916.0	1916.0	1916.0	1940.0	1940.0	1918.0	1918.0	1918.0	1938.0	1938.0	1924.0	1924.0	1924.0	1923.0	1923.0	1955.0	1955.0	1955.0	1934.0	1934.0	1967.0	1967.0	1967.0	1936.0	1936.0	1961.0	1961.0	1961.0	1947.0	1947.0	1942.0	1942.0	1942.0	1935.0	1935.0	1945.0	1945.0	1945.0	1922.0	1922.0	1941.0	1941.0	1941.0	1945.0	1945.0	1931.0	1931.0	1931.0	1947.0	1947.0	1947.0	1947.0	1947.0	1914.0	1914.0	1902.0	1902.0	1902.0	1938.0	1938.0	1902.0	1902.0	1902.0	1912.0	1912.0	1936.0	1936.0	1936.0	1904.0	1904.0	1895.0	1895.0	1895.0	1936.0	1936.0	1948.0	1948.0	1948.0	1930.0	1930.0	1926.0	1926.0	1926.0	1904.0	1904.0	1901.0	1901.0	1901.0	1908.0	1908.0	1948.0	1948.0	1948.0	1948.0	1948.0	1931.0	1931.0	1931.0	1947.0	1947.0	1951.0	1951.0	1949.0	1949.0	1949.0	1896.0	1896.0	1914.0	1914.0	1914.0	1890.0	1890.0	1901.0	1901.0	1901.0	1896.0	1896.0	1902.0	1902.0	1902.0	1908.0	1908.0	1893.0	1893.0	1893.0	1916.0	1916.0	1929.0	1929.0	1929.0	1897.0	1897.0	1911.0	1911.0	1911.0	1917.0	1917.0	1925.0	1925.0	1925.0	1908.0	1908.0	1886.0	1886.0	1886.0	1900.0	1900.0	1891.0	1891.0	1891.0	1925.0	1925.0	1904.0	1904.0	1904.0	1886.0	1886.0	1938.0	1938.0	1938.0	1893.0	1893.0	1928.0	1928.0	1928.0	1890.0	1890.0	1912.0	1912.0	1912.0	1895.0	1895.0	1932.0	1932.0	1932.0	1918.0	1918.0	1929.0	1929.0	1929.0	1926.0	1926.0	1903.0	1903.0	1903.0	1908.0	1908.0	1884.0	1884.0	1884.0	1901.0	1901.0	1904.0	1904.0	1904.0	1888.0	1888.0	1905.0	1905.0	1905.0	1919.0	1919.0	1923.0	1923.0	1923.0	1922.0	1922.0	1895.0	1895.0	1895.0	1912.0	1912.0	1899.0	1899.0	1899.0	1897.0	1897.0	1917.0	1917.0	1917.0	1910.0	1910.0	1890.0	1890.0	1890.0	1902.0	1902.0	1915.0	1915.0	1915.0	1934.0	1934.0	1911.0	1911.0	1911.0	1890.0	1890.0	1895.0	1895.0	1895.0	1885.0	1885.0	1896.0	1896.0	1896.0	1907.0	1907.0	1927.0	1927.0	1927.0	1906.0	1906.0	1883.0	1883.0	1883.0	1912.0	1912.0	1875.0	1875.0	1875.0	1874.0	1874.0	1929.0	1929.0	1929.0	1931.0	1931.0	1926.0	1926.0	1926.0	1896.0	1896.0	1923.0	1923.0	1923.0	1918.0	1918.0	1889.0	1889.0	1889.0	1871.0	1871.0	1885.0	1885.0	1885.0	1894.0	1894.0	1878.0	1878.0	1878.0	1882.0	1882.0	1895.0	1895.0	1895.0	1900.0	1900.0	1921.0	1921.0	1921.0	1896.0	1896.0	1886.0	1886.0	1914.0	1914.0	1914.0	1886.0	1886.0	1901.0	1901.0	1901.0	1903.0	1903.0	1878.0	1878.0	1878.0	1885.0	1885.0	1915.0	1915.0	1915.0	1885.0	1885.0	1879.0	1879.0	1879.0	1926.0	1926.0	1885.0	1885.0	1885.0	1898.0	1898.0	1900.0	1900.0	1900.0	1916.0	1916.0	1920.0	1920.0	1920.0	1950.0	1950.0	1983.0	1983.0	1983.0	1943.0	1943.0	1950.0	1950.0	1950.0	1972.0	1972.0	2003.0	2003.0	2003.0	1989.0	1989.0	2006.0	2006.0	2006.0	2056.0	2056.0	2023.0	2023.0	2023.0	2078.0	2078.0	2059.0	2059.0	2059.0	2104.0	2104.0	2124.0	2124.0	2124.0	2157.0	2157.0	2140.0	2140.0	2140.0	2180.0	2180.0	2178.0	2178.0	2178.0	2175.0	2175.0	2211.0	2211.0	2211.0	2205.0	2205.0	2216.0	2216.0	2216.0	2258.0	2258.0	2283.0	2283.0	2283.0	2268.0	2268.0	2301.0	2301.0	2301.0	2296.0	2296.0	2334.0	2334.0	2334.0	2285.0	2285.0	2327.0	2327.0	2327.0	2353.0	2353.0	2348.0	2348.0	2348.0	2368.0	2368.0	2368.0	2368.0	2368.0	2371.0	2371.0	2385.0	2385.0	2385.0	2357.0	2357.0	2371.0	2371.0	2371.0	2384.0	2384.0	2391.0	2391.0	2391.0	2381.0	2381.0	2388.0	2388.0	2388.0	2386.0	2386.0	2390.0	2390.0	2390.0	2370.0	2370.0	2379.0	2379.0	2379.0	2388.0	2388.0	2399.0	2399.0	2399.0	2421.0	2421.0	2383.0	2383.0	2383.0	2372.0	2372.0	2366.0	2366.0	2366.0	2362.0	2362.0	2396.0	2396.0	2396.0	2360.0	2360.0	2373.0	2373.0	2373.0	2352.0	2352.0	2378.0	2378.0	2378.0	2367.0	2367.0	2358.0	2358.0	2358.0	2368.0	2368.0	2367.0	2367.0	2367.0	2369.0	2369.0	2339.0	2339.0	2339.0	2347.0	2347.0	2326.0	2326.0	2311.0	2311.0	2311.0	2331.0	2331.0	2318.0	2318.0	2318.0	2314.0	2314.0	2324.0	2324.0	2324.0	2315.0	2315.0	2329.0	2329.0	2329.0	2329.0	2329.0	2320.0	2320.0	2320.0	2316.0	2316.0	2318.0	2318.0	2318.0	2317.0	2317.0	2303.0	2303.0	2303.0	2279.0	2279.0	2286.0	2286.0	2286.0	2303.0	2303.0	2292.0	2292.0	2292.0	2274.0	2274.0	2274.0	2274.0	2274.0	2303.0	2303.0	2287.0	2287.0	2287.0	2263.0	2263.0	2253.0	2253.0	2253.0	2288.0	2288.0	2288.0	2288.0	2288.0	2294.0	2294.0	2273.0	2273.0	2273.0	2297.0	2297.0	2270.0	2270.0	2270.0	2291.0	2291.0	2232.0	2232.0	2232.0	2286.0	2286.0	2275.0	2275.0	2275.0	2292.0	2292.0	2240.0	2240.0	2240.0	2258.0	2258.0	2229.0	2229.0	2229.0	2219.0	2219.0	2242.0	2242.0	2242.0	2227.0	2227.0	2232.0	2232.0	2232.0	2255.0	2255.0	2196.0	2196.0	2196.0	2190.0	2190.0	2208.0	2208.0	2208.0	2198.0	2198.0	2224.0	2224.0	2224.0	2199.0	2199.0	2194.0	2194.0	2194.0	2176.0	2176.0	2203.0	2203.0	2203.0	2176.0	2176.0	2168.0	2168.0	2168.0	2182.0	2182.0	2192.0	2192.0	2192.0	2191.0	2191.0	2158.0	2158.0	2158.0	2190.0	2190.0	2162.0	2162.0	2162.0	2149.0	2149.0	2186.0	2186.0	2186.0	2160.0	2160.0	2168.0	2168.0	2168.0	2183.0	2183.0	2152.0	2152.0	2152.0	2132.0	2132.0	2163.0	2163.0	2163.0	2133.0	2133.0	2146.0	2146.0	2146.0	2135.0	2135.0	2140.0	2140.0	2140.0	2145.0	2145.0	2164.0	2164.0	2164.0	2161.0	2161.0	2141.0	2141.0	2141.0	2165.0	2165.0	2175.0	2175.0	2175.0	2132.0	2132.0	2129.0	2129.0	2129.0	2147.0	2147.0	2171.0	2171.0	2171.0	2157.0	2157.0	2152.0	2152.0	2152.0	2152.0	2152.0	2142.0	2142.0	2166.0	2166.0	2166.0	2124.0	2124.0	2159.0	2159.0	2159.0	2162.0	2162.0	2157.0	2157.0	2157.0	2180.0	2180.0	2170.0	2170.0	2170.0	2167.0	2167.0	2165.0	2165.0	2165.0	2125.0	2125.0	2146.0	2146.0	2146.0	2130.0	2130.0	2139.0	2139.0	2139.0	2107.0	2107.0	2123.0	2123.0	2123.0	2139.0	2139.0	2111.0	2111.0	2111.0	2105.0	2105.0	2137.0	2137.0	2137.0	2133.0	2133.0	2149.0	2149.0	2149.0	2142.0	2142.0	2121.0	2121.0	2121.0	2132.0	2132.0	2135.0	2135.0	2135.0	2134.0	2134.0	2110.0	2110.0	2110.0	2106.0	2106.0	2119.0	2119.0	2119.0	2108.0	2108.0	2105.0	2105.0	2105.0	2110.0	2110.0	2098.0	2098.0	2098.0	2120.0	2120.0	2095.0	2095.0	2095.0	2080.0	2080.0	2083.0	2083.0	2083.0	2086.0	2086.0	2096.0	2096.0	2096.0	2088.0	2088.0	2103.0	2103.0	2103.0	2071.0	2071.0	2073.0	2073.0	2073.0	2098.0	2098.0	2066.0	2066.0	2066.0	2071.0	2071.0	2087.0	2087.0	2087.0	2067.0	2067.0	2053.0	2053.0	2053.0	2064.0	2064.0	2071.0	2071.0	2071.0	2068.0	2068.0	2077.0	2077.0	2077.0	2066.0	2066.0	2038.0	2038.0	2038.0	2041.0	2041.0	2066.0	2066.0	2066.0	2065.0	2065.0	2029.0	2029.0	2029.0	2048.0	2048.0	2023.0	2023.0	2023.0	2018.0	2018.0	2023.0	2023.0	2023.0	2052.0	2052.0	2026.0	2026.0	2026.0	2030.0	2030.0	2034.0	2034.0	2034.0	2053.0	2053.0	2009.0	2009.0	2009.0	2040.0	2040.0	2000.0	2000.0	2000.0	2036.0	2036.0	2012.0	2012.0	2012.0	1992.0	1992.0	2030.0	2030.0	2030.0	2035.0	2035.0	2018.0	2018.0	2018.0	2020.0	2020.0	1997.0	1997.0	2010.0	2010.0	2010.0	2004.0	2004.0	1962.0	1962.0	1962.0	1982.0	1982.0	2010.0	2010.0	2010.0	2001.0	2001.0	1966.0	1966.0	1966.0	1968.0	1968.0	1990.0	1990.0	1990.0	1999.0	1999.0	1987.0	1987.0	1987.0	1964.0	1964.0	2001.0	2001.0	2001.0	1980.0	1980.0	1971.0	1971.0	1971.0	1973.0	1973.0	1963.0	1963.0	1963.0	1959.0	1959.0	1977.0	1977.0	1977.0	1965.0	1965.0	1952.0	1952.0	1952.0	1955.0	1955.0	1972.0	1972.0	1972.0	1967.0	1967.0	1957.0	1957.0	1957.0	1935.0	1935.0	1965.0	1965.0	1965.0	1946.0	1946.0	1957.0	1957.0	1957.0	1974.0	1974.0	1937.0	1937.0	1937.0	1973.0	1973.0	1945.0	1945.0	1945.0	1933.0	1933.0	1974.0	1974.0	1974.0	1957.0	1957.0	1945.0	1945.0	1945.0	1980.0	1980.0	1964.0	1964.0	1964.0	1963.0	1963.0	1952.0	1952.0	1952.0	1937.0	1937.0	1965.0	1965.0	1965.0	1965.0	1965.0	1935.0	1935.0	1935.0	1972.0	1972.0	1940.0	1940.0	1940.0	1925.0	1925.0	1938.0	1938.0	1938.0	1944.0	1944.0	1951.0	1951.0	1951.0	1921.0	1921.0	1970.0	1970.0	1970.0	1933.0	1933.0	1934.0	1934.0	1934.0	1963.0	1963.0	1945.0	1945.0	1945.0	1923.0	1923.0	1928.0	1928.0	1928.0	1959.0	1959.0	1929.0	1929.0	1929.0	1946.0	1946.0	1944.0	1944.0	1944.0	1910.0	1910.0	1955.0	1955.0	1955.0	1908.0	1908.0	1941.0	1941.0	1941.0	1937.0	1937.0	1927.0	1927.0	1927.0	1920.0	1920.0	1932.0	1932.0	1932.0	1907.0	1907.0	1918.0	1918.0	1918.0	1960.0	1960.0	1941.0	1941.0	1941.0	1919.0	1919.0	1935.0	1935.0	1935.0	1953.0	1953.0	1956.0	1956.0	1956.0	1924.0	1924.0	1948.0	1948.0	1948.0	1926.0	1926.0	1942.0	1942.0	1934.0	1934.0	1934.0	1937.0	1937.0	1901.0	1901.0	1901.0	1913.0	1913.0	1921.0	1921.0	1921.0	1915.0	1915.0	1947.0	1947.0	1947.0	1895.0	1895.0	1939.0	1939.0	1939.0	1922.0	1922.0	1949.0	1949.0	1949.0	1899.0	1899.0	1934.0	1934.0	1934.0	1906.0	1906.0	1943.0	1943.0	1943.0	1913.0	1913.0	1938.0	1938.0	1938.0	1942.0	1942.0	1953.0	1953.0	1953.0	1903.0	1903.0	1916.0	1916.0	1916.0	1907.0	1907.0	1906.0	1906.0	1906.0	1942.0	1942.0	1900.0	1900.0	1900.0	1929.0	1929.0	1927.0	1927.0	1927.0	1905.0	1905.0	1936.0	1936.0	1936.0	1903.0	1903.0	1930.0	1930.0	1930.0	1896.0	1896.0	1927.0	1927.0	1927.0	1898.0	1898.0	1899.0	1899.0	1899.0	1887.0	1887.0	1901.0	1901.0	1901.0	1893.0	1893.0	1901.0	1901.0	1901.0	1921.0	1921.0	1895.0	1895.0	1895.0	1884.0	1884.0	1932.0	1932.0	1932.0	1927.0	1927.0	1900.0	1900.0	1900.0	1904.0	1904.0	1929.0	1929.0	1929.0	1914.0	1914.0	1888.0	1888.0	1888.0	1910.0	1910.0	1906.0	1906.0	1906.0	1934.0	1934.0	1882.0	1882.0	1882.0	1918.0	1918.0	1918.0	1918.0	1918.0	1894.0	1894.0	1912.0	1912.0	1912.0	1905.0	1905.0	1909.0	1909.0	1909.0	1921.0	1921.0	1918.0	1918.0	1918.0	1917.0	1917.0	1912.0	1912.0	1912.0	1903.0	1903.0	1932.0	1932.0	1932.0	1929.0	1929.0	1895.0	1895.0	1895.0	1904.0	1904.0	1887.0	1887.0	1887.0	1922.0	1922.0	1903.0	1903.0	1903.0	1888.0	1888.0	1908.0	1908.0	1908.0	1914.0	1914.0	1919.0	1919.0	1919.0	1882.0	1882.0	1900.0	1900.0	1900.0	1879.0	1879.0	1904.0	1904.0	1904.0	1910.0	1910.0	1901.0	1901.0	1884.0	1884.0	1884.0	1893.0	1893.0	1922.0	1922.0	1922.0	1901.0	1901.0	1897.0	1897.0	1897.0	1913.0	1913.0	1901.0	1901.0	1901.0	1883.0	1883.0	1879.0	1879.0	1879.0	1899.0	1899.0	1893.0	1893.0	1893.0	1872.0	1872.0	1873.0	1873.0	1873.0	1908.0	1908.0	1872.0	1872.0	1872.0	1908.0	1908.0	1880.0	1880.0	1880.0	1902.0	1902.0	1873.0	1873.0	1873.0	1907.0	1907.0	1898.0	1898.0	1898.0	1902.0	1902.0	1871.0	1871.0	1871.0	1891.0	1891.0	1914.0	1914.0	1914.0	1872.0	1872.0	1913.0	1913.0	1913.0	1868.0	1868.0	1869.0	1869.0	1869.0	1898.0	1898.0	1866.0	1866.0	1866.0	1887.0	1887.0	1874.0	1874.0	1874.0	1916.0	1916.0	1868.0	1868.0	1868.0	1916.0	1916.0	1872.0	1872.0	1872.0	1882.0	1882.0	1876.0	1876.0	1876.0	1875.0	1875.0	1875.0	1875.0	1875.0	1895.0	1895.0	1895.0	1895.0	1895.0	1892.0	1892.0	1894.0	1894.0	1894.0	1871.0	1871.0	1864.0	1864.0	1864.0	1897.0	1897.0	1888.0	1888.0	1888.0	1925.0	1925.0	1863.0	1863.0	1863.0	1885.0	1885.0	1917.0	1917.0	1917.0	1921.0	1921.0	1894.0	1894.0	1894.0	1877.0	1877.0	1883.0	1883.0	1883.0	1934.0	1934.0	1883.0	1883.0	1883.0	1907.0	1907.0	1919.0	1919.0	1919.0	1950.0	1950.0	1969.0	1969.0	1969.0	1962.0	1962.0	1961.0	1961.0	1961.0	1960.0	1960.0	1991.0	1991.0	1991.0	2008.0	2008.0	1981.0	1981.0	1981.0	2029.0	2029.0	2027.0	2027.0	2027.0	2079.0	2079.0	2076.0	2076.0	2076.0	2060.0	2060.0	2120.0	2120.0	2120.0	2118.0	2118.0	2141.0	2141.0	2141.0	2116.0	2116.0	2139.0	2139.0	2139.0	2196.0	2196.0	2172.0	2172.0	2201.0	2201.0	2201.0	2227.0	2227.0	2252.0	2252.0	2252.0	2244.0	2244.0	2263.0	2263.0	2263.0	2291.0	2291.0	2262.0	2262.0	2262.0	2275.0	2275.0	2299.0	2299.0	2299.0	2319.0	2319.0	2337.0	2337.0	2337.0	2359.0	2359.0	2358.0	2358.0	2358.0	2333.0	2333.0	2356.0	2356.0	2356.0	2359.0	2359.0	2378.0	2378.0	2378.0	2361.0	2361.0	2361.0	2361.0	2361.0	2346.0	2346.0	2397.0	2397.0	2397.0	2371.0	2371.0	2371.0	2371.0	2371.0	2358.0	2358.0	2383.0	2383.0	2383.0	2383.0	2383.0	2415.0	2415.0	2415.0	2399.0	2399.0	2409.0	2409.0	2409.0	2370.0	2370.0	2388.0	2388.0	2388.0	2399.0	2399.0	2358.0	2358.0	2358.0	2352.0	2352.0	2390.0	2390.0	2390.0	2365.0	2365.0	2336.0	2336.0	2336.0	2384.0	2384.0	2370.0	2370.0	2370.0	2371.0	2371.0	2337.0	2337.0	2337.0	2370.0	2370.0	2334.0	2334.0	2334.0	2332.0	2332.0	2335.0	2335.0	2335.0	2342.0	2342.0	2309.0	2309.0	2309.0	2288.0	2288.0	2342.0	2342.0	2342.0	2288.0	2288.0	2327.0	2327.0	2327.0	2295.0	2295.0	2295.0	2295.0	2295.0	2289.0	2289.0	2295.0	2295.0	2295.0	2299.0	2299.0	2282.0	2282.0	2282.0	2297.0	2297.0	2278.0	2278.0	2278.0	2273.0	2273.0	2276.0	2276.0	2276.0	2297.0	2297.0	2252.0	2252.0	2252.0	2258.0	2258.0	2272.0	2272.0	2272.0	2261.0	2261.0	2232.0	2232.0	2232.0	2247.0	2247.0	2248.0	2248.0	2248.0	2258.0	2258.0	2275.0	2275.0	2275.0	2255.0	2255.0	2263.0	2263.0	2263.0	2240.0	2240.0	2224.0	2224.0	2224.0	2264.0	2264.0	2255.0	2255.0	2255.0	2205.0	2205.0	2222.0	2222.0	2222.0	2249.0	2249.0	2224.0	2224.0	2224.0	2213.0	2213.0	2212.0	2212.0	2216.0	2216.0	2216.0	2230.0	2230.0	2209.0	2209.0	2209.0	2185.0	2185.0	2214.0	2214.0	2214.0	2212.0	2212.0	2222.0	2222.0	2222.0	2179.0	2179.0	2172.0	2172.0	2172.0	2173.0	2173.0	2167.0	2167.0	2167.0	2196.0	2196.0	2183.0	2183.0	2183.0	2173.0	2173.0	2161.0	2161.0	2161.0	2184.0	2184.0	2178.0	2178.0	2178.0	2177.0	2177.0	2169.0	2169.0	2169.0	2182.0	2182.0	2180.0	2180.0	2180.0	2168.0	2168.0	2121.0	2121.0	2121.0	2171.0	2171.0	2148.0	2148.0	2148.0	2163.0	2163.0	2139.0	2139.0	2139.0	2145.0	2145.0	2151.0	2151.0	2151.0	2127.0	2127.0	2139.0	2139.0	2139.0	2157.0	2157.0	2142.0	2142.0	2142.0	2169.0	2169.0	2148.0	2148.0	2148.0	2135.0	2135.0	2177.0	2177.0	2177.0	2179.0	2179.0	2147.0	2147.0	2147.0	2161.0	2161.0	2180.0	2180.0	2180.0	2165.0	2165.0	2142.0	2142.0	2142.0	2151.0	2151.0	2157.0	2157.0	2157.0	2126.0	2126.0	2154.0	2154.0	2154.0	2140.0	2140.0	2133.0	2133.0	2133.0	2141.0	2141.0	2137.0	2137.0	2137.0	2134.0	2134.0	2149.0	2149.0	2149.0	2167.0	2167.0	2134.0	2134.0	2134.0	2110.0	2110.0	2135.0	2135.0	2135.0	2123.0	2123.0	2122.0	2122.0	2122.0	2123.0	2123.0	2130.0	2130.0	2130.0	2138.0	2138.0	2138.0	2138.0	2138.0	2110.0	2110.0	2098.0	2098.0	2098.0	2114.0	2114.0	2151.0	2151.0	2151.0	2141.0	2141.0	2125.0	2125.0	2125.0	2126.0	2126.0	2132.0	2132.0	2132.0	2101.0	2101.0	2124.0	2124.0	2124.0	2096.0	2096.0	2121.0	2121.0	2121.0	2096.0	2096.0	2111.0	2111.0	2111.0	2088.0	2088.0	2084.0	2084.0	2084.0	2079.0	2079.0	2095.0	2095.0	2100.0	2100.0	2100.0	2071.0	2071.0	2096.0	2096.0	2096.0	2081.0	2081.0	2091.0	2091.0	2091.0	2075.0	2075.0	2041.0	2041.0	2041.0	2107.0	2107.0	2055.0	2055.0	2055.0	2058.0	2058.0	2082.0	2082.0	2082.0	2078.0	2078.0	2050.0	2050.0	2050.0	2069.0	2069.0	2032.0	2032.0	2032.0	2023.0	2023.0	2048.0	2048.0	2048.0	2058.0	2058.0	2065.0	2065.0	2065.0	2027.0	2027.0	2047.0	2047.0	2047.0	2035.0	2035.0	2007.0	2007.0	2007.0	2019.0	2019.0	2001.0	2001.0	2001.0	2047.0	2047.0	