2496.0	2496.0	2443.0	2443.0	2443.0	2452.0	2452.0	2435.0	2435.0	2435.0	2480.0	2480.0	2434.0	2434.0	2434.0	2476.0	2476.0	2414.0	2414.0	2414.0	2444.0	2444.0	2447.0	2447.0	2447.0	2402.0	2402.0	2416.0	2416.0	2416.0	2445.0	2445.0	2387.0	2387.0	2387.0	2386.0	2386.0	2390.0	2390.0	2390.0	2427.0	2427.0	2409.0	2409.0	2409.0	2362.0	2362.0	2352.0	2352.0	2352.0	2392.0	2392.0	2337.0	2337.0	2337.0	2340.0	2340.0	2326.0	2326.0	2326.0	2315.0	2315.0	2306.0	2306.0	2306.0	2367.0	2367.0	2322.0	2322.0	2322.0	2300.0	2300.0	2287.0	2287.0	2287.0	2338.0	2338.0	2315.0	2315.0	2315.0	2263.0	2263.0	2255.0	2255.0	2255.0	2246.0	2246.0	2239.0	2239.0	2239.0	2223.0	2223.0	2259.0	2259.0	2259.0	2253.0	2253.0	2244.0	2244.0	2244.0	2249.0	2249.0	2221.0	2221.0	2221.0	2223.0	2223.0	2194.0	2194.0	2194.0	2193.0	2193.0	2158.0	2158.0	2158.0	2180.0	2180.0	2183.0	2183.0	2183.0	2132.0	2132.0	2150.0	2150.0	2150.0	2159.0	2159.0	2098.0	2098.0	2098.0	2088.0	2088.0	2114.0	2114.0	2114.0	2127.0	2127.0	2073.0	2073.0	2073.0	2115.0	2115.0	2055.0	2055.0	2055.0	2065.0	2065.0	2094.0	2094.0	2094.0	2076.0	2076.0	2047.0	2047.0	2047.0	2067.0	2067.0	2035.0	2035.0	2035.0	2087.0	2087.0	2035.0	2035.0	2035.0	2018.0	2018.0	2062.0	2062.0	2062.0	2027.0	2027.0	2010.0	2010.0	2010.0	2013.0	2013.0	2045.0	2045.0	1989.0	1989.0	1989.0	1990.0	1990.0	1994.0	1994.0	1994.0	1977.0	1977.0	1996.0	1996.0	1996.0	2040.0	2040.0	2020.0	2020.0	2020.0	1958.0	1958.0	1989.0	1989.0	1989.0	1982.0	1982.0	2018.0	2018.0	2018.0	1962.0	1962.0	2007.0	2007.0	2007.0	1946.0	1946.0	1952.0	1952.0	1952.0	1961.0	1961.0	1978.0	1978.0	1978.0	1965.0	1965.0	1979.0	1979.0	1979.0	1980.0	1980.0	1982.0	1982.0	1982.0	1947.0	1947.0	1926.0	1926.0	1926.0	1964.0	1964.0	1972.0	1972.0	1972.0	1950.0	1950.0	1970.0	1970.0	1970.0	1910.0	1910.0	1949.0	1949.0	1949.0	1943.0	1943.0	1883.0	1883.0	1883.0	1947.0	1947.0	1900.0	1900.0	1900.0	1901.0	1901.0	1908.0	1908.0	1908.0	1912.0	1912.0	1932.0	1932.0	1932.0	1878.0	1878.0	1922.0	1922.0	1922.0	1872.0	1872.0	1922.0	1922.0	1922.0	1849.0	1849.0	1898.0	1898.0	1898.0	1919.0	1919.0	1901.0	1901.0	1901.0	1891.0	1891.0	1845.0	1845.0	1845.0	1896.0	1896.0	1897.0	1897.0	1897.0	1888.0	1888.0	1896.0	1896.0	1896.0	1891.0	1891.0	1875.0	1875.0	1875.0	1893.0	1893.0	1848.0	1848.0	1848.0	1848.0	1848.0	1820.0	1820.0	1820.0	1814.0	1814.0	1859.0	1859.0	1859.0	1837.0	1837.0	1845.0	1845.0	1845.0	1855.0	1855.0	1804.0	1804.0	1804.0	1805.0	1805.0	1836.0	1836.0	1836.0	1814.0	1814.0	1835.0	1835.0	1835.0	1780.0	1780.0	1849.0	1849.0	1849.0	1811.0	1811.0	1810.0	1810.0	1810.0	1838.0	1838.0	1842.0	1842.0	1842.0	1814.0	1814.0	1830.0	1830.0	1830.0	1821.0	1821.0	1809.0	1809.0	1809.0	1833.0	1833.0	1767.0	1767.0	1767.0	1806.0	1806.0	1781.0	1781.0	1781.0	1783.0	1783.0	1817.0	1817.0	1807.0	1807.0	1807.0	1754.0	1754.0	1806.0	1806.0	1806.0	1809.0	1809.0	1745.0	1745.0	1745.0	1771.0	1771.0	1749.0	1749.0	1749.0	1747.0	1747.0	1788.0	1788.0	1788.0	1760.0	1760.0	1749.0	1749.0	1749.0	1764.0	1764.0	1782.0	1782.0	1782.0	1785.0	1785.0	1793.0	1793.0	1793.0	1734.0	1734.0	1751.0	1751.0	1751.0	1789.0	1789.0	1800.0	1800.0	1800.0	1791.0	1791.0	1721.0	1721.0	1721.0	1746.0	1746.0	1740.0	1740.0	1740.0	1737.0	1737.0	1762.0	1762.0	1762.0	1779.0	1779.0	1770.0	1770.0	1770.0	1773.0	1773.0	1760.0	1760.0	1760.0	1735.0	1735.0	1760.0	1760.0	1760.0	1747.0	1747.0	1731.0	1731.0	1731.0	1762.0	1762.0	1716.0	1716.0	1716.0	1747.0	1747.0	1752.0	1752.0	1752.0	1750.0	1750.0	1763.0	1763.0	1763.0	1721.0	1721.0	1759.0	1759.0	1759.0	1764.0	1764.0	1751.0	1751.0	1751.0	1768.0	1768.0	1760.0	1760.0	1760.0	1744.0	1744.0	1719.0	1719.0	1719.0	1712.0	1712.0	1703.0	1703.0	1703.0	1699.0	1699.0	1730.0	1730.0	1730.0	1714.0	1714.0	1761.0	1761.0	1761.0	1753.0	1753.0	1720.0	1720.0	1720.0	1727.0	1727.0	1711.0	1711.0	1711.0	1711.0	1711.0	1722.0	1722.0	1722.0	1706.0	1706.0	1691.0	1691.0	1691.0	1720.0	1720.0	1686.0	1686.0	1686.0	1732.0	1732.0	1752.0	1752.0	1752.0	1731.0	1731.0	1687.0	1687.0	1687.0	1709.0	1709.0	1691.0	1691.0	1691.0	1703.0	1703.0	1707.0	1707.0	1707.0	1726.0	1726.0	1692.0	1692.0	1692.0	1733.0	1733.0	1730.0	1730.0	1730.0	1777.0	1777.0	1732.0	1732.0	1732.0	1753.0	1753.0	1760.0	1760.0	1760.0	1796.0	1796.0	1815.0	1815.0	1812.0	1812.0	1812.0	1840.0	1840.0	1864.0	1864.0	1864.0	1873.0	1873.0	1934.0	1934.0	1934.0	1922.0	1922.0	1934.0	1934.0	1934.0	1971.0	1971.0	2028.0	2028.0	2028.0	2008.0	2008.0	2038.0	2038.0	2038.0	2072.0	2072.0	2099.0	2099.0	2099.0	2143.0	2143.0	2165.0	2165.0	2165.0	2234.0	2234.0	2196.0	2196.0	2196.0	2247.0	2247.0	2298.0	2298.0	2298.0	2316.0	2316.0	2341.0	2341.0	2341.0	2344.0	2344.0	2326.0	2326.0	2326.0	2341.0	2341.0	2419.0	2419.0	2419.0	2434.0	2434.0	2408.0	2408.0	2408.0	2444.0	2444.0	2459.0	2459.0	2459.0	2489.0	2489.0	2448.0	2448.0	2448.0	2451.0	2451.0	2519.0	2519.0	2519.0	2508.0	2508.0	2530.0	2530.0	2530.0	2487.0	2487.0	2550.0	2550.0	2550.0	2495.0	2495.0	2560.0	2560.0	2560.0	2542.0	2542.0	2526.0	2526.0	2526.0	2521.0	2521.0	2550.0	2550.0	2550.0	2535.0	2535.0	2569.0	2569.0	2569.0	2534.0	2534.0	2574.0	2574.0	2574.0	2577.0	2577.0	2570.0	2570.0	2570.0	2522.0	2522.0	2511.0	2511.0	2511.0	2520.0	2520.0	2548.0	2548.0	2548.0	2551.0	2551.0	2524.0	2524.0	2524.0	2526.0	2526.0	2545.0	2545.0	2545.0	2498.0	2498.0	2504.0	2504.0	2504.0	2479.0	2479.0	2502.0	2502.0	2502.0	2528.0	2528.0	2485.0	2485.0	2485.0	2461.0	2461.0	2450.0	2450.0	2450.0	2462.0	2462.0	2455.0	2455.0	2455.0	2446.0	2446.0	2460.0	2460.0	2460.0	2484.0	2484.0	2454.0	2454.0	2454.0	2456.0	2456.0	2407.0	2407.0	2407.0	2413.0	2413.0	2425.0	2425.0	2425.0	2406.0	2406.0	2415.0	2415.0	2415.0	2411.0	2411.0	2374.0	2374.0	2374.0	2417.0	2417.0	2385.0	2385.0	2358.0	2358.0	2358.0	2343.0	2343.0	2403.0	2403.0	2403.0	2387.0	2387.0	2343.0	2343.0	2343.0	2368.0	2368.0	2332.0	2332.0	2332.0	2317.0	2317.0	2336.0	2336.0	2336.0	2296.0	2296.0	2303.0	2303.0	2303.0	2292.0	2292.0	2352.0	2352.0	2352.0	2296.0	2296.0	2306.0	2306.0	2306.0	2258.0	2258.0	2315.0	2315.0	2315.0	2301.0	2301.0	2301.0	2301.0	2301.0	2261.0	2261.0	2256.0	2256.0	2256.0	2217.0	2217.0	2254.0	2254.0	2254.0	2259.0	2259.0	2239.0	2239.0	2239.0	2226.0	2226.0	2166.0	2166.0	2166.0	2212.0	2212.0	2217.0	2217.0	2217.0	2136.0	2136.0	2157.0	2157.0	2157.0	2135.0	2135.0	2163.0	2163.0	2163.0	2179.0	2179.0	2095.0	2095.0	2095.0	2111.0	2111.0	2143.0	2143.0	2143.0	2091.0	2091.0	2100.0	2100.0	2100.0	2067.0	2067.0	2078.0	2078.0	2078.0	2058.0	2058.0	2051.0	2051.0	2051.0	2030.0	2030.0	2059.0	2059.0	2059.0	2070.0	2070.0	2017.0	2017.0	2017.0	2014.0	2014.0	2054.0	2054.0	2054.0	1980.0	1980.0	1989.0	1989.0	1989.0	2023.0	2023.0	1982.0	1982.0	1982.0	2012.0	2012.0	1974.0	1974.0	1974.0	1959.0	1959.0	1950.0	1950.0	1950.0	1997.0	1997.0	1948.0	1948.0	1948.0	1937.0	1937.0	1963.0	1963.0	1963.0	1943.0	1943.0	1926.0	1926.0	1926.0	1944.0	1944.0	1926.0	1926.0	1926.0	1920.0	1920.0	1944.0	1944.0	1944.0	1926.0	1926.0	1964.0	1964.0	1964.0	1924.0	1924.0	1960.0	1960.0	1960.0	1963.0	1963.0	1962.0	1962.0	1962.0	1935.0	1935.0	1949.0	1949.0	1949.0	1924.0	1924.0	1932.0	1932.0	1932.0	1941.0	1941.0	1939.0	1939.0	1939.0	1880.0	1880.0	1895.0	1895.0	1895.0	1908.0	1908.0	1918.0	1918.0	1866.0	1866.0	1866.0	1912.0	1912.0	1911.0	1911.0	1911.0	1904.0	1904.0	1905.0	1905.0	1905.0	1895.0	1895.0	1847.0	1847.0	1847.0	1889.0	1889.0	1896.0	1896.0	1896.0	1848.0	1848.0	1850.0	1850.0	1850.0	1892.0	1892.0	1892.0	1892.0	1892.0	1850.0	1850.0	1881.0	1881.0	1881.0	1887.0	1887.0	1886.0	1886.0	1886.0	1876.0	1876.0	1881.0	1881.0	1881.0	1849.0	1849.0	1826.0	1826.0	1826.0	1867.0	1867.0	1865.0	1865.0	1865.0	1870.0	1870.0	1852.0	1852.0	1852.0	1883.0	1883.0	1810.0	1810.0	1810.0	1819.0	1819.0	1804.0	1804.0	1804.0	1818.0	1818.0	1807.0	1807.0	1807.0	1830.0	1830.0	1795.0	1795.0	1795.0	1846.0	1846.0	1782.0	1782.0	1782.0	1847.0	1847.0	1809.0	1809.0	1809.0	1817.0	1817.0	1806.0	1806.0	1806.0	1766.0	1766.0	1797.0	1797.0	1797.0	1771.0	1771.0	1804.0	1804.0	1804.0	1770.0	1770.0	1781.0	1781.0	1781.0	1783.0	1783.0	1787.0	1787.0	1787.0	1754.0	1754.0	1792.0	1792.0	1792.0	1789.0	1789.0	1792.0	1792.0	1792.0	1803.0	1803.0	1763.0	1763.0	1763.0	1767.0	1767.0	1733.0	1733.0	1733.0	1741.0	1741.0	1765.0	1765.0	1765.0	1734.0	1734.0	1775.0	1775.0	1775.0	1732.0	1732.0	1743.0	1743.0	1743.0	1751.0	1751.0	1750.0	1750.0	1750.0	1755.0	1755.0	1747.0	1747.0	1747.0	1757.0	1757.0	1762.0	1762.0	1762.0	1722.0	1722.0	1705.0	1705.0	1705.0	1699.0	1699.0	1743.0	1743.0	1743.0	1745.0	1745.0	1732.0	1732.0	1732.0	1749.0	1749.0	1709.0	1709.0	1709.0	1699.0	1699.0	1740.0	1740.0	1740.0	1689.0	1689.0	1707.0	1707.0	1707.0	1731.0	1731.0	1672.0	1672.0	1731.0	1731.0	1731.0	1694.0	1694.0	1678.0	1678.0	1678.0	1678.0	1678.0	1680.0	1680.0	1680.0	1720.0	1720.0	1674.0	1674.0	1674.0	1698.0	1698.0	1725.0	1725.0	1725.0	1695.0	1695.0	1719.0	1719.0	1719.0	1723.0	1723.0	1679.0	1679.0	1679.0	1730.0	1730.0	1655.0	1655.0	1655.0	1663.0	1663.0	1717.0	1717.0	1717.0	1701.0	1701.0	1708.0	1708.0	1708.0	1693.0	1693.0	1716.0	1716.0	1716.0	1651.0	1651.0	1671.0	1671.0	1671.0	1695.0	1695.0	1710.0	1710.0	1710.0	1708.0	1708.0	1645.0	1645.0	1645.0	1690.0	1690.0	1653.0	1653.0	1653.0	1668.0	1668.0	1641.0	1641.0	1641.0	1662.0	1662.0	1695.0	1695.0	1695.0	1701.0	1701.0	1671.0	1671.0	1671.0	1643.0	1643.0	1707.0	1707.0	1707.0	1677.0	1677.0	1680.0	1680.0	1680.0	1625.0	1625.0	1664.0	1664.0	1664.0	1633.0	1633.0	1620.0	1620.0	1620.0	1668.0	1668.0	1649.0	1649.0	1649.0	1682.0	1682.0	1659.0	1659.0	1659.0	1624.0	1624.0	1617.0	1617.0	1617.0	1615.0	1615.0	1635.0	1635.0	1635.0	1619.0	1619.0	1623.0	1623.0	1623.0	1666.0	1666.0	1689.0	1689.0	1689.0	1632.0	1632.0	1704.0	1704.0	1704.0	1697.0	1697.0	1709.0	1709.0	1709.0	1672.0	1672.0	1714.0	1714.0	1714.0	1695.0	1695.0	1691.0	1691.0	1691.0	1772.0	1772.0	1741.0	1741.0	1741.0	1782.0	1782.0	1844.0	1844.0	1844.0	1849.0	1849.0	1891.0	1891.0	1891.0	1900.0	1900.0	1885.0	1885.0	1885.0	1909.0	1909.0	1940.0	1940.0	1940.0	1971.0	1971.0	2031.0	2031.0	2031.0	2007.0	2007.0	2046.0	2046.0	2046.0	2062.0	2062.0	2089.0	2089.0	2089.0	2111.0	2111.0	2180.0	2180.0	2154.0	2154.0	2154.0	2218.0	2218.0	2223.0	2223.0	2223.0	2258.0	2258.0	2239.0	2239.0	2239.0	2269.0	2269.0	2293.0	2293.0	2293.0	2319.0	2319.0	2327.0	2327.0	2327.0	2379.0	2379.0	2366.0	2366.0	2366.0	2355.0	2355.0	2421.0	2421.0	2421.0	2412.0	2412.0	2406.0	2406.0	2406.0	2454.0	2454.0	2402.0	2402.0	2402.0	2451.0	2451.0	2451.0	2451.0	2451.0	2433.0	2433.0	2426.0	2426.0	2426.0	2448.0	2448.0	2468.0	2468.0	2468.0	2482.0	2482.0	2492.0	2492.0	2492.0	2428.0	2428.0	2472.0	2472.0	2472.0	2466.0	2466.0	2476.0	2476.0	2476.0	2442.0	2442.0	2455.0	2455.0	2455.0	2475.0	2475.0	2441.0	2441.0	2441.0	2457.0	2457.0	2475.0	2475.0	2475.0	2420.0	2420.0	2462.0	2462.0	2462.0	2459.0	2459.0	2463.0	2463.0	2463.0	2454.0	2454.0	2452.0	2452.0	2452.0	2418.0	2418.0	2397.0	2397.0	2397.0	2395.0	2395.0	2419.0	2419.0	2419.0	2392.0	2392.0	2423.0	2423.0	2423.0	2395.0	2395.0	2366.0	2366.0	2366.0	2401.0	2401.0	2367.0	2367.0	2367.0	2353.0	2353.0	2352.0	2352.0	2352.0	2334.0	2334.0	2336.0	2336.0	2336.0	2332.0	2332.0	2310.0	2310.0	2310.0	2349.0	2349.0	2348.0	2348.0	2348.0	2327.0	2327.0	2320.0	2320.0	2320.0	2336.0	2336.0	2321.0	2321.0	2321.0	2276.0	2276.0	2328.0	2328.0	2328.0	2278.0	2278.0	2304.0	2304.0	2304.0	2259.0	2259.0	2263.0	2263.0	2263.0	2245.0	2245.0	2243.0	2243.0	2243.0	2283.0	2283.0	2234.0	2234.0	2234.0	2281.0	2281.0	2236.0	2236.0	2236.0	2217.0	2217.0	2216.0	2216.0	2216.0	2248.0	2248.0	2205.0	2205.0	2205.0	2241.0	2241.0	2197.0	2197.0	2197.0	2200.0	2200.0	2173.0	2173.0	2175.0	2175.0	2175.0	2216.0	2216.0	2201.0	2201.0	2201.0	2152.0	2152.0	2192.0	2192.0	2192.0	2139.0	2139.0	2131.0	2131.0	2131.0	2127.0	2127.0	2149.0	2149.0	2149.0	2169.0	2169.0	2155.0	2155.0	2155.0	2096.0	2096.0	2152.0	2152.0	2152.0	2094.0	2094.0	2112.0	2112.0	2112.0	2117.0	2117.0	2104.0	2104.0	2104.0	2109.0	2109.0	2084.0	2084.0	2084.0	2046.0	2046.0	2046.0	2046.0	2046.0	2039.0	2039.0	2030.0	2030.0	2030.0	2069.0	2069.0	2044.0	2044.0	2044.0	2036.0	2036.0	2026.0	2026.0	2026.0	2016.0	2016.0	2069.0	2069.0	2069.0	2014.0	2014.0	2014.0	2014.0	2014.0	2051.0	2051.0	2035.0	2035.0	2035.0	2047.0	2047.0	2001.0	2001.0	2001.0	2049.0	2049.0	2050.0	2050.0	2050.0	2014.0	2014.0	2023.0	2023.0	2023.0	2025.0	2025.0	2028.0	2028.0	2028.0	2011.0	2011.0	2034.0	2034.0	2034.0	1990.0	1990.0	1983.0	1983.0	1983.0	2020.0	2020.0	2031.0	2031.0	2031.0	1979.0	1979.0	1980.0	1980.0	1980.0	1988.0	1988.0	2016.0	2016.0	2016.0	2008.0	2008.0	1996.0	1996.0	1996.0	2015.0	2015.0	1963.0	1963.0	1963.0	2017.0	2017.0	2019.0	2019.0	2019.0	1983.0	1983.0	1993.0	1993.0	1993.0	2012.0	2012.0	1987.0	1987.0	1987.0	1979.0	1979.0	1984.0	1984.0	1984.0	1996.0	1996.0	1954.0	1954.0	1954.0	2001.0	2001.0	1978.0	1978.0	1978.0	1953.0	1953.0	1998.0	1998.0	1998.0	1972.0	1972.0	1939.0	1939.0	1939.0	1973.0	1973.0	1998.0	1998.0	1998.0	1938.0	1938.0	1980.0	1980.0	1980.0	1966.0	1966.0	1927.0	1927.0	1927.0	1972.0	1972.0	1925.0	1925.0	1925.0	1955.0	1955.0	1926.0	1926.0	1959.0	1959.0	1959.0	1935.0	1935.0	1962.0	1962.0	1962.0	1955.0	1955.0	1909.0	1909.0	1909.0	1945.0	1945.0	1915.0	1915.0	1915.0	1897.0	1897.0	1952.0	1952.0	1952.0	1927.0	1927.0	1923.0	1923.0	1923.0	1950.0	1950.0	1907.0	1907.0	1907.0	1905.0	1905.0	1882.0	1882.0	1882.0	1932.0	1932.0	1883.0	1883.0	1883.0	1919.0	1919.0	1873.0	1873.0	1873.0	1898.0	1898.0	1912.0	1912.0	1912.0	1896.0	1896.0	1846.0	1846.0	1846.0	1886.0	1886.0	1889.0	1889.0	1889.0	1844.0	1844.0	1868.0	1868.0	1868.0	1884.0	1884.0	1820.0	1820.0	1820.0	1818.0	1818.0	1837.0	1837.0	1837.0	1845.0	1845.0	1816.0	1816.0	1816.0	1850.0	1850.0	1819.0	1819.0	1819.0	1804.0	1804.0	1837.0	1837.0	1837.0	1798.0	1798.0	1785.0	1785.0	1785.0	1790.0	1790.0	1755.0	1755.0	1755.0	1789.0	1789.0	1785.0	1785.0	1785.0	1753.0	1753.0	1804.0	1804.0	1804.0	1811.0	1811.0	1803.0	1803.0	1803.0	1783.0	1783.0	1780.0	1780.0	1780.0	1786.0	1786.0	1734.0	1734.0	1734.0	1777.0	1777.0	1725.0	1725.0	1725.0	1741.0	1741.0	1769.0	1769.0	1769.0	1711.0	1711.0	1721.0	1721.0	1721.0	1713.0	1713.0	1731.0	1731.0	1731.0	1772.0	1772.0	1725.0	1725.0	1725.0	1723.0	1723.0	1702.0	1702.0	1702.0	1742.0	1742.0	1691.0	1691.0	1691.0	1686.0	1686.0	1688.0	1688.0	1688.0	1715.0	1715.0	1671.0	1671.0	1671.0	1671.0	1671.0	1676.0	1676.0	1676.0	1655.0	1655.0	1658.0	1658.0	1658.0	1710.0	1710.0	1645.0	1645.0	1645.0	1678.0	1678.0	1628.0	1628.0	1628.0	1686.0	1686.0	1650.0	1650.0	1650.0	1669.0	1669.0	1617.0	1617.0	1617.0	1614.0	1614.0	1615.0	1615.0	1601.0	1601.0	1601.0	1610.0	1610.0	1620.0	1620.0	1620.0	1600.0	1600.0	1587.0	1587.0	1587.0	1608.0	1608.0	1609.0	1609.0	1609.0	1616.0	1616.0	1640.0	1640.0	1640.0	1598.0	1598.0	1566.0	1566.0	1566.0	1608.0	1608.0	1612.0	1612.0	1612.0	1563.0	1563.0	1559.0	1559.0	1559.0	1565.0	1565.0	1611.0	1611.0	1611.0	1593.0	1593.0	1602.0	1602.0	1602.0	1583.0	1583.0	1564.0	1564.0	1564.0	1566.0	1566.0	1546.0	1546.0	1546.0	1556.0	1556.0	1586.0	1586.0	1586.0	1576.0	1576.0	1535.0	1535.0	1535.0	1533.0	1533.0	1512.0	1512.0	1512.0	1516.0	1516.0	1540.0	1540.0	1540.0	1569.0	1569.0	1540.0	1540.0	1540.0	