1943.0	1943.0	1964.0	1964.0	1954.0	1954.0	1954.0	1951.0	1951.0	1943.0	1943.0	1943.0	1957.0	1957.0	1926.0	1926.0	1926.0	1937.0	1937.0	1925.0	1925.0	1925.0	1919.0	1919.0	1939.0	1939.0	1939.0	1923.0	1923.0	1911.0	1911.0	1911.0	1930.0	1930.0	1914.0	1914.0	1914.0	1921.0	1921.0	1922.0	1922.0	1922.0	1922.0	1922.0	1904.0	1904.0	1904.0	1908.0	1908.0	1879.0	1879.0	1879.0	1887.0	1887.0	1881.0	1881.0	1881.0	1893.0	1893.0	1878.0	1878.0	1878.0	1875.0	1875.0	1879.0	1879.0	1879.0	1879.0	1879.0	1893.0	1893.0	1893.0	1867.0	1867.0	1869.0	1869.0	1869.0	1863.0	1863.0	1849.0	1849.0	1849.0	1878.0	1878.0	1844.0	1844.0	1844.0	1871.0	1871.0	1833.0	1833.0	1833.0	1850.0	1850.0	1828.0	1828.0	1828.0	1830.0	1830.0	1834.0	1834.0	1834.0	1831.0	1831.0	1820.0	1820.0	1820.0	1825.0	1825.0	1812.0	1812.0	1812.0	1824.0	1824.0	1812.0	1812.0	1812.0	1813.0	1813.0	1806.0	1806.0	1806.0	1809.0	1809.0	1795.0	1795.0	1795.0	1784.0	1784.0	1791.0	1791.0	1791.0	1804.0	1804.0	1790.0	1790.0	1790.0	1777.0	1777.0	1793.0	1793.0	1793.0	1788.0	1788.0	1789.0	1789.0	1789.0	1776.0	1776.0	1780.0	1780.0	1780.0	1784.0	1784.0	1780.0	1780.0	1780.0	1786.0	1786.0	1777.0	1777.0	1777.0	1775.0	1775.0	1753.0	1753.0	1753.0	1765.0	1765.0	1771.0	1771.0	1771.0	1755.0	1755.0	1744.0	1744.0	1744.0	1748.0	1748.0	1754.0	1754.0	1754.0	1741.0	1741.0	1766.0	1766.0	1733.0	1733.0	1733.0	1760.0	1760.0	1744.0	1744.0	1744.0	1754.0	1754.0	1741.0	1741.0	1741.0	1722.0	1722.0	1732.0	1732.0	1732.0	1732.0	1732.0	1726.0	1726.0	1726.0	1750.0	1750.0	1715.0	1715.0	1715.0	1721.0	1721.0	1723.0	1723.0	1723.0	1712.0	1712.0	1719.0	1719.0	1719.0	1739.0	1739.0	1740.0	1740.0	1740.0	1705.0	1705.0	1708.0	1708.0	1708.0	1728.0	1728.0	1712.0	1712.0	1712.0	1705.0	1705.0	1727.0	1727.0	1727.0	1739.0	1739.0	1735.0	1735.0	1735.0	1725.0	1725.0	1728.0	1728.0	1728.0	1711.0	1711.0	1703.0	1703.0	1703.0	1740.0	1740.0	1739.0	1739.0	1739.0	1744.0	1744.0	1747.0	1747.0	1747.0	1753.0	1753.0	1768.0	1768.0	1768.0	1785.0	1785.0	1789.0	1789.0	1789.0	1817.0	1817.0	1820.0	1820.0	1820.0	1850.0	1850.0	1883.0	1883.0	1883.0	1887.0	1887.0	1913.0	1913.0	1913.0	1935.0	1935.0	1973.0	1973.0	1973.0	2015.0	2015.0	2022.0	2022.0	2022.0	2029.0	2029.0	2068.0	2068.0	2068.0	2091.0	2091.0	2115.0	2115.0	2115.0	2131.0	2131.0	2188.0	2188.0	2188.0	2202.0	2202.0	2204.0	2204.0	2204.0	2237.0	2237.0	2264.0	2264.0	2264.0	2280.0	2280.0	2298.0	2298.0	2298.0	2302.0	2302.0	2316.0	2316.0	2316.0	2352.0	2352.0	2373.0	2373.0	2373.0	2398.0	2398.0	2399.0	2399.0	2399.0	2407.0	2407.0	2403.0	2403.0	2403.0	2452.0	2452.0	2452.0	2452.0	2452.0	2462.0	2462.0	2469.0	2469.0	2469.0	2474.0	2474.0	2456.0	2456.0	2456.0	2479.0	2479.0	2485.0	2485.0	2485.0	2494.0	2494.0	2506.0	2506.0	2506.0	2480.0	2480.0	2505.0	2505.0	2505.0	2499.0	2499.0	2490.0	2490.0	2509.0	2509.0	2509.0	2511.0	2511.0	2509.0	2509.0	2509.0	2482.0	2482.0	2478.0	2478.0	2478.0	2474.0	2474.0	2484.0	2484.0	2484.0	2470.0	2470.0	2494.0	2494.0	2494.0	2466.0	2466.0	2474.0	2474.0	2474.0	2461.0	2461.0	2466.0	2466.0	2466.0	2476.0	2476.0	2444.0	2444.0	2444.0	2467.0	2467.0	2439.0	2439.0	2439.0	2454.0	2454.0	2442.0	2442.0	2442.0	2445.0	2445.0	2439.0	2439.0	2439.0	2416.0	2416.0	2421.0	2421.0	2421.0	2409.0	2409.0	2393.0	2393.0	2393.0	2388.0	2388.0	2374.0	2374.0	2374.0	2380.0	2380.0	2381.0	2381.0	2381.0	2383.0	2383.0	2363.0	2363.0	2363.0	2356.0	2356.0	2356.0	2356.0	2356.0	2343.0	2343.0	2337.0	2337.0	2337.0	2303.0	2303.0	2327.0	2327.0	2327.0	2296.0	2296.0	2286.0	2286.0	2286.0	2276.0	2276.0	2266.0	2266.0	2266.0	2291.0	2291.0	2266.0	2266.0	2266.0	2246.0	2246.0	2239.0	2239.0	2239.0	2251.0	2251.0	2210.0	2210.0	2210.0	2211.0	2211.0	2207.0	2207.0	2207.0	2179.0	2179.0	2185.0	2185.0	2185.0	2160.0	2160.0	2158.0	2158.0	2158.0	2138.0	2138.0	2130.0	2130.0	2130.0	2138.0	2138.0	2118.0	2118.0	2118.0	2103.0	2103.0	2102.0	2102.0	2102.0	2091.0	2091.0	2092.0	2092.0	2092.0	2096.0	2096.0	2084.0	2084.0	2084.0	2080.0	2080.0	2074.0	2074.0	2074.0	2087.0	2087.0	2073.0	2073.0	2073.0	2050.0	2050.0	2047.0	2047.0	2047.0	2058.0	2058.0	2059.0	2059.0	2059.0	2056.0	2056.0	2055.0	2055.0	2055.0	2041.0	2041.0	2021.0	2021.0	2021.0	2039.0	2039.0	2040.0	2040.0	2040.0	2015.0	2015.0	2018.0	2018.0	2018.0	2014.0	2014.0	2048.0	2048.0	2048.0	2020.0	2020.0	2020.0	2020.0	2029.0	2029.0	2029.0	2018.0	2018.0	2018.0	2018.0	2018.0	2036.0	2036.0	2006.0	2006.0	2006.0	2016.0	2016.0	2027.0	2027.0	2027.0	2018.0	2018.0	2008.0	2008.0	2008.0	2019.0	2019.0	2015.0	2015.0	2015.0	2017.0	2017.0	2013.0	2013.0	2013.0	1998.0	1998.0	2007.0	2007.0	2007.0	2029.0	2029.0	2006.0	2006.0	2006.0	2007.0	2007.0	2008.0	2008.0	2008.0	2001.0	2001.0	2009.0	2009.0	2009.0	1994.0	1994.0	1979.0	1979.0	1979.0	1969.0	1969.0	1979.0	1979.0	1979.0	1996.0	1996.0	1961.0	1961.0	1961.0	1975.0	1975.0	1975.0	1975.0	1975.0	1984.0	1984.0	1981.0	1981.0	1981.0	1973.0	1973.0	1963.0	1963.0	1963.0	1962.0	1962.0	1976.0	1976.0	1976.0	1965.0	1965.0	1949.0	1949.0	1949.0	1946.0	1946.0	1956.0	1956.0	1956.0	1964.0	1964.0	1934.0	1934.0	1934.0	1944.0	1944.0	1936.0	1936.0	1936.0	1948.0	1948.0	1937.0	1937.0	1937.0	1933.0	1933.0	1937.0	1937.0	1937.0	1917.0	1917.0	1910.0	1910.0	1910.0	1915.0	1915.0	1931.0	1931.0	1931.0	1910.0	1910.0	1916.0	1916.0	1916.0	1907.0	1907.0	1895.0	1895.0	1895.0	1901.0	1901.0	1889.0	1889.0	1889.0	1906.0	1906.0	1892.0	1892.0	1892.0	1897.0	1897.0	1898.0	1898.0	1898.0	1882.0	1882.0	1870.0	1870.0	1870.0	1878.0	1878.0	1885.0	1885.0	1885.0	1870.0	1870.0	1863.0	1863.0	1863.0	1853.0	1853.0	1861.0	1861.0	1861.0	1861.0	1861.0	1854.0	1854.0	1854.0	1836.0	1836.0	1877.0	1877.0	1877.0	1858.0	1858.0	1846.0	1846.0	1846.0	1843.0	1843.0	1841.0	1841.0	1841.0	1838.0	1838.0	1843.0	1843.0	1843.0	1831.0	1831.0	1837.0	1837.0	1818.0	1818.0	1818.0	1819.0	1819.0	1830.0	1830.0	1830.0	1805.0	1805.0	1789.0	1789.0	1789.0	1807.0	1807.0	1812.0	1812.0	1812.0	1814.0	1814.0	1800.0	1800.0	1800.0	1805.0	1805.0	1782.0	1782.0	1782.0	1807.0	1807.0	1785.0	1785.0	1785.0	1778.0	1778.0	1773.0	1773.0	1773.0	1764.0	1764.0	1763.0	1763.0	1763.0	1786.0	1786.0	1768.0	1768.0	1768.0	1774.0	1774.0	1787.0	1787.0	1787.0	1778.0	1778.0	1761.0	1761.0	1761.0	1773.0	1773.0	1772.0	1772.0	1772.0	1748.0	1748.0	1760.0	1760.0	1760.0	1760.0	1760.0	1756.0	1756.0	1756.0	1759.0	1759.0	1753.0	1753.0	1753.0	1761.0	1761.0	1746.0	1746.0	1746.0	1774.0	1774.0	1734.0	1734.0	1734.0	1739.0	1739.0	1749.0	1749.0	1749.0	1734.0	1734.0	1746.0	1746.0	1746.0	1756.0	1756.0	1737.0	1737.0	1737.0	1728.0	1728.0	1744.0	1744.0	1744.0	1747.0	1747.0	1729.0	1729.0	1729.0	1713.0	1713.0	1713.0	1713.0	1713.0	1721.0	1721.0	1733.0	1733.0	1733.0	1716.0	1716.0	1740.0	1740.0	1740.0	1726.0	1726.0	1725.0	1725.0	1725.0	1739.0	1739.0	1760.0	1760.0	1760.0	1739.0	1739.0	1763.0	1763.0	1763.0	1761.0	1761.0	1764.0	1764.0	1764.0	1776.0	1776.0	1799.0	1799.0	1799.0	1815.0	1815.0	1829.0	1829.0	1829.0	1845.0	1845.0	1865.0	1865.0	1865.0	1891.0	1891.0	1923.0	1923.0	1923.0	1940.0	1940.0	1959.0	1959.0	1959.0	1962.0	1962.0	1998.0	1998.0	1998.0	2033.0	2033.0	2071.0	2071.0	2071.0	2097.0	2097.0	2128.0	2128.0	2128.0	2133.0	2133.0	2155.0	2155.0	2155.0	2185.0	2185.0	2207.0	2207.0	2207.0	2234.0	2234.0	2251.0	2251.0	2247.0	2247.0	2247.0	2289.0	2289.0	2310.0	2310.0	2310.0	2319.0	2319.0	2339.0	2339.0	2339.0	2375.0	2375.0	2375.0	2375.0	2375.0	2423.0	2423.0	2412.0	2412.0	2412.0	2420.0	2420.0	2422.0	2422.0	2422.0	2439.0	2439.0	2442.0	2442.0	2442.0	2463.0	2463.0	2476.0	2476.0	2476.0	2486.0	2486.0	2475.0	2475.0	2475.0	2495.0	2495.0	2495.0	2495.0	2495.0	2481.0	2481.0	2508.0	2508.0	2508.0	2501.0	2501.0	2515.0	2515.0	2515.0	2509.0	2509.0	2503.0	2503.0	2503.0	2503.0	2503.0	2523.0	2523.0	2523.0	2489.0	2489.0	2495.0	2495.0	2495.0	2499.0	2499.0	2494.0	2494.0	2494.0	2491.0	2491.0	2495.0	2495.0	2495.0	2493.0	2493.0	2468.0	2468.0	2468.0	2498.0	2498.0	2488.0	2488.0	2488.0	2482.0	2482.0	2483.0	2483.0	2483.0	2453.0	2453.0	2460.0	2460.0	2460.0	2453.0	2453.0	2465.0	2465.0	2465.0	2427.0	2427.0	2436.0	2436.0	2436.0	2425.0	2425.0	2411.0	2411.0	2411.0	2422.0	2422.0	2399.0	2399.0	2399.0	2388.0	2388.0	2398.0	2398.0	2398.0	2396.0	2396.0	2384.0	2384.0	2384.0	2367.0	2367.0	2370.0	2370.0	2370.0	2361.0	2361.0	2352.0	2352.0	2352.0	2362.0	2362.0	2355.0	2355.0	2355.0	2322.0	2322.0	2327.0	2327.0	2327.0	2303.0	2303.0	2286.0	2286.0	2286.0	2286.0	2286.0	2292.0	2292.0	2292.0	2283.0	2283.0	2269.0	2269.0	2269.0	2240.0	2240.0	2226.0	2226.0	2226.0	2242.0	2242.0	2205.0	2205.0	2205.0	2228.0	2228.0	2201.0	2201.0	2201.0	2197.0	2197.0	2198.0	2198.0	2198.0	2156.0	2156.0	2175.0	2175.0	2175.0	2154.0	2154.0	2159.0	2159.0	2159.0	2145.0	2145.0	2119.0	2119.0	2119.0	2107.0	2107.0	2111.0	2111.0	2105.0	2105.0	2105.0	2100.0	2100.0	2108.0	2108.0	2108.0	2084.0	2084.0	2064.0	2064.0	2064.0	2091.0	2091.0	2086.0	2086.0	2086.0	2051.0	2051.0	2068.0	2068.0	2068.0	2063.0	2063.0	2063.0	2063.0	2063.0	2031.0	2031.0	2057.0	2057.0	2057.0	2048.0	2048.0	2064.0	2064.0	2064.0	2035.0	2035.0	2048.0	2048.0	2048.0	2044.0	2044.0	2027.0	2027.0	2027.0	2048.0	2048.0	2024.0	2024.0	2024.0	2026.0	2026.0	2040.0	2040.0	2040.0	2017.0	2017.0	2030.0	2030.0	2030.0	2035.0	2035.0	2030.0	2030.0	2030.0	2024.0	2024.0	2025.0	2025.0	2025.0	2043.0	2043.0	2029.0	2029.0	2029.0	2020.0	2020.0	2036.0	2036.0	2036.0	2024.0	2024.0	2014.0	2014.0	2014.0	2032.0	2032.0	2031.0	2031.0	2031.0	2025.0	2025.0	2018.0	2018.0	2018.0	2009.0	2009.0	2005.0	2005.0	2005.0	2026.0	2026.0	2001.0	2001.0	2001.0	2025.0	2025.0	2007.0	2007.0	2007.0	2025.0	2025.0	2007.0	2007.0	2007.0	2017.0	2017.0	2001.0	2001.0	2001.0	1999.0	1999.0	1993.0	1993.0	1993.0	2006.0	2006.0	1996.0	1996.0	1996.0	1986.0	1986.0	1984.0	1984.0	1984.0	1994.0	1994.0	2005.0	2005.0	2005.0	1984.0	1984.0	1999.0	1999.0	1999.0	1992.0	1992.0	1970.0	1970.0	1970.0	1971.0	1971.0	1971.0	1971.0	1971.0	1985.0	1985.0	1945.0	1945.0	1945.0	1978.0	1978.0	1960.0	1960.0	1960.0	1966.0	1966.0	1939.0	1939.0	1939.0	1947.0	1947.0	1960.0	1960.0	1960.0	1937.0	1937.0	1934.0	1934.0	1934.0	1946.0	1946.0	1923.0	1923.0	1923.0	1917.0	1917.0	1920.0	1920.0	1920.0	1908.0	1908.0	1922.0	1922.0	1922.0	1914.0	1914.0	1935.0	1935.0	1921.0	1921.0	1921.0	1914.0	1914.0	1894.0	1894.0	1894.0	1887.0	1887.0	1892.0	1892.0	1892.0	1894.0	1894.0	1877.0	1877.0	1877.0	1868.0	1868.0	1887.0	1887.0	1887.0	1882.0	1882.0	1861.0	1861.0	1861.0	1881.0	1881.0	1881.0	1881.0	1881.0	1874.0	1874.0	1869.0	1869.0	1869.0	1861.0	1861.0	1846.0	1846.0	1846.0	1856.0	1856.0	1844.0	1844.0	1844.0	1854.0	1854.0	1827.0	1827.0	1827.0	1849.0	1849.0	1837.0	1837.0	1837.0	1847.0	1847.0	1821.0	1821.0	1821.0	1830.0	1830.0	1821.0	1821.0	1821.0	1819.0	1819.0	1822.0	1822.0	1822.0	1835.0	1835.0	1817.0	1817.0	1817.0	1815.0	1815.0	1814.0	1814.0	1814.0	1793.0	1793.0	1799.0	1799.0	1799.0	1801.0	1801.0	1794.0	1794.0	1794.0	1816.0	1816.0	1800.0	1800.0	1800.0	1796.0	1796.0	1795.0	1795.0	1795.0	1795.0	1795.0	1768.0	1768.0	1768.0	1796.0	1796.0	1792.0	1792.0	1792.0	1783.0	1783.0	1787.0	1787.0	1787.0	1779.0	1779.0	1781.0	1781.0	1781.0	1782.0	1782.0	1759.0	1759.0	1759.0	1771.0	1771.0	1767.0	1767.0	1767.0	1766.0	1766.0	1777.0	1777.0	1777.0	1754.0	1754.0	1763.0	1763.0	1763.0	1749.0	1749.0	1743.0	1743.0	1743.0	1744.0	1744.0	1747.0	1747.0	1747.0	1754.0	1754.0	1751.0	1751.0	1751.0	1755.0	1755.0	1760.0	1760.0	1760.0	1744.0	1744.0	1753.0	1753.0	1753.0	1736.0	1736.0	1735.0	1735.0	1735.0	1760.0	1760.0	1737.0	1737.0	1737.0	1747.0	1747.0	1745.0	1745.0	1745.0	1736.0	1736.0	1723.0	1723.0	1723.0	1755.0	1755.0	1743.0	1743.0	1743.0	1737.0	1737.0	1760.0	1760.0	1760.0	1742.0	1742.0	1751.0	1751.0	1751.0	1780.0	1780.0	1775.0	1775.0	1800.0	1800.0	1800.0	1805.0	1805.0	1814.0	1814.0	1814.0	1826.0	1826.0	1863.0	1863.0	1863.0	1867.0	1867.0	1881.0	1881.0	1881.0	1904.0	1904.0	1957.0	1957.0	1957.0	1938.0	1938.0	1980.0	1980.0	1980.0	1984.0	1984.0	2032.0	2032.0	2032.0	2049.0	2049.0	2091.0	2091.0	2091.0	2099.0	2099.0	2131.0	2131.0	2131.0	2136.0	2136.0	2175.0	2175.0	2175.0	2204.0	2204.0	2234.0	2234.0	2234.0	2263.0	2263.0	2280.0	2280.0	2280.0	2302.0	2302.0	2313.0	2313.0	2313.0	2327.0	2327.0	2346.0	2346.0	2346.0	2358.0	2358.0	2364.0	2364.0	2364.0	2386.0	2386.0	2409.0	2409.0	2409.0	2421.0	2421.0	2433.0	2433.0	2433.0	2452.0	2452.0	2442.0	2442.0	2442.0	2451.0	2451.0	2472.0	2472.0	2472.0	2471.0	2471.0	2468.0	2468.0	2468.0	2487.0	2487.0	2503.0	2503.0	2503.0	2481.0	2481.0	2478.0	2478.0	2478.0	2489.0	2489.0	2507.0	2507.0	2507.0	2498.0	2498.0	2514.0	2514.0	2514.0	2509.0	2509.0	2494.0	2494.0	2494.0	2486.0	2486.0	2485.0	2485.0	2485.0	2469.0	2469.0	2484.0	2484.0	2484.0	2493.0	2493.0	2478.0	2478.0	2478.0	2480.0	2480.0	2489.0	2489.0	2489.0	2461.0	2461.0	2447.0	2447.0	2447.0	2448.0	2448.0	2467.0	2467.0	2467.0	2459.0	2459.0	2447.0	2447.0	2447.0	2436.0	2436.0	2445.0	2445.0	2445.0	2444.0	2444.0	2433.0	2433.0	2433.0	2426.0	2426.0	2424.0	2424.0	2424.0	2412.0	2412.0	2410.0	2410.0	2410.0	2379.0	2379.0	2383.0	2383.0	2383.0	2384.0	2384.0	2366.0	2366.0	2366.0	2367.0	2367.0	2346.0	2346.0	2346.0	2356.0	2356.0	2333.0	2333.0	2333.0	2326.0	2326.0	2315.0	2315.0	2324.0	2324.0	2324.0	2301.0	2301.0	2308.0	2308.0	2308.0	2265.0	2265.0	2277.0	2277.0	2277.0	2254.0	2254.0	2266.0	2266.0	2266.0	2244.0	2244.0	2231.0	2231.0	2231.0	2228.0	2228.0	2232.0	2232.0	2232.0	2202.0	2202.0	2187.0	2187.0	2187.0	2172.0	2172.0	2175.0	2175.0	2175.0	2146.0	2146.0	2156.0	2156.0	2156.0	2151.0	2151.0	2158.0	2158.0	2158.0	2140.0	2140.0	2130.0	2130.0	2130.0	2121.0	2121.0	2115.0	2115.0	2115.0	2104.0	2104.0	2096.0	2096.0	2096.0	2102.0	2102.0	2080.0	2080.0	2080.0	2059.0	2059.0	2074.0	2074.0	2074.0	2069.0	2069.0	2060.0	2060.0	2060.0	2060.0	2060.0	2035.0	2035.0	2035.0	2048.0	2048.0	2047.0	2047.0	2047.0	2042.0	2042.0	2038.0	2038.0	2038.0	2029.0	2029.0	2039.0	2039.0	2039.0	2036.0	2036.0	2034.0	2034.0	2034.0	2047.0	2047.0	2024.0	2024.0	2024.0	2036.0	2036.0	2049.0	2049.0	2049.0	2034.0	2034.0	2023.0	2023.0	2023.0	2025.0	2025.0	2042.0	2042.0	2042.0	2039.0	2039.0	2023.0	2023.0	2023.0	2039.0	2039.0	2025.0	2025.0	2025.0	2039.0	2039.0	2017.0	2017.0	2017.0	2027.0	2027.0	2040.0	2040.0	2040.0	2021.0	2021.0	2034.0	2034.0	2034.0	2012.0	2012.0	2025.0	2025.0	2025.0	1995.0	1995.0	2019.0	2019.0	2019.0	2017.0	2017.0	2041.0	2041.0	2041.0	2013.0	2013.0	2010.0	2010.0	2010.0	2005.0	2005.0	2003.0	2003.0	2003.0	2010.0	2010.0	2015.0	2015.0	2015.0	2007.0	2007.0	2001.0	2001.0	2001.0	2000.0	2000.0	2002.0	2002.0	2002.0	1989.0	1989.0	2005.0	2005.0	2005.0	2007.0	2007.0	2005.0	2005.0	2005.0	1996.0	1996.0	1993.0	1993.0	1981.0	1981.0	1981.0	1998.0	1998.0	1973.0	1973.0	1973.0	1980.0	1980.0	1967.0	1967.0	1967.0	1970.0	1970.0	1959.0	1959.0	1959.0	1966.0	1966.0	1968.0	1968.0	1968.0	1964.0	1964.0	1963.0	1963.0	1963.0	1949.0	1949.0	1944.0	1944.0	1944.0	1945.0	1945.0	1951.0	1951.0	1951.0	1945.0	1945.0	1921.0	1921.0	1921.0	1945.0	1945.0	1945.0	1945.0	1945.0	1927.0	1927.0	1920.0	1920.0	1920.0	1927.0	1927.0	1943.0	1943.0	1943.0	1927.0	1927.0	1911.0	1911.0	1911.0	1923.0	1923.0	1922.0	1922.0	1922.0	1902.0	1902.0	1912.0	1912.0	1912.0	1904.0	1904.0	1897.0	1897.0	1897.0	1892.0	1892.0	1914.0	