1994.0	1969.0	1969.0	1969.0	1959.0	1959.0	1957.0	1957.0	1957.0	1976.0	1976.0	1975.0	1975.0	1975.0	1952.0	1952.0	1959.0	1959.0	1961.0	1961.0	1961.0	1954.0	1954.0	1937.0	1937.0	1937.0	1943.0	1943.0	1939.0	1939.0	1939.0	1931.0	1931.0	1929.0	1929.0	1929.0	1925.0	1925.0	1916.0	1916.0	1916.0	1933.0	1933.0	1913.0	1913.0	1913.0	1932.0	1932.0	1920.0	1920.0	1920.0	1915.0	1915.0	1898.0	1898.0	1898.0	1902.0	1902.0	1903.0	1903.0	1903.0	1910.0	1910.0	1892.0	1892.0	1892.0	1874.0	1874.0	1884.0	1884.0	1884.0	1888.0	1888.0	1884.0	1884.0	1884.0	1889.0	1889.0	1866.0	1866.0	1866.0	1873.0	1873.0	1878.0	1878.0	1878.0	1861.0	1861.0	1855.0	1855.0	1855.0	1852.0	1852.0	1859.0	1859.0	1859.0	1856.0	1856.0	1857.0	1857.0	1857.0	1841.0	1841.0	1826.0	1826.0	1826.0	1843.0	1843.0	1845.0	1845.0	1845.0	1835.0	1835.0	1851.0	1851.0	1851.0	1841.0	1841.0	1844.0	1844.0	1844.0	1843.0	1843.0	1816.0	1816.0	1816.0	1818.0	1818.0	1812.0	1812.0	1812.0	1815.0	1815.0	1820.0	1820.0	1820.0	1814.0	1814.0	1795.0	1795.0	1795.0	1811.0	1811.0	1815.0	1815.0	1815.0	1806.0	1806.0	1790.0	1790.0	1790.0	1801.0	1801.0	1790.0	1790.0	1790.0	1804.0	1804.0	1784.0	1784.0	1784.0	1792.0	1792.0	1798.0	1798.0	1798.0	1778.0	1778.0	1776.0	1776.0	1776.0	1779.0	1779.0	1785.0	1785.0	1785.0	1775.0	1775.0	1783.0	1783.0	1783.0	1777.0	1777.0	1790.0	1790.0	1790.0	1779.0	1779.0	1783.0	1783.0	1783.0	1787.0	1787.0	1765.0	1765.0	1765.0	1777.0	1777.0	1762.0	1762.0	1762.0	1767.0	1767.0	1773.0	1773.0	1773.0	1762.0	1762.0	1760.0	1760.0	1760.0	1761.0	1761.0	1766.0	1766.0	1766.0	1739.0	1739.0	1774.0	1774.0	1767.0	1767.0	1767.0	1763.0	1763.0	1753.0	1753.0	1753.0	1758.0	1758.0	1755.0	1755.0	1755.0	1755.0	1755.0	1753.0	1753.0	1753.0	1743.0	1743.0	1755.0	1755.0	1755.0	1764.0	1764.0	1762.0	1762.0	1762.0	1752.0	1752.0	1735.0	1735.0	1735.0	1758.0	1758.0	1757.0	1757.0	1757.0	1735.0	1735.0	1747.0	1747.0	1747.0	1732.0	1732.0	1756.0	1756.0	1756.0	1757.0	1757.0	1741.0	1741.0	1741.0	1749.0	1749.0	1762.0	1762.0	1762.0	1731.0	1731.0	1729.0	1729.0	1729.0	1734.0	1734.0	1749.0	1749.0	1749.0	1760.0	1760.0	1734.0	1734.0	1734.0	1738.0	1738.0	1724.0	1724.0	1724.0	1739.0	1739.0	1742.0	1742.0	1742.0	1741.0	1741.0	1728.0	1728.0	1728.0	1737.0	1737.0	1727.0	1727.0	1727.0	1727.0	1727.0	1725.0	1725.0	1725.0	1719.0	1719.0	1727.0	1727.0	1727.0	1728.0	1728.0	1741.0	1741.0	1741.0	1742.0	1742.0	1721.0	1721.0	1721.0	1740.0	1740.0	1736.0	1736.0	1736.0	1713.0	1713.0	1715.0	1715.0	1715.0	1713.0	1713.0	1729.0	1729.0	1729.0	1730.0	1730.0	1730.0	1730.0	1730.0	1736.0	1736.0	1699.0	1699.0	1699.0	1721.0	1721.0	1721.0	1721.0	1721.0	1737.0	1737.0	1713.0	1713.0	1713.0	1710.0	1710.0	1718.0	1718.0	1718.0	1716.0	1716.0	1711.0	1711.0	1711.0	1719.0	1719.0	1720.0	1720.0	1720.0	1711.0	1711.0	1720.0	1720.0	1720.0	1710.0	1710.0	1728.0	1728.0	1728.0	1722.0	1722.0	1712.0	1712.0	1712.0	1715.0	1715.0	1693.0	1693.0	1693.0	1712.0	1712.0	1711.0	1711.0	1711.0	1716.0	1716.0	1735.0	1735.0	1735.0	1729.0	1729.0	1742.0	1742.0	1742.0	1749.0	1749.0	1764.0	1764.0	1768.0	1768.0	1768.0	1782.0	1782.0	1803.0	1803.0	1803.0	1827.0	1827.0	1852.0	1852.0	1852.0	1864.0	1864.0	1886.0	1886.0	1886.0	1924.0	1924.0	1938.0	1938.0	1938.0	1974.0	1974.0	2002.0	2002.0	2002.0	2016.0	2016.0	2030.0	2030.0	2030.0	2077.0	2077.0	2103.0	2103.0	2103.0	2131.0	2131.0	2155.0	2155.0	2155.0	2172.0	2172.0	2172.0	2172.0	2172.0	2205.0	2205.0	2238.0	2238.0	2238.0	2244.0	2244.0	2275.0	2275.0	2275.0	2296.0	2296.0	2317.0	2317.0	2317.0	2324.0	2324.0	2345.0	2345.0	2345.0	2356.0	2356.0	2375.0	2375.0	2375.0	2372.0	2372.0	2383.0	2383.0	2383.0	2393.0	2393.0	2404.0	2404.0	2404.0	2425.0	2425.0	2424.0	2424.0	2424.0	2432.0	2432.0	2471.0	2471.0	2471.0	2444.0	2444.0	2445.0	2445.0	2445.0	2455.0	2455.0	2479.0	2479.0	2479.0	2484.0	2484.0	2475.0	2475.0	2475.0	2478.0	2478.0	2483.0	2483.0	2483.0	2482.0	2482.0	2489.0	2489.0	2489.0	2487.0	2487.0	2492.0	2492.0	2492.0	2485.0	2485.0	2487.0	2487.0	2487.0	2490.0	2490.0	2505.0	2505.0	2505.0	2498.0	2498.0	2499.0	2499.0	2499.0	2491.0	2491.0	2484.0	2484.0	2484.0	2487.0	2487.0	2500.0	2500.0	2500.0	2490.0	2490.0	2490.0	2490.0	2490.0	2478.0	2478.0	2479.0	2479.0	2479.0	2472.0	2472.0	2480.0	2480.0	2480.0	2475.0	2475.0	2476.0	2476.0	2476.0	2468.0	2468.0	2464.0	2464.0	2464.0	2478.0	2478.0	2445.0	2445.0	2445.0	2449.0	2449.0	2459.0	2459.0	2459.0	2447.0	2447.0	2450.0	2450.0	2450.0	2448.0	2448.0	2446.0	2446.0	2446.0	2431.0	2431.0	2455.0	2455.0	2455.0	2425.0	2425.0	2435.0	2435.0	2435.0	2434.0	2434.0	2419.0	2419.0	2423.0	2423.0	2423.0	2422.0	2422.0	2408.0	2408.0	2408.0	2425.0	2425.0	2407.0	2407.0	2407.0	2403.0	2403.0	2406.0	2406.0	2406.0	2383.0	2383.0	2378.0	2378.0	2378.0	2369.0	2369.0	2366.0	2366.0	2366.0	2371.0	2371.0	2360.0	2360.0	2360.0	2340.0	2340.0	2348.0	2348.0	2348.0	2347.0	2347.0	2336.0	2336.0	2336.0	2324.0	2324.0	2328.0	2328.0	2328.0	2317.0	2317.0	2305.0	2305.0	2305.0	2296.0	2296.0	2288.0	2288.0	2288.0	2267.0	2267.0	2269.0	2269.0	2269.0	2259.0	2259.0	2230.0	2230.0	2230.0	2244.0	2244.0	2228.0	2228.0	2228.0	2205.0	2205.0	2203.0	2203.0	2203.0	2204.0	2204.0	2201.0	2201.0	2201.0	2182.0	2182.0	2158.0	2158.0	2158.0	2162.0	2162.0	2160.0	2160.0	2160.0	2151.0	2151.0	2135.0	2135.0	2135.0	2127.0	2127.0	2109.0	2109.0	2109.0	2117.0	2117.0	2104.0	2104.0	2104.0	2091.0	2091.0	2099.0	2099.0	2099.0	2081.0	2081.0	2071.0	2071.0	2071.0	2067.0	2067.0	2069.0	2069.0	2069.0	2054.0	2054.0	2050.0	2050.0	2050.0	2040.0	2040.0	2040.0	2040.0	2040.0	2032.0	2032.0	2055.0	2055.0	2055.0	2035.0	2035.0	2027.0	2027.0	2027.0	2040.0	2040.0	2022.0	2022.0	2022.0	2009.0	2009.0	2019.0	2019.0	2019.0	2007.0	2007.0	2008.0	2008.0	2008.0	2018.0	2018.0	2030.0	2030.0	2030.0	2014.0	2014.0	2012.0	2012.0	2012.0	2011.0	2011.0	2004.0	2004.0	2004.0	2016.0	2016.0	2004.0	2004.0	2004.0	2008.0	2008.0	1983.0	1983.0	1983.0	2002.0	2002.0	2006.0	2006.0	2006.0	1999.0	1999.0	2007.0	2007.0	2007.0	2007.0	2007.0	1981.0	1981.0	1981.0	1978.0	1978.0	1983.0	1983.0	1980.0	1980.0	1980.0	1995.0	1995.0	1975.0	1975.0	1975.0	1967.0	1967.0	1965.0	1965.0	1965.0	1967.0	1967.0	1967.0	1967.0	1967.0	1973.0	1973.0	1951.0	1951.0	1951.0	1955.0	1955.0	1960.0	1960.0	1960.0	1960.0	1960.0	1958.0	1958.0	1958.0	1945.0	1945.0	1944.0	1944.0	1944.0	1938.0	1938.0	1950.0	1950.0	1950.0	1923.0	1923.0	1939.0	1939.0	1939.0	1934.0	1934.0	1939.0	1939.0	1939.0	1923.0	1923.0	1909.0	1909.0	1909.0	1914.0	1914.0	1920.0	1920.0	1920.0	1922.0	1922.0	1912.0	1912.0	1912.0	1909.0	1909.0	1896.0	1896.0	1896.0	1912.0	1912.0	1899.0	1899.0	1899.0	1886.0	1886.0	1892.0	1892.0	1892.0	1889.0	1889.0	1893.0	1893.0	1893.0	1884.0	1884.0	1886.0	1886.0	1886.0	1883.0	1883.0	1881.0	1881.0	1881.0	1863.0	1863.0	1873.0	1873.0	1873.0	1874.0	1874.0	1869.0	1869.0	1869.0	1860.0	1860.0	1870.0	1870.0	1870.0	1831.0	1831.0	1848.0	1848.0	1848.0	1862.0	1862.0	1840.0	1840.0	1840.0	1830.0	1830.0	1840.0	1840.0	1840.0	1832.0	1832.0	1842.0	1842.0	1842.0	1850.0	1850.0	1812.0	1812.0	1812.0	1821.0	1821.0	1806.0	1806.0	1806.0	1821.0	1821.0	1815.0	1815.0	1815.0	1814.0	1814.0	1804.0	1804.0	1804.0	1812.0	1812.0	1816.0	1816.0	1816.0	1794.0	1794.0	1809.0	1809.0	1809.0	1803.0	1803.0	1814.0	1814.0	1814.0	1783.0	1783.0	1792.0	1792.0	1792.0	1790.0	1790.0	1801.0	1801.0	1801.0	1811.0	1811.0	1776.0	1776.0	1776.0	1793.0	1793.0	1783.0	1783.0	1783.0	1792.0	1792.0	1782.0	1782.0	1782.0	1783.0	1783.0	1793.0	1793.0	1793.0	1788.0	1788.0	1780.0	1780.0	1780.0	1766.0	1766.0	1782.0	1782.0	1767.0	1767.0	1767.0	1772.0	1772.0	1759.0	1759.0	1759.0	1783.0	1783.0	1768.0	1768.0	1768.0	1752.0	1752.0	1782.0	1782.0	1782.0	1771.0	1771.0	1779.0	1779.0	1779.0	1761.0	1761.0	1777.0	1777.0	1777.0	1762.0	1762.0	1754.0	1754.0	1754.0	1774.0	1774.0	1768.0	1768.0	1768.0	1758.0	1758.0	1768.0	1768.0	1768.0	1763.0	1763.0	1759.0	1759.0	1759.0	1771.0	1771.0	1772.0	1772.0	1772.0	1756.0	1756.0	1758.0	1758.0	1758.0	1740.0	1740.0	1787.0	1787.0	1787.0	1735.0	1735.0	1777.0	1777.0	1777.0	1752.0	1752.0	1741.0	1741.0	1741.0	1743.0	1743.0	1753.0	1753.0	1753.0	1747.0	1747.0	1770.0	1770.0	1770.0	1765.0	1765.0	1767.0	1767.0	1767.0	1759.0	1759.0	1741.0	1741.0	1741.0	1732.0	1732.0	1754.0	1754.0	1754.0	1743.0	1743.0	1737.0	1737.0	1737.0	1743.0	1743.0	1747.0	1747.0	1747.0	1742.0	1742.0	1760.0	1760.0	1760.0	1760.0	1760.0	1750.0	1750.0	1750.0	1754.0	1754.0	1761.0	1761.0	1761.0	1736.0	1736.0	1739.0	1739.0	1739.0	1740.0	1740.0	1746.0	1746.0	1746.0	1739.0	1739.0	1741.0	1741.0	1741.0	1749.0	1749.0	1746.0	1746.0	1746.0	1752.0	1752.0	1730.0	1730.0	1730.0	1731.0	1731.0	1739.0	1739.0	1739.0	1737.0	1737.0	1743.0	1743.0	1743.0	1738.0	1738.0	1734.0	1734.0	1734.0	1740.0	1740.0	1730.0	1730.0	1730.0	1747.0	1747.0	1736.0	1736.0	1736.0	1728.0	1728.0	1728.0	1728.0	1728.0	1720.0	1720.0	1728.0	1728.0	1728.0	1733.0	1733.0	1718.0	1718.0	1718.0	1724.0	1724.0	1742.0	1742.0	1742.0	1713.0	1713.0	1715.0	1715.0	1715.0	1728.0	1728.0	1709.0	1709.0	1713.0	1713.0	1713.0	1727.0	1727.0	1716.0	1716.0	1716.0	1727.0	1727.0	1729.0	1729.0	1729.0	1738.0	1738.0	1719.0	1719.0	1719.0	1729.0	1729.0	1739.0	1739.0	1739.0	1729.0	1729.0	1740.0	1740.0	1740.0	1736.0	1736.0	1729.0	1729.0	1729.0	1755.0	1755.0	1750.0	1750.0	1750.0	1744.0	1744.0	1773.0	1773.0	1773.0	1788.0	1788.0	1819.0	1819.0	1819.0	1807.0	1807.0	1826.0	1826.0	1826.0	1849.0	1849.0	1881.0	1881.0	1881.0	1898.0	1898.0	1926.0	1926.0	1926.0	1956.0	1956.0	1972.0	1972.0	1972.0	2000.0	2000.0	2036.0	2036.0	2036.0	2065.0	2065.0	2095.0	2095.0	2095.0	2119.0	2119.0	2132.0	2132.0	2132.0	2162.0	2162.0	2209.0	2209.0	2209.0	2219.0	2219.0	2238.0	2238.0	2238.0	2248.0	2248.0	2297.0	2297.0	2297.0	2293.0	2293.0	2315.0	2315.0	2315.0	2330.0	2330.0	2340.0	2340.0	2340.0	2372.0	2372.0	2377.0	2377.0	2377.0	2391.0	2391.0	2406.0	2406.0	2406.0	2413.0	2413.0	2430.0	2430.0	2430.0	2437.0	2437.0	2448.0	2448.0	2448.0	2458.0	2458.0	2472.0	2472.0	2472.0	2487.0	2487.0	2474.0	2474.0	2474.0	2478.0	2478.0	2492.0	2492.0	2492.0	2491.0	2491.0	2507.0	2507.0	2507.0	2492.0	2492.0	2524.0	2524.0	2524.0	2501.0	2501.0	2519.0	2519.0	2519.0	2513.0	2513.0	2512.0	2512.0	2512.0	2526.0	2526.0	2529.0	2529.0	2529.0	2519.0	2519.0	2513.0	2513.0	2513.0	2527.0	2527.0	2530.0	2530.0	2530.0	2519.0	2519.0	2529.0	2529.0	2529.0	2509.0	2509.0	2523.0	2523.0	2523.0	2520.0	2520.0	2519.0	2519.0	2519.0	2510.0	2510.0	2500.0	2500.0	2500.0	2519.0	2519.0	2510.0	2510.0	2500.0	2500.0	2500.0	2521.0	2521.0	2489.0	2489.0	2489.0	2504.0	2504.0	2510.0	2510.0	2510.0	2486.0	2486.0	2487.0	2487.0	2487.0	2478.0	2478.0	2481.0	2481.0	2481.0	2486.0	2486.0	2480.0	2480.0	2480.0	2496.0	2496.0	2483.0	2483.0	2483.0	2458.0	2458.0	2451.0	2451.0	2451.0	2453.0	2453.0	2467.0	2467.0	2467.0	2448.0	2448.0	2448.0	2448.0	2448.0	2439.0	2439.0	2441.0	2441.0	2441.0	2447.0	2447.0	2442.0	2442.0	2442.0	2439.0	2439.0	2410.0	2410.0	2410.0	2426.0	2426.0	2422.0	2422.0	2422.0	2424.0	2424.0	2411.0	2411.0	2411.0	2393.0	2393.0	2391.0	2391.0	2391.0	2389.0	2389.0	2395.0	2395.0	2395.0	2367.0	2367.0	2378.0	2378.0	2378.0	2363.0	2363.0	2359.0	2359.0	2359.0	2352.0	2352.0	2336.0	2336.0	2336.0	2335.0	2335.0	2311.0	2311.0	2311.0	2325.0	2325.0	2308.0	2308.0	2308.0	2303.0	2303.0	2287.0	2287.0	2287.0	2263.0	2263.0	2268.0	2268.0	2268.0	2248.0	2248.0	2249.0	2249.0	2249.0	2229.0	2229.0	2228.0	2228.0	2228.0	2220.0	2220.0	2210.0	2210.0	2210.0	2212.0	2212.0	2197.0	2197.0	2197.0	2170.0	2170.0	2168.0	2168.0	2168.0	2148.0	2148.0	2158.0	2158.0	2158.0	2141.0	2141.0	2121.0	2121.0	2121.0	2115.0	2115.0	2124.0	2124.0	2124.0	2124.0	2124.0	2122.0	2122.0	2122.0	2095.0	2095.0	2079.0	2079.0	2079.0	2084.0	2084.0	2065.0	2065.0	2065.0	2054.0	2054.0	2082.0	2082.0	2082.0	2052.0	2052.0	2066.0	2066.0	2066.0	2057.0	2057.0	2039.0	2039.0	2039.0	2055.0	2055.0	2048.0	2048.0	2048.0	2052.0	2052.0	2028.0	2028.0	2028.0	2029.0	2029.0	2055.0	2055.0	2055.0	2021.0	2021.0	2026.0	2026.0	2047.0	2047.0	2047.0	2038.0	2038.0	2032.0	2032.0	2032.0	2022.0	2022.0	2042.0	2042.0	2042.0	2032.0	2032.0	2019.0	2019.0	2019.0	2035.0	2035.0	2013.0	2013.0	2013.0	2028.0	2028.0	2036.0	2036.0	2036.0	2022.0	2022.0	2008.0	2008.0	2008.0	2010.0	2010.0	2008.0	2008.0	2008.0	2015.0	2015.0	1999.0	1999.0	1999.0	1998.0	1998.0	2020.0	2020.0	2020.0	2021.0	2021.0	2011.0	2011.0	2011.0	2000.0	2000.0	1998.0	1998.0	1998.0	1995.0	1995.0	2000.0	2000.0	2000.0	2005.0	2005.0	1984.0	1984.0	1984.0	1982.0	1982.0	1988.0	1988.0	1988.0	1984.0	1984.0	1983.0	1983.0	1983.0	1966.0	1966.0	1967.0	1967.0	1967.0	1971.0	1971.0	1965.0	1965.0	1965.0	1954.0	1954.0	1977.0	1977.0	1977.0	1960.0	1960.0	1943.0	1943.0	1943.0	1937.0	1937.0	1928.0	1928.0	1928.0	1936.0	1936.0	1939.0	1939.0	1939.0	1922.0	1922.0	1921.0	1921.0	1921.0	1926.0	1926.0	1913.0	1913.0	1913.0	1931.0	1931.0	1930.0	1930.0	1930.0	1904.0	1904.0	1901.0	1901.0	1901.0	1898.0	1898.0	1898.0	1898.0	1898.0	1899.0	1899.0	1887.0	1887.0	1887.0	1883.0	1883.0	1860.0	1860.0	1860.0	1881.0	1881.0	1889.0	1889.0	1889.0	1869.0	1869.0	1889.0	1889.0	1889.0	1873.0	1873.0	1871.0	1871.0	1871.0	1861.0	1861.0	1854.0	1854.0	1854.0	1856.0	1856.0	1848.0	1848.0	1848.0	1850.0	1850.0	1843.0	1843.0	1843.0	1850.0	1850.0	1833.0	1833.0	1833.0	1856.0	1856.0	1838.0	1838.0	1838.0	1852.0	1852.0	1836.0	1836.0	1836.0	1825.0	1825.0	1827.0	1827.0	1827.0	1811.0	1811.0	1823.0	1823.0	1823.0	1828.0	1828.0	1819.0	1819.0	1834.0	1834.0	1834.0	1814.0	1814.0	1825.0	1825.0	1825.0	1812.0	1812.0	1805.0	1805.0	1805.0	1800.0	1800.0	1795.0	1795.0	1795.0	1816.0	1816.0	1822.0	1822.0	1822.0	1811.0	1811.0	1794.0	1794.0	1794.0	1801.0	1801.0	1779.0	1779.0	1779.0	1797.0	1797.0	1793.0	1793.0	1793.0	1795.0	1795.0	1798.0	1798.0	1798.0	1788.0	1788.0	1792.0	1792.0	1792.0	1792.0	1792.0	1781.0	1781.0	1781.0	1787.0	1787.0	1787.0	1787.0	1787.0	1790.0	1790.0	1791.0	1791.0	1791.0	1780.0	1780.0	1782.0	1782.0	1782.0	1793.0	1793.0	1780.0	1780.0	1780.0	1779.0	1779.0	1792.0	1792.0	1792.0	1775.0	1775.0	1784.0	1784.0	1784.0	1771.0	1771.0	1777.0	1777.0	1777.0	1779.0	1779.0	1774.0	1774.0	1774.0	1784.0	1784.0	1763.0	1763.0	1763.0	1783.0	1783.0	1760.0	1760.0	1760.0	1783.0	1783.0	1763.0	1763.0	1763.0	1753.0	1753.0	1784.0	1784.0	1784.0	1761.0	1761.0	1760.0	1760.0	1760.0	1768.0	1768.0	1774.0	1774.0	1774.0	1774.0	1774.0	1755.0	1755.0	1755.0	1766.0	1766.0	1785.0	1785.0	1785.0	1757.0	1757.0	1749.0	1749.0	1749.0	1764.0	1764.0	1769.0	1769.0	1769.0	1752.0	1752.0	1755.0	1755.0	1755.0	1775.0	1775.0	1759.0	1759.0	1759.0	1766.0	1766.0	1785.0	1785.0	1785.0	1763.0	1763.0	1768.0	1768.0	1768.0	1745.0	1745.0	1759.0	1759.0	1759.0	1765.0	1765.0	1767.0	1767.0	1767.0	1763.0	1763.0	1755.0	1755.0	1755.0	1764.0	1764.0	1758.0	1758.0	1758.0	1764.0	1764.0	1750.0	1750.0	1750.0	1762.0	1762.0	1749.0	1749.0	1749.0	1763.0	1763.0	1765.0	1765.0	1765.0	1758.0	1758.0	1755.0	1755.0	1755.0	1739.0	1739.0	1759.0	1759.0	1760.0	1760.0	1760.0	1767.0	1767.0	1746.0	1746.0	1746.0	1730.0	1730.0	1758.0	1758.0	1758.0	1764.0	1764.0	1752.0	1752.0	1752.0	1755.0	1755.0	1754.0	1754.0	1754.0	1755.0	1755.0	1751.0	1751.0	1751.0	1748.0	1748.0	1736.0	1736.0	1736.0	1738.0	1738.0	1745.0	1745.0	1745.0	1729.0	1729.0	1729.0	1729.0	