2097.0	2066.0	2066.0	2024.0	2024.0	2024.0	1984.0	1984.0	1968.0	1968.0	1968.0	1921.0	1921.0	1905.0	1905.0	1905.0	1893.0	1893.0	1883.0	1883.0	1883.0	1853.0	1853.0	1871.0	1871.0	1871.0	1849.0	1849.0	1830.0	1830.0	1830.0	1831.0	1831.0	1829.0	1829.0	1829.0	1801.0	1801.0	1824.0	1824.0	1824.0	1807.0	1807.0	1798.0	1798.0	1798.0	1796.0	1796.0	1783.0	1783.0	1783.0	1792.0	1792.0	1794.0	1794.0	1794.0	1774.0	1774.0	1775.0	1775.0	1775.0	1776.0	1776.0	1781.0	1781.0	1767.0	1767.0	1767.0	1778.0	1778.0	1778.0	1778.0	1778.0	1756.0	1756.0	1771.0	1771.0	1771.0	1767.0	1767.0	1778.0	1778.0	1778.0	1774.0	1774.0	1775.0	1775.0	1775.0	1773.0	1773.0	1767.0	1767.0	1767.0	1771.0	1771.0	1775.0	1775.0	1775.0	1792.0	1792.0	1767.0	1767.0	1767.0	1775.0	1775.0	1790.0	1790.0	1790.0	1792.0	1792.0	1787.0	1787.0	1787.0	1794.0	1794.0	1779.0	1779.0	1779.0	1790.0	1790.0	1781.0	1781.0	1781.0	1793.0	1793.0	1788.0	1788.0	1788.0	1775.0	1775.0	1777.0	1777.0	1777.0	1788.0	1788.0	1791.0	1791.0	1791.0	1779.0	1779.0	1784.0	1784.0	1784.0	1772.0	1772.0	1783.0	1783.0	1783.0	1783.0	1783.0	1770.0	1770.0	1770.0	1761.0	1761.0	1783.0	1783.0	1783.0	1766.0	1766.0	1771.0	1771.0	1771.0	1767.0	1767.0	1782.0	1782.0	1782.0	1770.0	1770.0	1774.0	1774.0	1774.0	1774.0	1774.0	1761.0	1761.0	1761.0	1763.0	1763.0	1760.0	1760.0	1760.0	1757.0	1757.0	1748.0	1748.0	1748.0	1760.0	1760.0	1747.0	1747.0	1747.0	1754.0	1754.0	1754.0	1754.0	1754.0	1753.0	1753.0	1744.0	1744.0	1744.0	1742.0	1742.0	1734.0	1734.0	1734.0	1747.0	1747.0	1728.0	1728.0	1728.0	1738.0	1738.0	1749.0	1749.0	1749.0	1740.0	1740.0	1723.0	1723.0	1723.0	1726.0	1726.0	1716.0	1716.0	1716.0	1717.0	1717.0	1728.0	1728.0	1728.0	1715.0	1715.0	1723.0	1723.0	1723.0	1706.0	1706.0	1714.0	1714.0	1714.0	1731.0	1731.0	1703.0	1703.0	1703.0	1711.0	1711.0	1712.0	1712.0	1712.0	1700.0	1700.0	1716.0	1716.0	1716.0	1699.0	1699.0	1700.0	1700.0	1700.0	1699.0	1699.0	1721.0	1721.0	1689.0	1689.0	1689.0	1692.0	1692.0	1703.0	1703.0	1703.0	1679.0	1679.0	1683.0	1683.0	1683.0	1708.0	1708.0	1701.0	1701.0	1701.0	1690.0	1690.0	1701.0	1701.0	1701.0	1685.0	1685.0	1673.0	1673.0	1673.0	1691.0	1691.0	1668.0	1668.0	1668.0	1707.0	1707.0	1688.0	1688.0	1688.0	1707.0	1707.0	1690.0	1690.0	1690.0	1684.0	1684.0	1684.0	1684.0	1684.0	1675.0	1675.0	1685.0	1685.0	1685.0	1683.0	1683.0	1668.0	1668.0	1668.0	1691.0	1691.0	1685.0	1685.0	1685.0	1683.0	1683.0	1688.0	1688.0	1688.0	1672.0	1672.0	1685.0	1685.0	1685.0	1678.0	1678.0	1696.0	1696.0	1696.0	1691.0	1691.0	1691.0	1691.0	1691.0	1674.0	1674.0	1675.0	1675.0	1675.0	1678.0	1678.0	1694.0	1694.0	1694.0	1675.0	1675.0	1688.0	1688.0	1688.0	1691.0	1691.0	1677.0	1677.0	1677.0	1696.0	1696.0	1681.0	1681.0	1681.0	1710.0	1710.0	1680.0	1680.0	1680.0	1687.0	1687.0	1679.0	1679.0	1679.0	1678.0	1678.0	1695.0	1695.0	1695.0	1677.0	1677.0	1692.0	1692.0	1692.0	1692.0	1692.0	1687.0	1687.0	1687.0	1684.0	1684.0	1700.0	1700.0	1700.0	1688.0	1688.0	1688.0	1688.0	1688.0	1670.0	1670.0	1686.0	1686.0	1686.0	1689.0	1689.0	1701.0	1701.0	1701.0	1698.0	1698.0	1673.0	1673.0	1673.0	1697.0	1697.0	1686.0	1686.0	1686.0	1692.0	1692.0	1685.0	1685.0	1685.0	1688.0	1688.0	1676.0	1676.0	1676.0	1692.0	1692.0	1694.0	1694.0	1694.0	1699.0	1699.0	1686.0	1686.0	1686.0	1681.0	1681.0	1676.0	1676.0	1676.0	1694.0	1694.0	1682.0	1682.0	1682.0	1700.0	1700.0	1681.0	1681.0	1681.0	1688.0	1688.0	1677.0	1677.0	1677.0	1693.0	1693.0	1687.0	1687.0	1676.0	1676.0	1676.0	1695.0	1695.0	1690.0	1690.0	1690.0	1674.0	1674.0	1686.0	1686.0	1686.0	1683.0	1683.0	1700.0	1700.0	1700.0	1679.0	1679.0	1680.0	1680.0	1680.0	1692.0	1692.0	1675.0	1675.0	1675.0	1667.0	1667.0	1665.0	1665.0	1665.0	1678.0	1678.0	1683.0	1683.0	1683.0	1678.0	1678.0	1692.0	1692.0	1692.0	1676.0	1676.0	1672.0	1672.0	1672.0	1685.0	1685.0	1680.0	1680.0	1680.0	1671.0	1671.0	1693.0	1693.0	1693.0	1690.0	1690.0	1692.0	1692.0	1692.0	1683.0	1683.0	1688.0	1688.0	1688.0	1686.0	1686.0	1689.0	1689.0	1689.0	1693.0	1693.0	1687.0	1687.0	1687.0	1703.0	1703.0	1720.0	1720.0	1720.0	1715.0	1715.0	1720.0	1720.0	1720.0	1715.0	1715.0	1753.0	1753.0	1753.0	1760.0	1760.0	1775.0	1775.0	1775.0	1801.0	1801.0	1809.0	1809.0	1809.0	1835.0	1835.0	1850.0	1850.0	1850.0	1858.0	1858.0	1929.0	1929.0	1929.0	1920.0	1920.0	1949.0	1949.0	1949.0	1998.0	1998.0	1992.0	1992.0	1992.0	2033.0	2033.0	2064.0	2064.0	2064.0	2074.0	2074.0	2110.0	2110.0	2110.0	2126.0	2126.0	2137.0	2137.0	2137.0	2174.0	2174.0	2171.0	2171.0	2171.0	2210.0	2210.0	2231.0	2231.0	2231.0	2244.0	2244.0	2283.0	2283.0	2283.0	2291.0	2291.0	2307.0	2307.0	2307.0	2316.0	2316.0	2325.0	2325.0	2325.0	2358.0	2358.0	2367.0	2367.0	2367.0	2369.0	2369.0	2382.0	2382.0	2382.0	2396.0	2396.0	2403.0	2403.0	2403.0	2419.0	2419.0	2435.0	2435.0	2435.0	2435.0	2435.0	2431.0	2431.0	2431.0	2436.0	2436.0	2440.0	2440.0	2440.0	2440.0	2440.0	2468.0	2468.0	2468.0	2453.0	2453.0	2453.0	2453.0	2477.0	2477.0	2477.0	2458.0	2458.0	2457.0	2457.0	2457.0	2464.0	2464.0	2478.0	2478.0	2478.0	2454.0	2454.0	2469.0	2469.0	2469.0	2468.0	2468.0	2472.0	2472.0	2472.0	2482.0	2482.0	2488.0	2488.0	2488.0	2467.0	2467.0	2483.0	2483.0	2483.0	2461.0	2461.0	2471.0	2471.0	2471.0	2460.0	2460.0	2463.0	2463.0	2463.0	2484.0	2484.0	2476.0	2476.0	2476.0	2477.0	2477.0	2457.0	2457.0	2457.0	2463.0	2463.0	2474.0	2474.0	2474.0	2468.0	2468.0	2476.0	2476.0	2476.0	2464.0	2464.0	2462.0	2462.0	2462.0	2474.0	2474.0	2467.0	2467.0	2467.0	2465.0	2465.0	2474.0	2474.0	2474.0	2456.0	2456.0	2445.0	2445.0	2445.0	2446.0	2446.0	2447.0	2447.0	2447.0	2442.0	2442.0	2462.0	2462.0	2462.0	2440.0	2440.0	2431.0	2431.0	2431.0	2425.0	2425.0	2444.0	2444.0	2444.0	2436.0	2436.0	2424.0	2424.0	2424.0	2440.0	2440.0	2440.0	2440.0	2440.0	2421.0	2421.0	2403.0	2403.0	2403.0	2416.0	2416.0	2415.0	2415.0	2415.0	2407.0	2407.0	2419.0	2419.0	2419.0	2394.0	2394.0	2388.0	2388.0	2388.0	2387.0	2387.0	2389.0	2389.0	2389.0	2385.0	2385.0	2376.0	2376.0	2376.0	2370.0	2370.0	2369.0	2369.0	2369.0	2344.0	2344.0	2351.0	2351.0	2351.0	2341.0	2341.0	2321.0	2321.0	2321.0	2308.0	2308.0	2318.0	2318.0	2318.0	2308.0	2308.0	2303.0	2303.0	2303.0	2297.0	2297.0	2282.0	2282.0	2282.0	2294.0	2294.0	2272.0	2272.0	2272.0	2275.0	2275.0	2254.0	2254.0	2254.0	2241.0	2241.0	2241.0	2241.0	2241.0	2233.0	2233.0	2222.0	2222.0	2222.0	2209.0	2209.0	2190.0	2190.0	2190.0	2173.0	2173.0	2154.0	2154.0	2154.0	2140.0	2140.0	2157.0	2157.0	2147.0	2147.0	2147.0	2147.0	2147.0	2117.0	2117.0	2117.0	2107.0	2107.0	2108.0	2108.0	2108.0	2109.0	2109.0	2099.0	2099.0	2099.0	2083.0	2083.0	2083.0	2083.0	2083.0	2081.0	2081.0	2059.0	2059.0	2059.0	2060.0	2060.0	2056.0	2056.0	2056.0	2063.0	2063.0	2048.0	2048.0	2048.0	2052.0	2052.0	2030.0	2030.0	2030.0	2028.0	2028.0	2036.0	2036.0	2036.0	2039.0	2039.0	2022.0	2022.0	2022.0	2029.0	2029.0	2008.0	2008.0	2008.0	2027.0	2027.0	2022.0	2022.0	2022.0	2022.0	2022.0	2020.0	2020.0	2020.0	2029.0	2029.0	2008.0	2008.0	2008.0	1999.0	1999.0	2011.0	2011.0	2011.0	2002.0	2002.0	1985.0	1985.0	1985.0	1984.0	1984.0	1995.0	1995.0	1995.0	1992.0	1992.0	1995.0	1995.0	1995.0	1998.0	1998.0	1983.0	1983.0	1983.0	1965.0	1965.0	1970.0	1970.0	1970.0	1987.0	1987.0	1995.0	1995.0	1995.0	1983.0	1983.0	1987.0	1987.0	1987.0	1975.0	1975.0	1949.0	1949.0	1949.0	1950.0	1950.0	1966.0	1966.0	1966.0	1938.0	1938.0	1953.0	1953.0	1953.0	1953.0	1953.0	1956.0	1956.0	1956.0	1949.0	1949.0	1942.0	1942.0	1942.0	1933.0	1933.0	1935.0	1935.0	1935.0	1921.0	1921.0	1911.0	1911.0	1911.0	1928.0	1928.0	1918.0	1918.0	1918.0	1898.0	1898.0	1899.0	1899.0	1899.0	1915.0	1915.0	1901.0	1901.0	1901.0	1911.0	1911.0	1888.0	1888.0	1888.0	1882.0	1882.0	1886.0	1886.0	1886.0	1875.0	1875.0	1891.0	1891.0	1891.0	1870.0	1870.0	1870.0	1870.0	1870.0	1879.0	1879.0	1848.0	1848.0	1848.0	1862.0	1862.0	1855.0	1855.0	1855.0	1867.0	1867.0	1855.0	1855.0	1855.0	1842.0	1842.0	1861.0	1861.0	1854.0	1854.0	1854.0	1841.0	1841.0	1832.0	1832.0	1832.0	1830.0	1830.0	1825.0	1825.0	1825.0	1830.0	1830.0	1839.0	1839.0	1839.0	1831.0	1831.0	1808.0	1808.0	1808.0	1820.0	1820.0	1808.0	1808.0	1808.0	1811.0	1811.0	1800.0	1800.0	1800.0	1810.0	1810.0	1789.0	1789.0	1789.0	1807.0	1807.0	1807.0	1807.0	1807.0	1800.0	1800.0	1781.0	1781.0	1781.0	1800.0	1800.0	1793.0	1793.0	1793.0	1792.0	1792.0	1776.0	1776.0	1776.0	1784.0	1784.0	1790.0	1790.0	1790.0	1788.0	1788.0	1769.0	1769.0	1769.0	1770.0	1770.0	1763.0	1763.0	1763.0	1769.0	1769.0	1782.0	1782.0	1782.0	1786.0	1786.0	1785.0	1785.0	1785.0	1791.0	1791.0	1763.0	1763.0	1763.0	1762.0	1762.0	1764.0	1764.0	1764.0	1758.0	1758.0	1757.0	1757.0	1757.0	1759.0	1759.0	1773.0	1773.0	1773.0	1782.0	1782.0	1743.0	1743.0	1743.0	1745.0	1745.0	1758.0	1758.0	1758.0	1745.0	1745.0	1747.0	1747.0	1747.0	1759.0	1759.0	1762.0	1762.0	1762.0	1746.0	1746.0	1736.0	1736.0	1736.0	1746.0	1746.0	1742.0	1742.0	1742.0	1752.0	1752.0	1748.0	1748.0	1748.0	1737.0	1737.0	1748.0	1748.0	1748.0	1750.0	1750.0	1741.0	1741.0	1741.0	1750.0	1750.0	1731.0	1731.0	1731.0	1737.0	1737.0	1729.0	1729.0	1729.0	1743.0	1743.0	1726.0	1726.0	1726.0	1740.0	1740.0	1741.0	1741.0	1741.0	1738.0	1738.0	1741.0	1741.0	1741.0	1748.0	1748.0	1743.0	1743.0	1743.0	1736.0	1736.0	1735.0	1735.0	1735.0	1736.0	1736.0	1746.0	1746.0	1746.0	1731.0	1731.0	1735.0	1735.0	1735.0	1746.0	1746.0	1733.0	1733.0	1733.0	1743.0	1743.0	1732.0	1732.0	1731.0	1731.0	1731.0	1726.0	1726.0	1748.0	1748.0	1748.0	1734.0	1734.0	1726.0	1726.0	1726.0	1733.0	1733.0	1737.0	1737.0	1737.0	1727.0	1727.0	1747.0	1747.0	1747.0	1728.0	1728.0	1715.0	1715.0	1715.0	1725.0	1725.0	1723.0	1723.0	1723.0	1711.0	1711.0	1721.0	1721.0	1721.0	1699.0	1699.0	1719.0	1719.0	1719.0	1708.0	1708.0	1708.0	1708.0	1708.0	1714.0	1714.0	1715.0	1715.0	1715.0	1720.0	1720.0	1734.0	1734.0	1734.0	1727.0	1727.0	1727.0	1727.0	1727.0	1723.0	1723.0	1717.0	1717.0	1717.0	1739.0	1739.0	1717.0	1717.0	1717.0	1705.0	1705.0	1736.0	1736.0	1736.0	1719.0	1719.0	1714.0	1714.0	1714.0	1713.0	1713.0	1712.0	1712.0	1712.0	1694.0	1694.0	1712.0	1712.0	1712.0	1714.0	1714.0	1709.0	1709.0	1709.0	1715.0	1715.0	1700.0	1700.0	1700.0	1705.0	1705.0	1703.0	1703.0	1703.0	1707.0	1707.0	1703.0	1703.0	1703.0	1710.0	1710.0	1726.0	1726.0	1726.0	1705.0	1705.0	1722.0	1722.0	1722.0	1735.0	1735.0	1735.0	1735.0	1735.0	1741.0	1741.0	1740.0	1740.0	1740.0	1747.0	1747.0	1767.0	1767.0	1767.0	1761.0	1761.0	1776.0	1776.0	1776.0	1795.0	1795.0	1822.0	1822.0	1822.0	1842.0	1842.0	1858.0	1858.0	1858.0	1868.0	1868.0	1917.0	1917.0	1917.0	1935.0	1935.0	1954.0	1954.0	1954.0	1967.0	1967.0	2004.0	2004.0	2004.0	2016.0	2016.0	2065.0	2065.0	2065.0	2081.0	2081.0	2107.0	2107.0	2107.0	2123.0	2123.0	2148.0	2148.0	2148.0	2174.0	2174.0	2173.0	2173.0	2173.0	2191.0	2191.0	2218.0	2218.0	2218.0	2237.0	2237.0	2248.0	2248.0	2248.0	2264.0	2264.0	2272.0	2272.0	2272.0	2307.0	2307.0	2304.0	2304.0	2334.0	2334.0	2334.0	2336.0	2336.0	2350.0	2350.0	2350.0	2357.0	2357.0	2358.0	2358.0	2358.0	2370.0	2370.0	2368.0	2368.0	2368.0	2400.0	2400.0	2395.0	2395.0	2395.0	2387.0	2387.0	2410.0	2410.0	2410.0	2410.0	2410.0	2412.0	2412.0	2412.0	2412.0	2412.0	2412.0	2412.0	2412.0	2427.0	2427.0	2421.0	2421.0	2421.0	2410.0	2410.0	2438.0	2438.0	2438.0	2428.0	2428.0	2431.0	2431.0	2431.0	2423.0	2423.0	2434.0	2434.0	2434.0	2442.0	2442.0	2429.0	2429.0	2429.0	2426.0	2426.0	2441.0	2441.0	2441.0	2432.0	2432.0	2437.0	2437.0	2437.0	2432.0	2432.0	2432.0	2432.0	2432.0	2426.0	2426.0	2421.0	2421.0	2421.0	2425.0	2425.0	2431.0	2431.0	2431.0	2423.0	2423.0	2434.0	2434.0	2434.0	2417.0	2417.0	2423.0	2423.0	2423.0	2428.0	2428.0	2420.0	2420.0	2420.0	2416.0	2416.0	2422.0	2422.0	2422.0	2414.0	2414.0	2413.0	2413.0	2413.0	2403.0	2403.0	2421.0	2421.0	2421.0	2399.0	2399.0	2402.0	2402.0	2402.0	2400.0	2400.0	2402.0	2402.0	2402.0	2390.0	2390.0	2396.0	2396.0	2396.0	2407.0	2407.0	2395.0	2395.0	2395.0	2382.0	2382.0	2383.0	2383.0	2383.0	2376.0	2376.0	2378.0	2378.0	2378.0	2376.0	2376.0	2376.0	2376.0	2376.0	2383.0	2383.0	2358.0	2358.0	2358.0	2364.0	2364.0	2361.0	2361.0	2361.0	2352.0	2352.0	2353.0	2353.0	2353.0	2340.0	2340.0	2356.0	2356.0	2356.0	2337.0	2337.0	2335.0	2335.0	2335.0	2322.0	2322.0	2333.0	2333.0	2333.0	2308.0	2308.0	2300.0	2300.0	2300.0	2301.0	2301.0	2287.0	2287.0	2287.0	2286.0	2286.0	2282.0	2282.0	2282.0	2283.0	2283.0	2268.0	2268.0	2257.0	2257.0	2257.0	2258.0	2258.0	2247.0	2247.0	2247.0	2231.0	2231.0	2231.0	2231.0	2231.0	2202.0	2202.0	2203.0	2203.0	2203.0	2212.0	2212.0	2191.0	2191.0	2191.0	2186.0	2186.0	2197.0	2197.0	2197.0	2166.0	2166.0	2157.0	2157.0	2157.0	2145.0	2145.0	2128.0	2128.0	2128.0	2133.0	2133.0	2131.0	2131.0	2131.0	2123.0	2123.0	2114.0	2114.0	2114.0	2108.0	2108.0	2086.0	2086.0	2086.0	2082.0	2082.0	2056.0	2056.0	2056.0	2049.0	2049.0	2064.0	2064.0	2064.0	2067.0	2067.0	2071.0	2071.0	2071.0	2041.0	2041.0	2043.0	2043.0	2043.0	2024.0	2024.0	2012.0	2012.0	2012.0	2007.0	2007.0	2022.0	2022.0	2022.0	2008.0	2008.0	2007.0	2007.0	2007.0	2008.0	2008.0	1997.0	1997.0	1997.0	2002.0	2002.0	1998.0	1998.0	1998.0	1995.0	1995.0	1989.0	1989.0	1989.0	1987.0	1987.0	1985.0	1985.0	1985.0	1985.0	1985.0	1983.0	1983.0	1983.0	1978.0	1978.0	1983.0	1983.0	1983.0	1975.0	1975.0	1989.0	1989.0	1989.0	1982.0	1982.0	1974.0	1974.0	1974.0	1967.0	1967.0	1968.0	1968.0	1968.0	1984.0	1984.0	1963.0	1963.0	1963.0	1975.0	1975.0	1965.0	1965.0	1965.0	1961.0	1961.0	1978.0	1978.0	1978.0	1955.0	1955.0	1957.0	1957.0	1957.0	1955.0	1955.0	1951.0	1951.0	1951.0	1943.0	1943.0	1939.0	1939.0	1939.0	1948.0	1948.0	1937.0	1937.0	1937.0	1937.0	1937.0	1937.0	1937.0	1937.0	1928.0	1928.0	1947.0	1947.0	1947.0	1932.0	1932.0	1925.0	1925.0	1925.0	1918.0	1918.0	1918.0	1918.0	1918.0	1925.0	1925.0	1909.0	1909.0	1909.0	1893.0	1893.0	1893.0	1893.0	1893.0	1903.0	1903.0	1904.0	1904.0	1899.0	1899.0	1899.0	1889.0	1889.0	1891.0	1891.0	1891.0	1891.0	1891.0	1881.0	1881.0	1881.0	1857.0	1857.0	1869.0	1869.0	1869.0	1864.0	1864.0	1856.0	1856.0	1856.0	1865.0	1865.0	1851.0	1851.0	1851.0	1847.0	1847.0	1862.0	1862.0	1862.0	1848.0	1848.0	1848.0	1848.0	1848.0	1840.0	1840.0	1855.0	1855.0	1855.0	1827.0	1827.0	1827.0	1827.0	1827.0	1821.0	1821.0	1839.0	1839.0	1839.0	1838.0	1838.0	1829.0	1829.0	1829.0	1829.0	1829.0	1806.0	1806.0	1806.0	1812.0	1812.0	1812.0	1812.0	1812.0	1824.0	1824.0	1804.0	1804.0	1804.0	1803.0	1803.0	1814.0	1814.0	1814.0	1800.0	1800.0	1808.0	1808.0	1808.0	1792.0	1792.0	1790.0	1790.0	1790.0	1777.0	1777.0	1787.0	1787.0	1787.0	1805.0	1805.0	1783.0	1783.0	1783.0	1781.0	1781.0	1781.0	1781.0	1781.0	1787.0	1787.0	1781.0	1781.0	1781.0	1774.0	1774.0	1768.0	1768.0	1768.0	1787.0	1787.0	1791.0	1791.0	1791.0	1767.0	1767.0	1782.0	1782.0	1782.0	1759.0	1759.0	1784.0	1784.0	1784.0	1774.0	1774.0	1781.0	1781.0	1781.0	1760.0	1760.0	1768.0	1768.0	1768.0	1759.0	1759.0	1757.0	1757.0	1757.0	1784.0	1784.0	1758.0	1758.0	1758.0	1755.0	1755.0	1774.0	1774.0	1774.0	1763.0	1763.0	1766.0	1766.0	1766.0	1748.0	1748.0	1748.0	1748.0	1748.0	1759.0	1759.0	1771.0	1771.0	1771.0	1748.0	1748.0	1750.0	1750.0	1750.0	1748.0	1748.0	1751.0	1751.0	1751.0	1767.0	1767.0	1766.0	1766.0	1766.0	1758.0	1758.0	1778.0	1778.0	1778.0	1771.0	1771.0	1746.0	1746.0	1746.0	1752.0	1752.0	1742.0	1742.0	1742.0	1734.0	1734.0	1757.0	1757.0	