1805.0	1805.0	1748.0	1748.0	1665.0	1665.0	1665.0	1654.0	1654.0	1608.0	1608.0	1608.0	1621.0	1621.0	1558.0	1558.0	1558.0	1552.0	1552.0	1563.0	1563.0	1563.0	1537.0	1537.0	1544.0	1544.0	1544.0	1519.0	1519.0	1535.0	1535.0	1535.0	1544.0	1544.0	1540.0	1540.0	1540.0	1561.0	1561.0	1514.0	1514.0	1514.0	1533.0	1533.0	1543.0	1543.0	1543.0	1530.0	1530.0	1544.0	1544.0	1544.0	1525.0	1525.0	1525.0	1525.0	1525.0	1569.0	1569.0	1547.0	1547.0	1547.0	1533.0	1533.0	1541.0	1541.0	1541.0	1561.0	1561.0	1542.0	1542.0	1542.0	1579.0	1579.0	1582.0	1582.0	1582.0	1580.0	1580.0	1584.0	1584.0	1570.0	1570.0	1570.0	1572.0	1572.0	1580.0	1580.0	1580.0	1558.0	1558.0	1590.0	1590.0	1590.0	1564.0	1564.0	1585.0	1585.0	1585.0	1582.0	1582.0	1579.0	1579.0	1579.0	1589.0	1589.0	1579.0	1579.0	1579.0	1590.0	1590.0	1603.0	1603.0	1603.0	1560.0	1560.0	1563.0	1563.0	1563.0	1592.0	1592.0	1573.0	1573.0	1573.0	1556.0	1556.0	1554.0	1554.0	1554.0	1581.0	1581.0	1607.0	1607.0	1607.0	1598.0	1598.0	1557.0	1557.0	1557.0	1588.0	1588.0	1569.0	1569.0	1569.0	1558.0	1558.0	1601.0	1601.0	1601.0	1575.0	1575.0	1585.0	1585.0	1585.0	1584.0	1584.0	1598.0	1598.0	1598.0	1576.0	1576.0	1588.0	1588.0	1588.0	1560.0	1560.0	1604.0	1604.0	1604.0	1572.0	1572.0	1564.0	1564.0	1564.0	1589.0	1589.0	1573.0	1573.0	1573.0	1625.0	1625.0	1598.0	1598.0	1598.0	1608.0	1608.0	1601.0	1601.0	1601.0	1589.0	1589.0	1597.0	1597.0	1597.0	1589.0	1589.0	1613.0	1613.0	1613.0	1581.0	1581.0	1626.0	1626.0	1626.0	1599.0	1599.0	1595.0	1595.0	1595.0	1597.0	1597.0	1599.0	1599.0	1599.0	1615.0	1615.0	1637.0	1637.0	1637.0	1621.0	1621.0	1624.0	1624.0	1624.0	1596.0	1596.0	1606.0	1606.0	1606.0	1600.0	1600.0	1628.0	1628.0	1628.0	1637.0	1637.0	1622.0	1622.0	1622.0	1608.0	1608.0	1629.0	1629.0	1629.0	1627.0	1627.0	1655.0	1655.0	1655.0	1626.0	1626.0	1639.0	1639.0	1639.0	1625.0	1625.0	1595.0	1595.0	1595.0	1630.0	1630.0	1613.0	1613.0	1613.0	1647.0	1647.0	1603.0	1603.0	1603.0	1634.0	1634.0	1606.0	1606.0	1606.0	1608.0	1608.0	1639.0	1639.0	1639.0	1594.0	1594.0	1617.0	1617.0	1610.0	1610.0	1610.0	1632.0	1632.0	1639.0	1639.0	1639.0	1663.0	1663.0	1620.0	1620.0	1620.0	1624.0	1624.0	1642.0	1642.0	1642.0	1644.0	1644.0	1654.0	1654.0	1654.0	1662.0	1662.0	1675.0	1675.0	1675.0	1649.0	1649.0	1648.0	1648.0	1648.0	1661.0	1661.0	1674.0	1674.0	1674.0	1670.0	1670.0	1661.0	1661.0	1661.0	1657.0	1657.0	1663.0	1663.0	1663.0	1639.0	1639.0	1646.0	1646.0	1646.0	1659.0	1659.0	1683.0	1683.0	1683.0	1667.0	1667.0	1633.0	1633.0	1633.0	1669.0	1669.0	1676.0	1676.0	1676.0	1699.0	1699.0	1663.0	1663.0	1663.0	1679.0	1679.0	1680.0	1680.0	1680.0	1669.0	1669.0	1665.0	1665.0	1665.0	1701.0	1701.0	1696.0	1696.0	1696.0	1712.0	1712.0	1702.0	1702.0	1702.0	1734.0	1734.0	1742.0	1742.0	1742.0	1739.0	1739.0	1761.0	1761.0	1761.0	1797.0	1797.0	1811.0	1811.0	1811.0	1826.0	1826.0	1856.0	1856.0	1856.0	1839.0	1839.0	1867.0	1867.0	1867.0	1911.0	1911.0	1927.0	1927.0	1927.0	1921.0	1921.0	1948.0	1948.0	1948.0	1983.0	1983.0	1999.0	1999.0	1999.0	1976.0	1976.0	1986.0	1986.0	1986.0	2054.0	2054.0	2039.0	2039.0	2039.0	2067.0	2067.0	2047.0	2047.0	2047.0	2060.0	2060.0	2073.0	2073.0	2073.0	2079.0	2079.0	2117.0	2117.0	2117.0	2128.0	2128.0	2134.0	2134.0	2134.0	2136.0	2136.0	2183.0	2183.0	2183.0	2193.0	2193.0	2194.0	2194.0	2194.0	2215.0	2215.0	2188.0	2188.0	2188.0	2198.0	2198.0	2194.0	2194.0	2194.0	2236.0	2236.0	2224.0	2224.0	2224.0	2259.0	2259.0	2239.0	2239.0	2239.0	2269.0	2269.0	2257.0	2257.0	2257.0	2275.0	2275.0	2289.0	2289.0	2289.0	2254.0	2254.0	2266.0	2266.0	2277.0	2277.0	2277.0	2267.0	2267.0	2271.0	2271.0	2271.0	2295.0	2295.0	2298.0	2298.0	2298.0	2281.0	2281.0	2278.0	2278.0	2278.0	2303.0	2303.0	2311.0	2311.0	2311.0	2299.0	2299.0	2287.0	2287.0	2287.0	2324.0	2324.0	2326.0	2326.0	2326.0	2314.0	2314.0	2305.0	2305.0	2305.0	2309.0	2309.0	2306.0	2306.0	2306.0	2324.0	2324.0	2310.0	2310.0	2310.0	2337.0	2337.0	2327.0	2327.0	2327.0	2327.0	2327.0	2325.0	2325.0	2325.0	2316.0	2316.0	2301.0	2301.0	2301.0	2317.0	2317.0	2300.0	2300.0	2300.0	2273.0	2273.0	2291.0	2291.0	2291.0	2304.0	2304.0	2296.0	2296.0	2296.0	2274.0	2274.0	2264.0	2264.0	2264.0	2268.0	2268.0	2238.0	2238.0	2238.0	2264.0	2264.0	2275.0	2275.0	2275.0	2228.0	2228.0	2217.0	2217.0	2217.0	2221.0	2221.0	2214.0	2214.0	2214.0	2217.0	2217.0	2225.0	2225.0	2225.0	2215.0	2215.0	2204.0	2204.0	2204.0	2168.0	2168.0	2191.0	2191.0	2191.0	2198.0	2198.0	2144.0	2144.0	2144.0	2169.0	2169.0	2163.0	2163.0	2163.0	2124.0	2124.0	2154.0	2154.0	2154.0	2134.0	2134.0	2122.0	2122.0	2122.0	2097.0	2097.0	2122.0	2122.0	2122.0	2115.0	2115.0	2099.0	2099.0	2099.0	2062.0	2062.0	2063.0	2063.0	2063.0	2081.0	2081.0	2068.0	2068.0	2068.0	2058.0	2058.0	2024.0	2024.0	2024.0	2003.0	2003.0	2038.0	2038.0	2038.0	2033.0	2033.0	2001.0	2001.0	2001.0	2008.0	2008.0	2015.0	2015.0	2015.0	1976.0	1976.0	1979.0	1979.0	1979.0	1986.0	1986.0	1970.0	1970.0	1970.0	1949.0	1949.0	1947.0	1947.0	1947.0	1959.0	1959.0	1964.0	1964.0	1964.0	1921.0	1921.0	1955.0	1955.0	1944.0	1944.0	1944.0	1947.0	1947.0	1936.0	1936.0	1936.0	1937.0	1937.0	1931.0	1931.0	1931.0	1946.0	1946.0	1938.0	1938.0	1938.0	1902.0	1902.0	1934.0	1934.0	1934.0	1896.0	1896.0	1931.0	1931.0	1931.0	1905.0	1905.0	1934.0	1934.0	1934.0	1903.0	1903.0	1880.0	1880.0	1880.0	1899.0	1899.0	1924.0	1924.0	1924.0	1901.0	1901.0	1875.0	1875.0	1875.0	1855.0	1855.0	1894.0	1894.0	1894.0	1864.0	1864.0	1878.0	1878.0	1878.0	1888.0	1888.0	1876.0	1876.0	1876.0	1907.0	1907.0	1888.0	1888.0	1888.0	1874.0	1874.0	1863.0	1863.0	1863.0	1859.0	1859.0	1896.0	1896.0	1896.0	1852.0	1852.0	1878.0	1878.0	1878.0	1852.0	1852.0	1851.0	1851.0	1851.0	1889.0	1889.0	1874.0	1874.0	1874.0	1875.0	1875.0	1863.0	1863.0	1863.0	1878.0	1878.0	1867.0	1867.0	1867.0	1829.0	1829.0	1833.0	1833.0	1833.0	1848.0	1848.0	1856.0	1856.0	1856.0	1864.0	1864.0	1837.0	1837.0	1837.0	1848.0	1848.0	1842.0	1842.0	1842.0	1849.0	1849.0	1839.0	1839.0	1839.0	1833.0	1833.0	1816.0	1816.0	1816.0	1825.0	1825.0	1813.0	1813.0	1813.0	1817.0	1817.0	1829.0	1829.0	1829.0	1845.0	1845.0	1825.0	1825.0	1825.0	1824.0	1824.0	1831.0	1831.0	1831.0	1799.0	1799.0	1831.0	1831.0	1831.0	1807.0	1807.0	1826.0	1826.0	1826.0	1814.0	1814.0	1805.0	1805.0	1805.0	1816.0	1816.0	1836.0	1836.0	1836.0	1831.0	1831.0	1811.0	1811.0	1811.0	1782.0	1782.0	1813.0	1813.0	1813.0	1804.0	1804.0	1792.0	1792.0	1792.0	1761.0	1761.0	1779.0	1779.0	1779.0	1805.0	1805.0	1785.0	1785.0	1785.0	1789.0	1789.0	1775.0	1775.0	1796.0	1796.0	1796.0	1765.0	1765.0	1793.0	1793.0	1793.0	1768.0	1768.0	1805.0	1805.0	1805.0	1789.0	1789.0	1782.0	1782.0	1782.0	1755.0	1755.0	1795.0	1795.0	1795.0	1780.0	1780.0	1761.0	1761.0	1761.0	1763.0	1763.0	1788.0	1788.0	1788.0	1750.0	1750.0	1787.0	1787.0	1787.0	1757.0	1757.0	1758.0	1758.0	1758.0	1764.0	1764.0	1764.0	1764.0	1764.0	1772.0	1772.0	1788.0	1788.0	1788.0	1736.0	1736.0	1764.0	1764.0	1764.0	1752.0	1752.0	1753.0	1753.0	1753.0	1766.0	1766.0	1785.0	1785.0	1785.0	1753.0	1753.0	1765.0	1765.0	1765.0	1785.0	1785.0	1772.0	1772.0	1772.0	1762.0	1762.0	1768.0	1768.0	1768.0	1746.0	1746.0	1753.0	1753.0	1753.0	1776.0	1776.0	1775.0	1775.0	1775.0	1742.0	1742.0	1767.0	1767.0	1767.0	1781.0	1781.0	1737.0	1737.0	1737.0	1737.0	1737.0	1753.0	1753.0	1753.0	1760.0	1760.0	1740.0	1740.0	1740.0	1747.0	1747.0	1766.0	1766.0	1766.0	1776.0	1776.0	1736.0	1736.0	1736.0	1771.0	1771.0	1748.0	1748.0	1748.0	1776.0	1776.0	1744.0	1744.0	1744.0	1760.0	1760.0	1750.0	1750.0	1750.0	1737.0	1737.0	1746.0	1746.0	1746.0	1739.0	1739.0	1772.0	1772.0	1772.0	1759.0	1759.0	1746.0	1746.0	1746.0	1715.0	1715.0	1726.0	1726.0	1726.0	1758.0	1758.0	1749.0	1749.0	1749.0	1712.0	1712.0	1739.0	1739.0	1739.0	1747.0	1747.0	1726.0	1726.0	1726.0	1772.0	1772.0	1760.0	1760.0	1760.0	1756.0	1756.0	1738.0	1738.0	1738.0	1748.0	1748.0	1774.0	1774.0	1774.0	1757.0	1757.0	1739.0	1739.0	1739.0	1734.0	1734.0	1760.0	1760.0	1760.0	1750.0	1750.0	1758.0	1758.0	1758.0	1736.0	1736.0	1751.0	1751.0	1755.0	1755.0	1755.0	1741.0	1741.0	1720.0	1720.0	1720.0	1747.0	1747.0	1713.0	1713.0	1713.0	1753.0	1753.0	1742.0	1742.0	1742.0	1740.0	1740.0	1760.0	1760.0	1760.0	1748.0	1748.0	1780.0	1780.0	1780.0	1764.0	1764.0	1755.0	1755.0	1755.0	1796.0	1796.0	1769.0	1769.0	1769.0	1811.0	1811.0	1792.0	1792.0	1792.0	1812.0	1812.0	1838.0	1838.0	1838.0	1814.0	1814.0	1847.0	1847.0	1847.0	1867.0	1867.0	1867.0	1867.0	1867.0	1884.0	1884.0	1878.0	1878.0	1878.0	1934.0	1934.0	1920.0	1920.0	1920.0	1976.0	1976.0	1994.0	1994.0	1994.0	1973.0	1973.0	1987.0	1987.0	1987.0	1999.0	1999.0	2002.0	2002.0	2002.0	2056.0	2056.0	2070.0	2070.0	2070.0	2069.0	2069.0	2055.0	2055.0	2055.0	2079.0	2079.0	2128.0	2128.0	2128.0	2116.0	2116.0	2127.0	2127.0	2127.0	2140.0	2140.0	2174.0	2174.0	2174.0	2163.0	2163.0	2175.0	2175.0	2175.0	2231.0	2231.0	2188.0	2188.0	2188.0	2239.0	2239.0	2217.0	2217.0	2217.0	2243.0	2243.0	2255.0	2255.0	2255.0	2265.0	2265.0	2275.0	2275.0	2275.0	2254.0	2254.0	2272.0	2272.0	2272.0	2307.0	2307.0	2289.0	2289.0	2289.0	2310.0	2310.0	2302.0	2302.0	2302.0	2317.0	2317.0	2328.0	2328.0	2328.0	2327.0	2327.0	2301.0	2301.0	2301.0	2320.0	2320.0	2332.0	2332.0	2332.0	2344.0	2344.0	2361.0	2361.0	2361.0	2334.0	2334.0	2361.0	2361.0	2361.0	2366.0	2366.0	2331.0	2331.0	2331.0	2327.0	2327.0	2324.0	2324.0	2324.0	2335.0	2335.0	2360.0	2360.0	2360.0	2328.0	2328.0	2359.0	2359.0	2359.0	2337.0	2337.0	2349.0	2349.0	2349.0	2331.0	2331.0	2346.0	2346.0	2356.0	2356.0	2356.0	2352.0	2352.0	2321.0	2321.0	2321.0	2331.0	2331.0	2315.0	2315.0	2315.0	2340.0	2340.0	2327.0	2327.0	2327.0	2308.0	2308.0	2348.0	2348.0	2348.0	2314.0	2314.0	2312.0	2312.0	2312.0	2322.0	2322.0	2303.0	2303.0	2303.0	2298.0	2298.0	2318.0	2318.0	2318.0	2318.0	2318.0	2303.0	2303.0	2303.0	2288.0	2288.0	2303.0	2303.0	2303.0	2266.0	2266.0	2257.0	2257.0	2257.0	2275.0	2275.0	2248.0	2248.0	2248.0	2243.0	2243.0	2237.0	2237.0	2237.0	2235.0	2235.0	2219.0	2219.0	2219.0	2214.0	2214.0	2232.0	2232.0	2232.0	2215.0	2215.0	2175.0	2175.0	2175.0	2189.0	2189.0	2184.0	2184.0	2184.0	2156.0	2156.0	2135.0	2135.0	2135.0	2131.0	2131.0	2134.0	2134.0	2134.0	2170.0	2170.0	2123.0	2123.0	2123.0	2108.0	2108.0	2107.0	2107.0	2107.0	2102.0	2102.0	2109.0	2109.0	2109.0	2078.0	2078.0	2102.0	2102.0	2102.0	2116.0	2116.0	2095.0	2095.0	2095.0	2066.0	2066.0	2050.0	2050.0	2050.0	2071.0	2071.0	2064.0	2064.0	2064.0	2074.0	2074.0	2025.0	2025.0	2025.0	2047.0	2047.0	2006.0	2006.0	2006.0	2032.0	2032.0	2020.0	2020.0	2020.0	2033.0	2033.0	2013.0	2013.0	2013.0	2024.0	2024.0	2006.0	2006.0	2006.0	2038.0	2038.0	2031.0	2031.0	2031.0	1988.0	1988.0	2004.0	2004.0	2004.0	2005.0	2005.0	1967.0	1967.0	1967.0	1968.0	1968.0	1997.0	1997.0	1997.0	1988.0	1988.0	1987.0	1987.0	1987.0	1995.0	1995.0	1964.0	1964.0	1964.0	1997.0	1997.0	1966.0	1966.0	1966.0	1967.0	1967.0	1958.0	1958.0	1958.0	1990.0	1990.0	1947.0	1947.0	1947.0	1959.0	1959.0	1980.0	1980.0	1976.0	1976.0	1976.0	1942.0	1942.0	1935.0	1935.0	1935.0	1930.0	1930.0	1962.0	1962.0	1962.0	1929.0	1929.0	1927.0	1927.0	1927.0	1946.0	1946.0	1913.0	1913.0	1913.0	1938.0	1938.0	1965.0	1965.0	1965.0	1960.0	1960.0	1916.0	1916.0	1916.0	1931.0	1931.0	1895.0	1895.0	1895.0	1915.0	1915.0	1936.0	1936.0	1936.0	1920.0	1920.0	1920.0	1920.0	1920.0	1892.0	1892.0	1930.0	1930.0	1930.0	1925.0	1925.0	1886.0	1886.0	1886.0	1890.0	1890.0	1902.0	1902.0	1902.0	1888.0	1888.0	1875.0	1875.0	1875.0	1888.0	1888.0	1887.0	1887.0	1887.0	1879.0	1879.0	1889.0	1889.0	1889.0	1865.0	1865.0	1894.0	1894.0	1894.0	1907.0	1907.0	1867.0	1867.0	1867.0	1907.0	1907.0	1881.0	1881.0	1881.0	1848.0	1848.0	1863.0	1863.0	1863.0	1880.0	1880.0	1866.0	1866.0	1866.0	1860.0	1860.0	1843.0	1843.0	1843.0	1866.0	1866.0	1844.0	1844.0	1844.0	1885.0	1885.0	1875.0	1875.0	1875.0	1826.0	1826.0	1866.0	1866.0	1866.0	1872.0	1872.0	1831.0	1831.0	1831.0	1845.0	1845.0	1863.0	1863.0	1863.0	1850.0	1850.0	1824.0	1824.0	1824.0	1827.0	1827.0	1839.0	1839.0	1839.0	1857.0	1857.0	1807.0	1807.0	1807.0	1832.0	1832.0	1816.0	1816.0	1816.0	1815.0	1815.0	1821.0	1821.0	1821.0	1824.0	1824.0	1818.0	1818.0	1818.0	1810.0	1810.0	1825.0	1825.0	1825.0	1796.0	1796.0	1821.0	1821.0	1821.0	1816.0	1816.0	1825.0	1825.0	1825.0	1836.0	1836.0	1816.0	1816.0	1816.0	1824.0	1824.0	1825.0	1825.0	1825.0	1807.0	1807.0	1781.0	1781.0	1781.0	1800.0	1800.0	1799.0	1799.0	1799.0	1792.0	1792.0	1803.0	1803.0	1803.0	1793.0	1793.0	1786.0	1786.0	1793.0	1793.0	1793.0	1804.0	1804.0	1805.0	1805.0	1805.0	1789.0	1789.0	1791.0	1791.0	1791.0	1830.0	1830.0	1829.0	1829.0	1829.0	1814.0	1814.0	1783.0	1783.0	1783.0	1813.0	1813.0	1781.0	1781.0	1781.0	1793.0	1793.0	1825.0	1825.0	1825.0	1788.0	1788.0	1760.0	1760.0	1760.0	1760.0	1760.0	1768.0	1768.0	1768.0	1773.0	1773.0	1755.0	1755.0	1755.0	1762.0	1762.0	1754.0	1754.0	1754.0	1773.0	1773.0	1775.0	1775.0	1775.0	1753.0	1753.0	1750.0	1750.0	1750.0	1768.0	1768.0	1752.0	1752.0	1752.0	1784.0	1784.0	1774.0	1774.0	1774.0	1752.0	1752.0	1800.0	1800.0	1800.0	1758.0	1758.0	1790.0	1790.0	1790.0	1790.0	1790.0	1783.0	1783.0	1783.0	1749.0	1749.0	1771.0	1771.0	1771.0	1755.0	1755.0	1778.0	1778.0	1778.0	1795.0	1795.0	1782.0	1782.0	1782.0	1783.0	1783.0	1760.0	1760.0	1760.0	1807.0	1807.0	1752.0	1752.0	1752.0	1777.0	1777.0	1802.0	1802.0	1802.0	1760.0	1760.0	1749.0	1749.0	1749.0	1754.0	1754.0	1789.0	1789.0	1789.0	1766.0	1766.0	1782.0	1782.0	1782.0	1787.0	1787.0	1768.0	1768.0	1768.0	1756.0	1756.0	1742.0	1742.0	1742.0	1791.0	1791.0	1758.0	1758.0	1758.0	1774.0	1774.0	1764.0	1764.0	1764.0	1761.0	1761.0	1776.0	1776.0	1776.0	1766.0	1766.0	1762.0	1762.0	1762.0	1784.0	1784.0	1808.0	1808.0	1808.0	1810.0	1810.0	1828.0	1828.0	1828.0	1815.0	1815.0	1852.0	1852.0	1852.0	1876.0	1876.0	1879.0	1879.0	1879.0	1870.0	1870.0	1873.0	1873.0	1873.0	1877.0	1877.0	1899.0	1899.0	1899.0	1931.0	1931.0	1969.0	1969.0	1969.0	1995.0	1995.0	1998.0	1998.0	1981.0	1981.0	1981.0	1998.0	1998.0	2030.0	2030.0	2030.0	2035.0	2035.0	2068.0	2068.0	2068.0	2079.0	2079.0	2111.0	2111.0	2111.0	2110.0	2110.0	2110.0	2110.0	2110.0	2120.0	2120.0	2139.0	2139.0	2139.0	2186.0	2186.0	2152.0	2152.0	2152.0	2175.0	2175.0	2201.0	2201.0	2201.0	2211.0	2211.0	2237.0	2237.0	2237.0	2240.0	2240.0	2248.0	2248.0	2248.0	2264.0	2264.0	2258.0	2258.0	2258.0	2289.0	2289.0	2286.0	2286.0	2286.0	2278.0	2278.0	2292.0	2292.0	2292.0	2315.0	2315.0	2286.0	2286.0	2286.0	2340.0	2340.0	2329.0	2329.0	2329.0	2341.0	2341.0	2318.0	2318.0	2318.0	2337.0	2337.0	2339.0	2339.0	2339.0	2329.0	2329.0	2346.0	2346.0	2346.0	2365.0	2365.0	2365.0	2365.0	2365.0	2367.0	2367.0	2385.0	2385.0	2385.0	2368.0	2368.0	2381.0	2381.0	2381.0	2373.0	2373.0	2354.0	2354.0	2354.0	2359.0	2359.0	2385.0	2385.0	2385.0	2397.0	2397.0	2383.0	2383.0	2383.0	2374.0	2374.0	2388.0	2388.0	2388.0	2387.0	2387.0	2366.0	2366.0	2366.0	2379.0	2379.0	2395.0	2395.0	2395.0	2388.0	2388.0	2365.0	2365.0	2365.0	2389.0	2389.0	2365.0	2365.0	2365.0	2376.0	2376.0	2387.0	2387.0	2387.0	2370.0	2370.0	2388.0	2388.0	2388.0	2343.0	2343.0	2333.0	2333.0	2333.0	2338.0	2338.0	2352.0	2352.0	2352.0	2386.0	2386.0	2326.0	2326.0	2326.0	2344.0	2344.0	2336.0	2336.0	2336.0	2336.0	2336.0	2336.0	2336.0	2336.0	2343.0	2343.0	2342.0	2342.0	2342.0	2326.0	2326.0	2298.0	