2429.0	2406.0	2406.0	2406.0	2391.0	2391.0	2399.0	2399.0	2399.0	2350.0	2350.0	2366.0	2366.0	2366.0	2390.0	2390.0	2369.0	2369.0	2369.0	2303.0	2303.0	2303.0	2303.0	2303.0	2296.0	2296.0	2281.0	2281.0	2281.0	2305.0	2305.0	2288.0	2288.0	2288.0	2257.0	2257.0	2219.0	2219.0	2219.0	2227.0	2227.0	2245.0	2245.0	2245.0	2212.0	2212.0	2216.0	2216.0	2216.0	2184.0	2184.0	2215.0	2215.0	2215.0	2167.0	2167.0	2161.0	2161.0	2161.0	2175.0	2175.0	2153.0	2153.0	2153.0	2172.0	2172.0	2137.0	2137.0	2137.0	2163.0	2163.0	2131.0	2131.0	2131.0	2163.0	2163.0	2167.0	2167.0	2167.0	2167.0	2167.0	2120.0	2120.0	2120.0	2135.0	2135.0	2109.0	2109.0	2109.0	2162.0	2162.0	2135.0	2135.0	2135.0	2119.0	2119.0	2127.0	2127.0	2127.0	2169.0	2169.0	2164.0	2164.0	2164.0	2115.0	2115.0	2154.0	2154.0	2154.0	2118.0	2118.0	2114.0	2114.0	2114.0	2182.0	2182.0	2133.0	2133.0	2133.0	2140.0	2140.0	2182.0	2182.0	2182.0	2121.0	2121.0	2110.0	2110.0	2110.0	2159.0	2159.0	2135.0	2135.0	2135.0	2123.0	2123.0	2154.0	2154.0	2154.0	2166.0	2166.0	2146.0	2146.0	2146.0	2114.0	2114.0	2160.0	2160.0	2160.0	2159.0	2159.0	2172.0	2172.0	2172.0	2175.0	2175.0	2176.0	2176.0	2176.0	2135.0	2135.0	2139.0	2139.0	2139.0	2116.0	2116.0	2122.0	2122.0	2122.0	2115.0	2115.0	2125.0	2125.0	2125.0	2160.0	2160.0	2129.0	2129.0	2129.0	2134.0	2134.0	2108.0	2108.0	2108.0	2125.0	2125.0	2125.0	2125.0	2125.0	2111.0	2111.0	2153.0	2153.0	2168.0	2168.0	2168.0	2134.0	2134.0	2108.0	2108.0	2108.0	2149.0	2149.0	2147.0	2147.0	2147.0	2098.0	2098.0	2154.0	2154.0	2154.0	2120.0	2120.0	2092.0	2092.0	2092.0	2094.0	2094.0	2079.0	2079.0	2079.0	2077.0	2077.0	2083.0	2083.0	2083.0	2107.0	2107.0	2113.0	2113.0	2113.0	2102.0	2102.0	2059.0	2059.0	2059.0	2107.0	2107.0	2056.0	2056.0	2056.0	2045.0	2045.0	2047.0	2047.0	2047.0	2051.0	2051.0	2063.0	2063.0	2063.0	2042.0	2042.0	2062.0	2062.0	2062.0	2056.0	2056.0	2039.0	2039.0	2039.0	2052.0	2052.0	2055.0	2055.0	2055.0	2062.0	2062.0	2056.0	2056.0	2056.0	2041.0	2041.0	2003.0	2003.0	2003.0	2012.0	2012.0	2038.0	2038.0	2038.0	2033.0	2033.0	1982.0	1982.0	1982.0	2016.0	2016.0	2029.0	2029.0	2029.0	1976.0	1976.0	1974.0	1974.0	1974.0	2031.0	2031.0	2034.0	2034.0	2034.0	1974.0	1974.0	1959.0	1959.0	1959.0	2006.0	2006.0	1999.0	1999.0	1999.0	1980.0	1980.0	1996.0	1996.0	1996.0	1949.0	1949.0	1955.0	1955.0	1955.0	1963.0	1963.0	1941.0	1941.0	1941.0	1953.0	1953.0	1949.0	1949.0	1949.0	1996.0	1996.0	1944.0	1944.0	1944.0	1987.0	1987.0	1994.0	1994.0	1994.0	1960.0	1960.0	1935.0	1935.0	1935.0	1931.0	1931.0	1944.0	1944.0	1944.0	1948.0	1948.0	1934.0	1934.0	1934.0	1981.0	1981.0	1952.0	1952.0	1952.0	1939.0	1939.0	1947.0	1947.0	1947.0	1946.0	1946.0	1937.0	1937.0	1937.0	1943.0	1943.0	1941.0	1941.0	1941.0	1897.0	1897.0	1905.0	1905.0	1905.0	1937.0	1937.0	1929.0	1929.0	1929.0	1933.0	1933.0	1943.0	1943.0	1943.0	1939.0	1939.0	1886.0	1886.0	1931.0	1931.0	1931.0	1885.0	1885.0	1891.0	1891.0	1891.0	1932.0	1932.0	1930.0	1930.0	1930.0	1940.0	1940.0	1938.0	1938.0	1938.0	1936.0	1936.0	1914.0	1914.0	1914.0	1897.0	1897.0	1937.0	1937.0	1937.0	1899.0	1899.0	1896.0	1896.0	1896.0	1922.0	1922.0	1873.0	1873.0	1873.0	1923.0	1923.0	1934.0	1934.0	1934.0	1912.0	1912.0	1886.0	1886.0	1886.0	1879.0	1879.0	1877.0	1877.0	1877.0	1900.0	1900.0	1861.0	1861.0	1861.0	1864.0	1864.0	1883.0	1883.0	1883.0	1906.0	1906.0	1880.0	1880.0	1880.0	1911.0	1911.0	1860.0	1860.0	1860.0	1907.0	1907.0	1890.0	1890.0	1890.0	1878.0	1878.0	1877.0	1877.0	1877.0	1880.0	1880.0	1919.0	1919.0	1919.0	1866.0	1866.0	1923.0	1923.0	1923.0	1878.0	1878.0	1934.0	1934.0	1934.0	1921.0	1921.0	1917.0	1917.0	1917.0	1904.0	1904.0	1905.0	1905.0	1905.0	1902.0	1902.0	1932.0	1932.0	1932.0	1952.0	1952.0	1973.0	1973.0	1973.0	1974.0	1974.0	1974.0	1974.0	1974.0	1991.0	1991.0	1973.0	1973.0	1973.0	1965.0	1965.0	2010.0	2010.0	2010.0	2034.0	2034.0	2067.0	2067.0	2067.0	2061.0	2061.0	2077.0	2077.0	2077.0	2141.0	2141.0	2119.0	2119.0	2119.0	2187.0	2187.0	2171.0	2171.0	2171.0	2222.0	2222.0	2256.0	2256.0	2256.0	2271.0	2271.0	2285.0	2285.0	2285.0	2324.0	2324.0	2347.0	2347.0	2347.0	2384.0	2384.0	2419.0	2419.0	2419.0	2394.0	2394.0	2476.0	2476.0	2476.0	2434.0	2434.0	2514.0	2514.0	2514.0	2495.0	2495.0	2504.0	2504.0	2504.0	2541.0	2541.0	2545.0	2545.0	2545.0	2587.0	2587.0	2608.0	2608.0	2608.0	2590.0	2590.0	2646.0	2646.0	2594.0	2594.0	2594.0	2627.0	2627.0	2671.0	2671.0	2671.0	2680.0	2680.0	2695.0	2695.0	2695.0	2669.0	2669.0	2680.0	2680.0	2680.0	2666.0	2666.0	2676.0	2676.0	2676.0	2707.0	2707.0	2697.0	2697.0	2697.0	2715.0	2715.0	2716.0	2716.0	2716.0	2723.0	2723.0	2705.0	2705.0	2705.0	2704.0	2704.0	2677.0	2677.0	2677.0	2691.0	2691.0	2691.0	2691.0	2691.0	2660.0	2660.0	2664.0	2664.0	2664.0	2690.0	2690.0	2658.0	2658.0	2658.0	2646.0	2646.0	2639.0	2639.0	2639.0	2663.0	2663.0	2639.0	2639.0	2639.0	2650.0	2650.0	2609.0	2609.0	2609.0	2636.0	2636.0	2654.0	2654.0	2654.0	2660.0	2660.0	2615.0	2615.0	2615.0	2627.0	2627.0	2590.0	2590.0	2590.0	2614.0	2614.0	2589.0	2589.0	2589.0	2561.0	2561.0	2588.0	2588.0	2588.0	2581.0	2581.0	2535.0	2535.0	2535.0	2529.0	2529.0	2530.0	2530.0	2530.0	2517.0	2517.0	2520.0	2520.0	2520.0	2563.0	2563.0	2552.0	2552.0	2552.0	2493.0	2493.0	2517.0	2517.0	2517.0	2550.0	2550.0	2497.0	2497.0	2497.0	2488.0	2488.0	2490.0	2490.0	2490.0	2462.0	2462.0	2504.0	2504.0	2504.0	2457.0	2457.0	2476.0	2476.0	2476.0	2464.0	2464.0	2448.0	2448.0	2448.0	2459.0	2459.0	2463.0	2463.0	2463.0	2396.0	2396.0	2440.0	2440.0	2440.0	2393.0	2393.0	2432.0	2432.0	2432.0	2391.0	2391.0	2410.0	2410.0	2410.0	2379.0	2379.0	2350.0	2350.0	2350.0	2379.0	2379.0	2365.0	2365.0	2365.0	2339.0	2339.0	2299.0	2299.0	2299.0	2353.0	2353.0	2294.0	2294.0	2294.0	2311.0	2311.0	2306.0	2306.0	2306.0	2303.0	2303.0	2251.0	2251.0	2251.0	2289.0	2289.0	2238.0	2238.0	2238.0	2247.0	2247.0	2203.0	2203.0	2196.0	2196.0	2196.0	2228.0	2228.0	2212.0	2212.0	2212.0	2199.0	2199.0	2192.0	2192.0	2192.0	2161.0	2161.0	2131.0	2131.0	2131.0	2161.0	2161.0	2181.0	2181.0	2181.0	2177.0	2177.0	2114.0	2114.0	2114.0	2142.0	2142.0	2123.0	2123.0	2123.0	2160.0	2160.0	2124.0	2124.0	2124.0	2092.0	2092.0	2139.0	2139.0	2139.0	2094.0	2094.0	2101.0	2101.0	2101.0	2115.0	2115.0	2080.0	2080.0	2080.0	2108.0	2108.0	2109.0	2109.0	2109.0	2130.0	2130.0	2102.0	2102.0	2102.0	2121.0	2121.0	2120.0	2120.0	2120.0	2083.0	2083.0	2107.0	2107.0	2107.0	2135.0	2135.0	2078.0	2078.0	2078.0	2132.0	2132.0	2106.0	2106.0	2106.0	2121.0	2121.0	2111.0	2111.0	2111.0	2089.0	2089.0	2092.0	2092.0	2092.0	2086.0	2086.0	2090.0	2090.0	2090.0	2141.0	2141.0	2096.0	2096.0	2096.0	2086.0	2086.0	2134.0	2134.0	2134.0	2086.0	2086.0	2111.0	2111.0	2111.0	2102.0	2102.0	2119.0	2119.0	2119.0	2083.0	2083.0	2131.0	2131.0	2131.0	2113.0	2113.0	2133.0	2133.0	2133.0	2081.0	2081.0	2101.0	2101.0	2101.0	2083.0	2083.0	2107.0	2107.0	2107.0	2081.0	2081.0	2071.0	2071.0	2071.0	2066.0	2066.0	2122.0	2122.0	2122.0	2064.0	2064.0	2100.0	2100.0	2100.0	2099.0	2099.0	2117.0	2117.0	2117.0	2076.0	2076.0	2083.0	2083.0	2083.0	2105.0	2105.0	2074.0	2074.0	2074.0	2093.0	2093.0	2043.0	2043.0	2043.0	2055.0	2055.0	2058.0	2058.0	2058.0	2034.0	2034.0	2044.0	2044.0	2044.0	2049.0	2049.0	2028.0	2028.0	2028.0	2020.0	2020.0	2013.0	2013.0	2013.0	2021.0	2021.0	2039.0	2039.0	2039.0	2049.0	2049.0	2054.0	2054.0	2015.0	2015.0	2015.0	2003.0	2003.0	2006.0	2006.0	2006.0	2040.0	2040.0	2000.0	2000.0	2000.0	1999.0	1999.0	1997.0	1997.0	1997.0	2022.0	2022.0	2028.0	2028.0	2028.0	1963.0	1963.0	1970.0	1970.0	1970.0	2025.0	2025.0	2004.0	2004.0	2004.0	1999.0	1999.0	2005.0	2005.0	2005.0	1968.0	1968.0	1959.0	1959.0	1959.0	1941.0	1941.0	1981.0	1981.0	1981.0	1944.0	1944.0	1973.0	1973.0	1973.0	1933.0	1933.0	1938.0	1938.0	1938.0	1921.0	1921.0	1959.0	1959.0	1959.0	1962.0	1962.0	1943.0	1943.0	1943.0	1969.0	1969.0	1922.0	1922.0	1922.0	1900.0	1900.0	1960.0	1960.0	1960.0	1954.0	1954.0	1926.0	1926.0	1926.0	1937.0	1937.0	1896.0	1896.0	1896.0	1931.0	1931.0	1925.0	1925.0	1925.0	1930.0	1930.0	1927.0	1927.0	1927.0	1930.0	1930.0	1894.0	1894.0	1894.0	1890.0	1890.0	1910.0	1910.0	1910.0	1902.0	1902.0	1879.0	1879.0	1879.0	1899.0	1899.0	1912.0	1912.0	1912.0	1857.0	1857.0	1920.0	1920.0	1920.0	1856.0	1856.0	1878.0	1878.0	1878.0	1892.0	1892.0	1891.0	1891.0	1891.0	1861.0	1861.0	1902.0	1902.0	1902.0	1902.0	1902.0	1855.0	1855.0	1855.0	1905.0	1905.0	1902.0	1902.0	1902.0	1882.0	1882.0	1904.0	1904.0	1904.0	1861.0	1861.0	1874.0	1874.0	1874.0	1899.0	1899.0	1887.0	1887.0	1887.0	1843.0	1843.0	1861.0	1861.0	1861.0	1835.0	1835.0	1844.0	1844.0	1844.0	1858.0	1858.0	1834.0	1834.0	1834.0	1825.0	1825.0	1874.0	1874.0	1874.0	1889.0	1889.0	1880.0	1880.0	1880.0	1846.0	1846.0	1819.0	1819.0	1819.0	1825.0	1825.0	1831.0	1831.0	1831.0	1823.0	1823.0	1841.0	1841.0	1841.0	1867.0	1867.0	1824.0	1824.0	1827.0	1827.0	1827.0	1878.0	1878.0	1827.0	1827.0	1827.0	1818.0	1818.0	1829.0	1829.0	1829.0	1868.0	1868.0	1831.0	1831.0	1831.0	1825.0	1825.0	1820.0	1820.0	1820.0	1829.0	1829.0	1884.0	1884.0	1884.0	1883.0	1883.0	1867.0	1867.0	1867.0	1872.0	1872.0	1868.0	1868.0	1868.0	1886.0	1886.0	1862.0	1862.0	1862.0	1860.0	1860.0	1899.0	1899.0	1899.0	1845.0	1845.0	1893.0	1893.0	1893.0	1864.0	1864.0	1905.0	1905.0	1905.0	1880.0	1880.0	1899.0	1899.0	1899.0	1882.0	1882.0	1887.0	1887.0	1887.0	1922.0	1922.0	1926.0	1926.0	1926.0	1966.0	1966.0	1981.0	1981.0	1981.0	1976.0	1976.0	1982.0	1982.0	1982.0	2011.0	2011.0	2064.0	2064.0	2064.0	2075.0	2075.0	2114.0	2114.0	2114.0	2117.0	2117.0	2126.0	2126.0	2126.0	2157.0	2157.0	2176.0	2176.0	2176.0	2232.0	2232.0	2202.0	2202.0	2202.0	2272.0	2272.0	2269.0	2269.0	2269.0	2276.0	2276.0	2304.0	2304.0	2304.0	2329.0	2329.0	2375.0	2375.0	2375.0	2373.0	2373.0	2387.0	2387.0	2387.0	2436.0	2436.0	2457.0	2457.0	2457.0	2462.0	2462.0	2524.0	2524.0	2524.0	2521.0	2521.0	2542.0	2542.0	2542.0	2535.0	2535.0	2517.0	2517.0	2517.0	2569.0	2569.0	2550.0	2550.0	2550.0	2593.0	2593.0	2593.0	2593.0	2593.0	2622.0	2622.0	2599.0	2599.0	2599.0	2602.0	2602.0	2625.0	2625.0	2625.0	2649.0	2649.0	2628.0	2628.0	2628.0	2637.0	2637.0	2602.0	2602.0	2602.0	2642.0	2642.0	2614.0	2614.0	2614.0	2649.0	2649.0	2608.0	2608.0	2608.0	2654.0	2654.0	2637.0	2637.0	2637.0	2631.0	2631.0	2584.0	2584.0	2584.0	2614.0	2614.0	2615.0	2615.0	2588.0	2588.0	2588.0	2599.0	2599.0	2574.0	2574.0	2574.0	2560.0	2560.0	2606.0	2606.0	2606.0	2578.0	2578.0	2549.0	2549.0	2549.0	2553.0	2553.0	2542.0	2542.0	2542.0	2540.0	2540.0	2541.0	2541.0	2541.0	2511.0	2511.0	2527.0	2527.0	2527.0	2515.0	2515.0	2488.0	2488.0	2488.0	2492.0	2492.0	2487.0	2487.0	2487.0	2496.0	2496.0	2497.0	2497.0	2497.0	2496.0	2496.0	2450.0	2450.0	2450.0	2446.0	2446.0	2447.0	2447.0	2447.0	2471.0	2471.0	2429.0	2429.0	2429.0	2441.0	2441.0	2415.0	2415.0	2415.0	2420.0	2420.0	2416.0	2416.0	2416.0	2437.0	2437.0	2419.0	2419.0	2419.0	2425.0	2425.0	2383.0	2383.0	2383.0	2405.0	2405.0	2365.0	2365.0	2365.0	2383.0	2383.0	2372.0	2372.0	2372.0	2381.0	2381.0	2400.0	2400.0	2400.0	2329.0	2329.0	2368.0	2368.0	2368.0	2330.0	2330.0	2321.0	2321.0	2321.0	2340.0	2340.0	2300.0	2300.0	2300.0	2293.0	2293.0	2316.0	2316.0	2316.0	2295.0	2295.0	2244.0	2244.0	2244.0	2268.0	2268.0	2272.0	2272.0	2272.0	2227.0	2227.0	2242.0	2242.0	2242.0	2209.0	2209.0	2242.0	2242.0	2242.0	2176.0	2176.0	2172.0	2172.0	2172.0	2169.0	2169.0	2159.0	2159.0	2159.0	2156.0	2156.0	2155.0	2155.0	2155.0	2168.0	2168.0	2157.0	2157.0	2157.0	2102.0	2102.0	2144.0	2144.0	2144.0	2090.0	2090.0	2079.0	2079.0	2079.0	2130.0	2130.0	2094.0	2094.0	2094.0	2089.0	2089.0	2058.0	2058.0	2058.0	2095.0	2095.0	2053.0	2053.0	2053.0	2095.0	2095.0	2045.0	2045.0	2045.0	2083.0	2083.0	2027.0	2027.0	2027.0	2037.0	2037.0	2037.0	2037.0	2037.0	2072.0	2072.0	2065.0	2065.0	2021.0	2021.0	2021.0	2066.0	2066.0	2045.0	2045.0	2045.0	2038.0	2038.0	2076.0	2076.0	2076.0	2038.0	2038.0	2027.0	2027.0	2027.0	2029.0	2029.0	2033.0	2033.0	2033.0	2035.0	2035.0	2048.0	2048.0	2048.0	2035.0	2035.0	2038.0	2038.0	2038.0	2031.0	2031.0	2046.0	2046.0	2046.0	2035.0	2035.0	2018.0	2018.0	2018.0	2075.0	2075.0	2075.0	2075.0	2075.0	2048.0	2048.0	2054.0	2054.0	2054.0	2064.0	2064.0	2079.0	2079.0	2079.0	2086.0	2086.0	2019.0	2019.0	2019.0	2036.0	2036.0	2022.0	2022.0	2022.0	2041.0	2041.0	2022.0	2022.0	2022.0	2053.0	2053.0	2041.0	2041.0	2041.0	2046.0	2046.0	2036.0	2036.0	2036.0	2066.0	2066.0	2061.0	2061.0	2061.0	2021.0	2021.0	2066.0	2066.0	2066.0	2062.0	2062.0	2016.0	2016.0	2016.0	2022.0	2022.0	2020.0	2020.0	2020.0	2020.0	2020.0	2016.0	2016.0	2016.0	2038.0	2038.0	2016.0	2016.0	2016.0	1983.0	1983.0	1982.0	1982.0	1982.0	2025.0	2025.0	2008.0	2008.0	2008.0	1998.0	1998.0	2013.0	2013.0	2013.0	1995.0	1995.0	1972.0	1972.0	1972.0	1991.0	1991.0	1999.0	1999.0	1999.0	1998.0	1998.0	1959.0	1959.0	1959.0	1947.0	1947.0	1949.0	1949.0	1949.0	2000.0	2000.0	1966.0	1966.0	1966.0	1954.0	1954.0	1948.0	1948.0	1948.0	1990.0	1990.0	1945.0	1945.0	1945.0	1958.0	1958.0	1931.0	1931.0	1931.0	1907.0	1907.0	1957.0	1957.0	1957.0	1953.0	1953.0	1911.0	1911.0	1911.0	1906.0	1906.0	1911.0	1911.0	1911.0	1892.0	1892.0	1908.0	1908.0	1908.0	1931.0	1931.0	1939.0	1939.0	1939.0	1893.0	1893.0	1888.0	1888.0	1888.0	1904.0	1904.0	1891.0	1891.0	1891.0	1895.0	1895.0	1894.0	1894.0	1927.0	1927.0	1927.0	1871.0	1871.0	1867.0	1867.0	1867.0	1923.0	1923.0	1923.0	1923.0	1923.0	1919.0	1919.0	1863.0	1863.0	1863.0	1901.0	1901.0	1911.0	1911.0	1911.0	1899.0	1899.0	1846.0	1846.0	1846.0	1850.0	1850.0	1891.0	1891.0	1891.0	1895.0	1895.0	1852.0	1852.0	1852.0	1887.0	1887.0	1853.0	1853.0	1853.0	1849.0	1849.0	1887.0	1887.0	1887.0	1825.0	1825.0	1870.0	1870.0	1870.0	1883.0	1883.0	1845.0	1845.0	1845.0	1869.0	1869.0	1860.0	1860.0	1860.0	1849.0	1849.0	1869.0	1869.0	1869.0	1831.0	1831.0	1839.0	1839.0	1839.0	1825.0	1825.0	1847.0	1847.0	1847.0	1833.0	1833.0	1830.0	1830.0	1830.0	1863.0	1863.0	1862.0	1862.0	1862.0	1852.0	1852.0	1811.0	1811.0	1811.0	1816.0	1816.0	1861.0	1861.0	1861.0	1823.0	1823.0	1847.0	1847.0	1847.0	1814.0	1814.0	1839.0	1839.0	1839.0	1849.0	1849.0	1785.0	1785.0	1785.0	1787.0	1787.0	1822.0	1822.0	1822.0	1810.0	1810.0	1810.0	1810.0	1810.0	1793.0	1793.0	1804.0	1804.0	1804.0	1797.0	1797.0	1787.0	1787.0	1787.0	1792.0	1792.0	1793.0	1793.0	1793.0	1827.0	1827.0	1805.0	1805.0	1805.0	1812.0	1812.0	1790.0	1790.0	1790.0	1825.0	1825.0	1780.0	1780.0	1780.0	1826.0	1826.0	1813.0	1813.0	1813.0	1784.0	1784.0	1831.0	1831.0	1831.0	1787.0	1787.0	1806.0	1806.0	1806.0	1794.0	1794.0	1789.0	1789.0	1789.0	1820.0	1820.0	1800.0	1800.0	1800.0	1799.0	1799.0	1823.0	1823.0	1823.0	1777.0	1777.0	1778.0	1778.0	1778.0	1799.0	1799.0	1806.0	1806.0	1806.0	1822.0	1822.0	1830.0	1830.0	1830.0	1827.0	1827.0	1797.0	1797.0	1812.0	1812.0	1812.0	1841.0	1841.0	1825.0	1825.0	1825.0	1832.0	1832.0	1840.0	1840.0	1840.0	1823.0	1823.0	1860.0	1860.0	1860.0	1829.0	1829.0	1831.0	1831.0	1831.0	1820.0	1820.0	1849.0	1849.0	1849.0	1907.0	1907.0	1876.0	1876.0	1876.0	1927.0	1927.0	1927.0	1927.0	1927.0	1916.0	1916.0	1964.0	1964.0	1964.0	2007.0	2007.0	1979.0	1979.0	1979.0	1987.0	1987.0	2028.0	2028.0	2028.0	2084.0	2084.0	2087.0	2087.0	2087.0	2131.0	2131.0	2123.0	2123.0	2123.0	2163.0	2163.0	2187.0	2187.0	2187.0	2246.0	2246.0	2221.0	2221.0	2221.0	2307.0	