2321.0	2321.0	2342.0	2342.0	2342.0	2283.0	2283.0	2283.0	2283.0	2283.0	2311.0	2311.0	2289.0	2289.0	2289.0	2289.0	2289.0	2262.0	2262.0	2262.0	2276.0	2276.0	2265.0	2265.0	2265.0	2251.0	2251.0	2219.0	2219.0	2219.0	2199.0	2199.0	2228.0	2228.0	2228.0	2209.0	2209.0	2223.0	2223.0	2223.0	2213.0	2213.0	2159.0	2159.0	2159.0	2209.0	2209.0	2153.0	2153.0	2153.0	2165.0	2165.0	2145.0	2145.0	2145.0	2155.0	2155.0	2168.0	2168.0	2168.0	2166.0	2166.0	2178.0	2178.0	2178.0	2136.0	2136.0	2134.0	2134.0	2134.0	2177.0	2177.0	2144.0	2144.0	2144.0	2113.0	2113.0	2154.0	2154.0	2154.0	2158.0	2158.0	2151.0	2151.0	2151.0	2146.0	2146.0	2157.0	2157.0	2157.0	2102.0	2102.0	2114.0	2114.0	2114.0	2113.0	2113.0	2093.0	2093.0	2093.0	2113.0	2113.0	2135.0	2135.0	2135.0	2140.0	2140.0	2116.0	2116.0	2116.0	2094.0	2094.0	2122.0	2122.0	2122.0	2133.0	2133.0	2082.0	2082.0	2082.0	2125.0	2125.0	2115.0	2115.0	2115.0	2090.0	2090.0	2087.0	2087.0	2087.0	2115.0	2115.0	2095.0	2095.0	2095.0	2091.0	2091.0	2064.0	2064.0	2064.0	2074.0	2074.0	2080.0	2080.0	2080.0	2088.0	2088.0	2052.0	2052.0	2052.0	2089.0	2089.0	2098.0	2098.0	2098.0	2048.0	2048.0	2054.0	2054.0	2054.0	2076.0	2076.0	2085.0	2085.0	2085.0	2042.0	2042.0	2076.0	2076.0	2076.0	2029.0	2029.0	2036.0	2036.0	2036.0	2081.0	2081.0	2060.0	2060.0	2060.0	2038.0	2038.0	2026.0	2026.0	2026.0	2022.0	2022.0	2052.0	2052.0	2052.0	2023.0	2023.0	2043.0	2043.0	2043.0	2019.0	2019.0	2041.0	2041.0	2041.0	2002.0	2002.0	2016.0	2016.0	2022.0	2022.0	2022.0	2027.0	2027.0	2001.0	2001.0	2001.0	2027.0	2027.0	1988.0	1988.0	1988.0	1987.0	1987.0	1971.0	1971.0	1971.0	2024.0	2024.0	1972.0	1972.0	1972.0	1975.0	1975.0	2010.0	2010.0	2010.0	1950.0	1950.0	1995.0	1995.0	1995.0	1964.0	1964.0	1960.0	1960.0	1960.0	1950.0	1950.0	1970.0	1970.0	1970.0	1957.0	1957.0	1957.0	1957.0	1957.0	1946.0	1946.0	1942.0	1942.0	1942.0	1951.0	1951.0	1931.0	1931.0	1931.0	1927.0	1927.0	1953.0	1953.0	1953.0	1956.0	1956.0	1916.0	1916.0	1916.0	1960.0	1960.0	1954.0	1954.0	1954.0	1927.0	1927.0	1934.0	1934.0	1934.0	1914.0	1914.0	1887.0	1887.0	1887.0	1937.0	1937.0	1918.0	1918.0	1918.0	1939.0	1939.0	1923.0	1923.0	1923.0	1945.0	1945.0	1880.0	1880.0	1880.0	1880.0	1880.0	1901.0	1901.0	1901.0	1876.0	1876.0	1910.0	1910.0	1910.0	1875.0	1875.0	1914.0	1914.0	1914.0	1867.0	1867.0	1913.0	1913.0	1913.0	1875.0	1875.0	1902.0	1902.0	1902.0	1895.0	1895.0	1891.0	1891.0	1891.0	1870.0	1870.0	1856.0	1856.0	1856.0	1875.0	1875.0	1891.0	1891.0	1891.0	1872.0	1872.0	1895.0	1895.0	1895.0	1880.0	1880.0	1880.0	1880.0	1880.0	1847.0	1847.0	1865.0	1865.0	1865.0	1866.0	1866.0	1878.0	1878.0	1878.0	1865.0	1865.0	1846.0	1846.0	1846.0	1874.0	1874.0	1870.0	1870.0	1870.0	1882.0	1882.0	1871.0	1871.0	1871.0	1878.0	1878.0	1834.0	1834.0	1834.0	1844.0	1844.0	1855.0	1855.0	1855.0	1859.0	1859.0	1854.0	1854.0	1854.0	1831.0	1831.0	1828.0	1828.0	1828.0	1866.0	1866.0	1874.0	1874.0	1874.0	1841.0	1841.0	1873.0	1873.0	1873.0	1826.0	1826.0	1827.0	1827.0	1869.0	1869.0	1869.0	1846.0	1846.0	1830.0	1830.0	1830.0	1837.0	1837.0	1871.0	1871.0	1871.0	1827.0	1827.0	1852.0	1852.0	1852.0	1838.0	1838.0	1810.0	1810.0	1810.0	1840.0	1840.0	1839.0	1839.0	1839.0	1828.0	1828.0	1851.0	1851.0	1851.0	1862.0	1862.0	1865.0	1865.0	1865.0	1811.0	1811.0	1812.0	1812.0	1812.0	1808.0	1808.0	1858.0	1858.0	1858.0	1803.0	1803.0	1836.0	1836.0	1836.0	1864.0	1864.0	1853.0	1853.0	1853.0	1816.0	1816.0	1840.0	1840.0	1840.0	1816.0	1816.0	1825.0	1825.0	1825.0	1814.0	1814.0	1818.0	1818.0	1818.0	1815.0	1815.0	1856.0	1856.0	1856.0	1869.0	1869.0	1816.0	1816.0	1816.0	1831.0	1831.0	1822.0	1822.0	1822.0	1853.0	1853.0	1804.0	1804.0	1804.0	1841.0	1841.0	1811.0	1811.0	1811.0	1827.0	1827.0	1855.0	1855.0	1855.0	1831.0	1831.0	1803.0	1803.0	1803.0	1848.0	1848.0	1840.0	1840.0	1840.0	1831.0	1831.0	1815.0	1815.0	1815.0	1833.0	1833.0	1822.0	1822.0	1822.0	1834.0	1834.0	1785.0	1785.0	1785.0	1816.0	1816.0	1834.0	1834.0	1834.0	1804.0	1804.0	1800.0	1800.0	1800.0	1797.0	1797.0	1785.0	1785.0	1785.0	1796.0	1796.0	1811.0	1811.0	1811.0	1855.0	1855.0	1808.0	1808.0	1808.0	1814.0	1814.0	1805.0	1805.0	1805.0	1793.0	1793.0	1833.0	1833.0	1833.0	1799.0	1799.0	1785.0	1785.0	1785.0	1828.0	1828.0	1803.0	1803.0	1803.0	1782.0	1782.0	1784.0	1784.0	1784.0	1787.0	1787.0	1808.0	1808.0	1808.0	1792.0	1792.0	1785.0	1785.0	1785.0	1768.0	1768.0	1810.0	1810.0	1810.0	1820.0	1820.0	1757.0	1757.0	1757.0	1786.0	1786.0	1775.0	1775.0	1791.0	1791.0	1791.0	1816.0	1816.0	1761.0	1761.0	1761.0	1764.0	1764.0	1754.0	1754.0	1754.0	1797.0	1797.0	1823.0	1823.0	1823.0	1769.0	1769.0	1773.0	1773.0	1773.0	1791.0	1791.0	1818.0	1818.0	1818.0	1818.0	1818.0	1812.0	1812.0	1812.0	1778.0	1778.0	1823.0	1823.0	1823.0	1843.0	1843.0	1778.0	1778.0	1778.0	1797.0	1797.0	1815.0	1815.0	1815.0	1831.0	1831.0	1816.0	1816.0	1816.0	1856.0	1856.0	1876.0	1876.0	1876.0	1840.0	1840.0	1845.0	1845.0	1845.0	1884.0	1884.0	1892.0	1892.0	1892.0	1889.0	1889.0	1905.0	1905.0	1905.0	1927.0	1927.0	1931.0	1931.0	1931.0	1972.0	1972.0	1972.0	1972.0	1972.0	1975.0	1975.0	2000.0	2000.0	2000.0	2006.0	2006.0	2026.0	2026.0	2026.0	2055.0	2055.0	2037.0	2037.0	2037.0	2052.0	2052.0	2111.0	2111.0	2111.0	2113.0	2113.0	2144.0	2144.0	2144.0	2140.0	2140.0	2163.0	2163.0	2163.0	2183.0	2183.0	2202.0	2202.0	2202.0	2231.0	2231.0	2197.0	2197.0	2197.0	2222.0	2222.0	2245.0	2245.0	2245.0	2301.0	2301.0	2310.0	2310.0	2310.0	2313.0	2313.0	2320.0	2320.0	2320.0	2318.0	2318.0	2333.0	2333.0	2333.0	2346.0	2346.0	2355.0	2355.0	2355.0	2376.0	2376.0	2377.0	2377.0	2377.0	2400.0	2400.0	2392.0	2392.0	2392.0	2421.0	2421.0	2428.0	2428.0	2428.0	2435.0	2435.0	2451.0	2451.0	2451.0	2436.0	2436.0	2460.0	2460.0	2460.0	2495.0	2495.0	2467.0	2467.0	2467.0	2466.0	2466.0	2492.0	2492.0	2492.0	2515.0	2515.0	2484.0	2484.0	2484.0	2495.0	2495.0	2496.0	2496.0	2496.0	2504.0	2504.0	2542.0	2542.0	2542.0	2534.0	2534.0	2551.0	2551.0	2551.0	2507.0	2507.0	2514.0	2514.0	2530.0	2530.0	2530.0	2548.0	2548.0	2527.0	2527.0	2527.0	2536.0	2536.0	2522.0	2522.0	2522.0	2545.0	2545.0	2517.0	2517.0	2517.0	2533.0	2533.0	2549.0	2549.0	2549.0	2567.0	2567.0	2514.0	2514.0	2514.0	2532.0	2532.0	2511.0	2511.0	2511.0	2501.0	2501.0	2520.0	2520.0	2520.0	2549.0	2549.0	2511.0	2511.0	2511.0	2540.0	2540.0	2517.0	2517.0	2517.0	2524.0	2524.0	2526.0	2526.0	2526.0	2504.0	2504.0	2501.0	2501.0	2501.0	2528.0	2528.0	2522.0	2522.0	2522.0	2515.0	2515.0	2498.0	2498.0	2498.0	2508.0	2508.0	2467.0	2467.0	2467.0	2505.0	2505.0	2470.0	2470.0	2470.0	2489.0	2489.0	2480.0	2480.0	2480.0	2475.0	2475.0	2463.0	2463.0	2463.0	2479.0	2479.0	2468.0	2468.0	2468.0	2418.0	2418.0	2416.0	2416.0	2416.0	2407.0	2407.0	2415.0	2415.0	2415.0	2435.0	2435.0	2415.0	2415.0	2415.0	2367.0	2367.0	2368.0	2368.0	2368.0	2352.0	2352.0	2378.0	2378.0	2378.0	2347.0	2347.0	2339.0	2339.0	2339.0	2347.0	2347.0	2309.0	2309.0	2309.0	2308.0	2308.0	2278.0	2278.0	2278.0	2283.0	2283.0	2260.0	2260.0	2260.0	2303.0	2303.0	2296.0	2296.0	2296.0	2285.0	2285.0	2277.0	2277.0	2277.0	2231.0	2231.0	2204.0	2204.0	2204.0	2209.0	2209.0	2227.0	2227.0	2227.0	2229.0	2229.0	2239.0	2239.0	2239.0	2198.0	2198.0	2221.0	2221.0	2221.0	2185.0	2185.0	2173.0	2173.0	2173.0	2165.0	2165.0	2178.0	2178.0	2178.0	2171.0	2171.0	2186.0	2186.0	2186.0	2145.0	2145.0	2141.0	2141.0	2141.0	2182.0	2182.0	2141.0	2141.0	2141.0	2168.0	2168.0	2159.0	2159.0	2159.0	2111.0	2111.0	2142.0	2142.0	2133.0	2133.0	2133.0	2132.0	2132.0	2120.0	2120.0	2120.0	2115.0	2115.0	2122.0	2122.0	2122.0	2114.0	2114.0	2134.0	2134.0	2134.0	2104.0	2104.0	2115.0	2115.0	2115.0	2130.0	2130.0	2126.0	2126.0	2126.0	2097.0	2097.0	2125.0	2125.0	2125.0	2077.0	2077.0	2099.0	2099.0	2099.0	2106.0	2106.0	2118.0	2118.0	2118.0	2097.0	2097.0	2099.0	2099.0	2099.0	2081.0	2081.0	2088.0	2088.0	2088.0	2072.0	2072.0	2072.0	2072.0	2072.0	2105.0	2105.0	2070.0	2070.0	2070.0	2053.0	2053.0	2107.0	2107.0	2107.0	2069.0	2069.0	2049.0	2049.0	2049.0	2069.0	2069.0	2071.0	2071.0	2071.0	2068.0	2068.0	2050.0	2050.0	2050.0	2046.0	2046.0	2043.0	2043.0	2043.0	2075.0	2075.0	2047.0	2047.0	2047.0	2046.0	2046.0	2050.0	2050.0	2050.0	2058.0	2058.0	2072.0	2072.0	2072.0	2054.0	2054.0	2011.0	2011.0	2011.0	2046.0	2046.0	2029.0	2029.0	2029.0	2054.0	2054.0	2026.0	2026.0	2026.0	2027.0	2027.0	2019.0	2019.0	2019.0	2041.0	2041.0	2045.0	2045.0	2045.0	2038.0	2038.0	2032.0	2032.0	2032.0	1982.0	1982.0	1995.0	1995.0	1995.0	1973.0	1973.0	2011.0	2011.0	2011.0	2014.0	2014.0	1965.0	1965.0	1965.0	1968.0	1968.0	1998.0	1998.0	1998.0	2009.0	2009.0	1972.0	1972.0	1972.0	1963.0	1963.0	1948.0	1948.0	1948.0	1945.0	1945.0	1991.0	1991.0	1991.0	1944.0	1944.0	1970.0	1970.0	1970.0	1966.0	1966.0	1974.0	1974.0	1974.0	1940.0	1940.0	1967.0	1967.0	1967.0	1924.0	1924.0	1946.0	1946.0	1946.0	1971.0	1971.0	1957.0	1957.0	1957.0	1923.0	1923.0	1905.0	1905.0	1905.0	1904.0	1904.0	1918.0	1918.0	1947.0	1947.0	1947.0	1930.0	1930.0	1919.0	1919.0	1919.0	1937.0	1937.0	1894.0	1894.0	1894.0	1931.0	1931.0	1926.0	1926.0	1926.0	1890.0	1890.0	1900.0	1900.0	1900.0	1881.0	1881.0	1933.0	1933.0	1933.0	1880.0	1880.0	1920.0	1920.0	1920.0	1921.0	1921.0	1888.0	1888.0	1888.0	1912.0	1912.0	1903.0	1903.0	1903.0	1893.0	1893.0	1893.0	1893.0	1893.0	1903.0	1903.0	1853.0	1853.0	1853.0	1883.0	1883.0	1900.0	1900.0	1900.0	1884.0	1884.0	1851.0	1851.0	1851.0	1848.0	1848.0	1862.0	1862.0	1862.0	1886.0	1886.0	1857.0	1857.0	1857.0	1894.0	1894.0	1850.0	1850.0	1850.0	1853.0	1853.0	1833.0	1833.0	1833.0	1854.0	1854.0	1820.0	1820.0	1820.0	1876.0	1876.0	1842.0	1842.0	1842.0	1831.0	1831.0	1834.0	1834.0	1834.0	1868.0	1868.0	1841.0	1841.0	1841.0	1868.0	1868.0	1829.0	1829.0	1829.0	1865.0	1865.0	1839.0	1839.0	1839.0	1841.0	1841.0	1809.0	1809.0	1809.0	1816.0	1816.0	1840.0	1840.0	1840.0	1853.0	1853.0	1841.0	1841.0	1841.0	1862.0	1862.0	1827.0	1827.0	1827.0	1835.0	1835.0	1818.0	1818.0	1818.0	1849.0	1849.0	1827.0	1827.0	1827.0	1864.0	1864.0	1844.0	1844.0	1844.0	1808.0	1808.0	1842.0	1842.0	1842.0	1860.0	1860.0	1855.0	1855.0	1855.0	1841.0	1841.0	1834.0	1834.0	1834.0	1838.0	1838.0	1803.0	1803.0	1803.0	1852.0	1852.0	1809.0	1809.0	1809.0	1838.0	1838.0	1853.0	1853.0	1853.0	1837.0	1837.0	1839.0	1839.0	1839.0	1801.0	1801.0	1832.0	1832.0	1832.0	1844.0	1844.0	1807.0	1807.0	1807.0	1804.0	1804.0	1820.0	1820.0	1820.0	1812.0	1812.0	1834.0	1834.0	1834.0	1803.0	1803.0	1807.0	1807.0	1833.0	1833.0	1833.0	1838.0	1838.0	1812.0	1812.0	1812.0	1819.0	1819.0	1823.0	1823.0	1823.0	1848.0	1848.0	1844.0	1844.0	1844.0	1816.0	1816.0	1844.0	1844.0	1844.0	1814.0	1814.0	1831.0	1831.0	1831.0	1811.0	1811.0	1844.0	1844.0	1844.0	1807.0	1807.0	1802.0	1802.0	1802.0	1808.0	1808.0	1848.0	1848.0	1848.0	1823.0	1823.0	1810.0	1810.0	1810.0	1800.0	1800.0	1820.0	1820.0	1820.0	1801.0	1801.0	1852.0	1852.0	1852.0	1833.0	1833.0	1828.0	1828.0	1828.0	1810.0	1810.0	1783.0	1783.0	1783.0	1797.0	1797.0	1812.0	1812.0	1812.0	1803.0	1803.0	1793.0	1793.0	1793.0	1845.0	1845.0	1820.0	1820.0	1820.0	1791.0	1791.0	1837.0	1837.0	1837.0	1829.0	1829.0	1811.0	1811.0	1811.0	1780.0	1780.0	1830.0	1830.0	1830.0	1808.0	1808.0	1799.0	1799.0	1799.0	1832.0	1832.0	1785.0	1785.0	1785.0	1772.0	1772.0	1798.0	1798.0	1798.0	1810.0	1810.0	1784.0	1784.0	1784.0	1814.0	1814.0	1781.0	1781.0	1781.0	1761.0	1761.0	1824.0	1824.0	1824.0	1835.0	1835.0	1824.0	1824.0	1824.0	1767.0	1767.0	1800.0	1800.0	1800.0	1803.0	1803.0	1823.0	1823.0	1823.0	1812.0	1812.0	1785.0	1785.0	1785.0	1798.0	1798.0	1799.0	1799.0	1799.0	1811.0	1811.0	1798.0	1798.0	1798.0	1758.0	1758.0	1806.0	1806.0	1806.0	1767.0	1767.0	1773.0	1773.0	1773.0	1760.0	1760.0	1783.0	1783.0	1783.0	1775.0	1775.0	1786.0	1786.0	1786.0	1789.0	1789.0	1805.0	1805.0	1805.0	1825.0	1825.0	1785.0	1785.0	1785.0	1812.0	1812.0	1792.0	1792.0	1792.0	1795.0	1795.0	1861.0	1861.0	1861.0	1840.0	1840.0	1854.0	1854.0	1883.0	1883.0	1883.0	1898.0	1898.0	1898.0	1898.0	1898.0	1920.0	1920.0	1916.0	1916.0	1916.0	1906.0	1906.0	1930.0	1930.0	1930.0	1934.0	1934.0	1988.0	1988.0	1988.0	1987.0	1987.0	2018.0	2018.0	2018.0	2028.0	2028.0	2064.0	2064.0	2064.0	2088.0	2088.0	2095.0	2095.0	2095.0	2085.0	2085.0	2127.0	2127.0	2127.0	2143.0	2143.0	2128.0	2128.0	2128.0	2169.0	2169.0	2185.0	2185.0	2185.0	2206.0	2206.0	2192.0	2192.0	2192.0	2255.0	2255.0	2224.0	2224.0	2224.0	2266.0	2266.0	2308.0	2308.0	2308.0	2284.0	2284.0	2291.0	2291.0	2291.0	2340.0	2340.0	2351.0	2351.0	2351.0	2332.0	2332.0	2341.0	2341.0	2341.0	2346.0	2346.0	2362.0	2362.0	2362.0	2411.0	2411.0	2414.0	2414.0	2414.0	2416.0	2416.0	2408.0	2408.0	2408.0	2463.0	2463.0	2464.0	2464.0	2464.0	2437.0	2437.0	2455.0	2455.0	2455.0	2484.0	2484.0	2474.0	2474.0	2474.0	2489.0	2489.0	2464.0	2464.0	2464.0	2503.0	2503.0	2528.0	2528.0	2528.0	2503.0	2503.0	2475.0	2475.0	2475.0	2490.0	2490.0	2525.0	2525.0	2525.0	2550.0	2550.0	2498.0	2498.0	2498.0	2504.0	2504.0	2536.0	2536.0	2536.0	2516.0	2516.0	2527.0	2527.0	2527.0	2524.0	2524.0	2537.0	2537.0	2537.0	2554.0	2554.0	2533.0	2533.0	2533.0	2511.0	2511.0	2539.0	2539.0	2539.0	2537.0	2537.0	2505.0	2505.0	2505.0	2520.0	2520.0	2520.0	2520.0	2520.0	2526.0	2526.0	2495.0	2495.0	2495.0	2526.0	2526.0	2499.0	2499.0	2499.0	2548.0	2548.0	2511.0	2511.0	2511.0	2520.0	2520.0	2504.0	2504.0	2504.0	2484.0	2484.0	2476.0	2476.0	2476.0	2475.0	2475.0	2526.0	2526.0	2526.0	2472.0	2472.0	2507.0	2507.0	2476.0	2476.0	2476.0	2509.0	2509.0	2472.0	2472.0	2472.0	2488.0	2488.0	2462.0	2462.0	2462.0	2465.0	2465.0	2469.0	2469.0	2469.0	2438.0	2438.0	2447.0	2447.0	2447.0	2412.0	2412.0	2425.0	2425.0	2425.0	2419.0	2419.0	2426.0	2426.0	2426.0	2405.0	2405.0	2392.0	2392.0	2392.0	2416.0	2416.0	2396.0	2396.0	2396.0	2384.0	2384.0	2374.0	2374.0	2374.0	2329.0	2329.0	2355.0	2355.0	2355.0	2327.0	2327.0	2320.0	2320.0	2320.0	2314.0	2314.0	2325.0	2325.0	2325.0	2303.0	2303.0	2307.0	2307.0	2307.0	2276.0	2276.0	2254.0	2254.0	2254.0	2277.0	2277.0	2234.0	2234.0	2234.0	2235.0	2235.0	2244.0	2244.0	2244.0	2224.0	2224.0	2246.0	2246.0	2246.0	2243.0	2243.0	2198.0	2198.0	2198.0	2177.0	2177.0	2203.0	2203.0	2203.0	2184.0	2184.0	2168.0	2168.0	2168.0	2167.0	2167.0	2188.0	2188.0	2188.0	2165.0	2165.0	2136.0	2136.0	2136.0	2173.0	2173.0	2190.0	2190.0	2190.0	2164.0	2164.0	2177.0	2177.0	2177.0	2147.0	2147.0	2146.0	2146.0	2146.0	2123.0	2123.0	2124.0	2124.0	2124.0	2123.0	2123.0	2097.0	2097.0	2097.0	2116.0	2116.0	2113.0	2113.0	2113.0	2148.0	2148.0	2106.0	2106.0	2106.0	2125.0	2125.0	2097.0	2097.0	2097.0	2087.0	2087.0	2105.0	2105.0	2105.0	2114.0	2114.0	2125.0	2125.0	2125.0	2121.0	2121.0	2080.0	2080.0	2080.0	2092.0	2092.0	2096.0	2096.0	2096.0	2113.0	2113.0	2092.0	2092.0	2092.0	2070.0	2070.0	2101.0	2101.0	2101.0	2069.0	2069.0	2086.0	2086.0	2086.0	2070.0	2070.0	2100.0	2100.0	2100.0	2121.0	2121.0	2088.0	2088.0	2088.0	2078.0	2078.0	2094.0	2094.0	2102.0	2102.0	2102.0	2042.0	2042.0	2072.0	2072.0	2072.0	2068.0	2068.0	2063.0	2063.0	2063.0	2035.0	2035.0	2048.0	2048.0	2048.0	2091.0	2091.0	2035.0	2035.0	2035.0	2075.0	2075.0	2036.0	2036.0	2036.0	2043.0	2043.0	2068.0	2068.0	2068.0	2034.0	2034.0	2050.0	2050.0	2050.0	2025.0	2025.0	2051.0	2051.0	2051.0	2007.0	2007.0	2012.0	2012.0	2012.0	2014.0	2014.0	2040.0	2040.0	2040.0	2007.0	2007.0	2017.0	2017.0	2017.0	