2040.0	2107.0	2107.0	2107.0	2054.0	2054.0	2040.0	2040.0	2040.0	2104.0	2104.0	2042.0	2042.0	2042.0	2080.0	2080.0	2012.0	2012.0	2012.0	2066.0	2066.0	2069.0	2069.0	2069.0	2018.0	2018.0	1998.0	1998.0	1998.0	2041.0	2041.0	2041.0	2041.0	2041.0	1985.0	1985.0	1970.0	1970.0	1970.0	1971.0	1971.0	1971.0	1971.0	1971.0	1980.0	1980.0	1971.0	1971.0	1971.0	2006.0	2006.0	1940.0	1940.0	1940.0	2005.0	2005.0	1996.0	1996.0	1996.0	1926.0	1926.0	1937.0	1937.0	1937.0	1949.0	1949.0	1926.0	1926.0	1926.0	1943.0	1943.0	1949.0	1949.0	1949.0	1976.0	1976.0	1916.0	1916.0	1916.0	1902.0	1902.0	1896.0	1896.0	1896.0	1916.0	1916.0	1896.0	1896.0	1896.0	1921.0	1921.0	1935.0	1935.0	1935.0	1875.0	1875.0	1915.0	1915.0	1915.0	1869.0	1869.0	1858.0	1858.0	1858.0	1871.0	1871.0	1889.0	1889.0	1889.0	1854.0	1854.0	1849.0	1849.0	1849.0	1854.0	1854.0	1916.0	1916.0	1916.0	1845.0	1845.0	1855.0	1855.0	1855.0	1892.0	1892.0	1840.0	1840.0	1840.0	1876.0	1876.0	1831.0	1831.0	1831.0	1835.0	1835.0	1870.0	1870.0	1870.0	1821.0	1821.0	1881.0	1881.0	1881.0	1871.0	1871.0	1860.0	1860.0	1860.0	1830.0	1830.0	1861.0	1861.0	1861.0	1867.0	1867.0	1795.0	1795.0	1795.0	1856.0	1856.0	1842.0	1842.0	1842.0	1814.0	1814.0	1851.0	1851.0	1851.0	1785.0	1785.0	1837.0	1837.0	1837.0	1846.0	1846.0	1850.0	1850.0	1850.0	1783.0	1783.0	1763.0	1763.0	1763.0	1782.0	1782.0	1770.0	1770.0	1770.0	1823.0	1823.0	1795.0	1795.0	1832.0	1832.0	1832.0	1822.0	1822.0	1825.0	1825.0	1825.0	1783.0	1783.0	1758.0	1758.0	1758.0	1809.0	1809.0	1762.0	1762.0	1762.0	1810.0	1810.0	1809.0	1809.0	1809.0	1787.0	1787.0	1756.0	1756.0	1756.0	1759.0	1759.0	1816.0	1816.0	1816.0	1823.0	1823.0	1755.0	1755.0	1755.0	1816.0	1816.0	1750.0	1750.0	1750.0	1787.0	1787.0	1803.0	1803.0	1803.0	1815.0	1815.0	1748.0	1748.0	1748.0	1789.0	1789.0	1748.0	1748.0	1748.0	1810.0	1810.0	1739.0	1739.0	1739.0	1735.0	1735.0	1791.0	1791.0	1791.0	1748.0	1748.0	1732.0	1732.0	1732.0	1737.0	1737.0	1788.0	1788.0	1788.0	1764.0	1764.0	1741.0	1741.0	1741.0	1776.0	1776.0	1723.0	1723.0	1723.0	1736.0	1736.0	1786.0	1786.0	1786.0	1713.0	1713.0	1727.0	1727.0	1727.0	1715.0	1715.0	1707.0	1707.0	1707.0	1751.0	1751.0	1722.0	1722.0	1722.0	1778.0	1778.0	1717.0	1717.0	1717.0	1790.0	1790.0	1722.0	1722.0	1722.0	1763.0	1763.0	1709.0	1709.0	1709.0	1780.0	1780.0	1723.0	1723.0	1723.0	1733.0	1733.0	1723.0	1723.0	1723.0	1768.0	1768.0	1714.0	1714.0	1714.0	1730.0	1730.0	1749.0	1749.0	1749.0	1759.0	1759.0	1736.0	1736.0	1736.0	1737.0	1737.0	1759.0	1759.0	1759.0	1702.0	1702.0	1736.0	1736.0	1736.0	1740.0	1740.0	1702.0	1702.0	1702.0	1762.0	1762.0	1752.0	1752.0	1752.0	1765.0	1765.0	1691.0	1691.0	1691.0	1760.0	1760.0	1688.0	1688.0	1688.0	1691.0	1691.0	1691.0	1691.0	1691.0	1753.0	1753.0	1726.0	1726.0	1726.0	1695.0	1695.0	1708.0	1708.0	1708.0	1771.0	1771.0	1770.0	1770.0	1770.0	1790.0	1790.0	1732.0	1732.0	1743.0	1743.0	1743.0	1837.0	1837.0	1790.0	1790.0	1790.0	1818.0	1818.0	1888.0	1888.0	1888.0	1839.0	1839.0	1905.0	1905.0	1905.0	1930.0	1930.0	1903.0	1903.0	1903.0	1935.0	1935.0	1994.0	1994.0	1994.0	2036.0	2036.0	2083.0	2083.0	2083.0	2039.0	2039.0	2084.0	2084.0	2084.0	2111.0	2111.0	2176.0	2176.0	2176.0	2169.0	2169.0	2192.0	2192.0	2192.0	2189.0	2189.0	2239.0	2239.0	2239.0	2235.0	2235.0	2287.0	2287.0	2287.0	2340.0	2340.0	2335.0	2335.0	2335.0	2313.0	2313.0	2404.0	2404.0	2404.0	2350.0	2350.0	2370.0	2370.0	2370.0	2427.0	2427.0	2387.0	2387.0	2387.0	2431.0	2431.0	2456.0	2456.0	2456.0	2484.0	2484.0	2515.0	2515.0	2515.0	2496.0	2496.0	2521.0	2521.0	2521.0	2490.0	2490.0	2473.0	2473.0	2473.0	2524.0	2524.0	2525.0	2525.0	2525.0	2518.0	2518.0	2571.0	2571.0	2571.0	2514.0	2514.0	2562.0	2562.0	2562.0	2537.0	2537.0	2554.0	2554.0	2554.0	2530.0	2530.0	2539.0	2539.0	2539.0	2579.0	2579.0	2552.0	2552.0	2552.0	2607.0	2607.0	2595.0	2595.0	2595.0	2602.0	2602.0	2554.0	2554.0	2554.0	2573.0	2573.0	2602.0	2602.0	2602.0	2624.0	2624.0	2599.0	2599.0	2599.0	2568.0	2568.0	2573.0	2573.0	2573.0	2603.0	2603.0	2586.0	2586.0	2586.0	2563.0	2563.0	2613.0	2613.0	2613.0	2623.0	2623.0	2570.0	2570.0	2570.0	2626.0	2626.0	2607.0	2607.0	2607.0	2588.0	2588.0	2616.0	2616.0	2616.0	2634.0	2634.0	2641.0	2641.0	2641.0	2646.0	2646.0	2589.0	2589.0	2589.0	2576.0	2576.0	2585.0	2585.0	2585.0	2645.0	2645.0	2584.0	2584.0	2584.0	2612.0	2612.0	2587.0	2587.0	2574.0	2574.0	2574.0	2559.0	2559.0	2565.0	2565.0	2565.0	2592.0	2592.0	2581.0	2581.0	2581.0	2544.0	2544.0	2602.0	2602.0	2602.0	2539.0	2539.0	2598.0	2598.0	2598.0	2561.0	2561.0	2533.0	2533.0	2533.0	2573.0	2573.0	2572.0	2572.0	2572.0	2522.0	2522.0	2530.0	2530.0	2530.0	2553.0	2553.0	2508.0	2508.0	2508.0	2524.0	2524.0	2524.0	2524.0	2524.0	2491.0	2491.0	2535.0	2535.0	2535.0	2459.0	2459.0	2460.0	2460.0	2460.0	2450.0	2450.0	2439.0	2439.0	2439.0	2459.0	2459.0	2408.0	2408.0	2408.0	2406.0	2406.0	2442.0	2442.0	2442.0	2355.0	2355.0	2351.0	2351.0	2351.0	2361.0	2361.0	2371.0	2371.0	2371.0	2334.0	2334.0	2320.0	2320.0	2320.0	2333.0	2333.0	2336.0	2336.0	2336.0	2263.0	2263.0	2315.0	2315.0	2315.0	2260.0	2260.0	2231.0	2231.0	2231.0	2276.0	2276.0	2283.0	2283.0	2283.0	2245.0	2245.0	2192.0	2192.0	2192.0	2185.0	2185.0	2182.0	2182.0	2182.0	2161.0	2161.0	2224.0	2224.0	2224.0	2208.0	2208.0	2219.0	2219.0	2219.0	2139.0	2139.0	2125.0	2125.0	2125.0	2150.0	2150.0	2160.0	2160.0	2160.0	2179.0	2179.0	2111.0	2111.0	2111.0	2175.0	2175.0	2162.0	2162.0	2162.0	2137.0	2137.0	2091.0	2091.0	2091.0	2115.0	2115.0	2118.0	2118.0	2118.0	2066.0	2066.0	2076.0	2076.0	2076.0	2138.0	2138.0	2072.0	2072.0	2072.0	2106.0	2106.0	2066.0	2066.0	2066.0	2107.0	2107.0	2048.0	2048.0	2048.0	2087.0	2087.0	2056.0	2056.0	2056.0	2077.0	2077.0	2066.0	2066.0	2066.0	2081.0	2081.0	2030.0	2030.0	2030.0	2051.0	2051.0	2071.0	2071.0	2071.0	2031.0	2031.0	2000.0	2000.0	2000.0	2074.0	2074.0	1998.0	1998.0	1997.0	1997.0	1997.0	2049.0	2049.0	2040.0	2040.0	2040.0	2015.0	2015.0	1984.0	1984.0	1984.0	2001.0	2001.0	2034.0	2034.0	2034.0	1958.0	1958.0	2015.0	2015.0	2015.0	1998.0	1998.0	1990.0	1990.0	1990.0	1967.0	1967.0	1945.0	1945.0	1945.0	1961.0	1961.0	1931.0	1931.0	1931.0	2005.0	2005.0	1988.0	1988.0	1988.0	1933.0	1933.0	1935.0	1935.0	1935.0	1971.0	1971.0	1890.0	1890.0	1890.0	1904.0	1904.0	1918.0	1918.0	1918.0	1884.0	1884.0	1898.0	1898.0	1898.0	1948.0	1948.0	1889.0	1889.0	1889.0	1937.0	1937.0	1863.0	1863.0	1863.0	1930.0	1930.0	1867.0	1867.0	1867.0	1862.0	1862.0	1854.0	1854.0	1854.0	1906.0	1906.0	1912.0	1912.0	1912.0	1848.0	1848.0	1870.0	1870.0	1870.0	1841.0	1841.0	1880.0	1880.0	1880.0	1842.0	1842.0	1881.0	1881.0	1881.0	1873.0	1873.0	1839.0	1839.0	1839.0	1858.0	1858.0	1877.0	1877.0	1877.0	1814.0	1814.0	1866.0	1866.0	1866.0	1804.0	1804.0	1847.0	1847.0	1847.0	1800.0	1800.0	1831.0	1831.0	1831.0	1850.0	1850.0	1862.0	1862.0	1862.0	1781.0	1781.0	1826.0	1826.0	1826.0	1817.0	1817.0	1776.0	1776.0	1776.0	1801.0	1801.0	1786.0	1786.0	1786.0	1820.0	1820.0	1802.0	1802.0	1802.0	1820.0	1820.0	1826.0	1826.0	1826.0	1834.0	1834.0	1823.0	1823.0	1823.0	1762.0	1762.0	1812.0	1812.0	1812.0	1794.0	1794.0	1776.0	1776.0	1776.0	1809.0	1809.0	1817.0	1817.0	1817.0	1746.0	1746.0	1749.0	1749.0	1749.0	1778.0	1778.0	1736.0	1736.0	1736.0	1771.0	1771.0	1739.0	1739.0	1739.0	1762.0	1762.0	1753.0	1753.0	1753.0	1741.0	1741.0	1741.0	1741.0	1800.0	1800.0	1800.0	1742.0	1742.0	1732.0	1732.0	1732.0	1776.0	1776.0	1734.0	1734.0	1734.0	1719.0	1719.0	1771.0	1771.0	1771.0	1750.0	1750.0	1750.0	1750.0	1750.0	1721.0	1721.0	1769.0	1769.0	1769.0	1793.0	1793.0	1741.0	1741.0	1741.0	1720.0	1720.0	1759.0	1759.0	1759.0	1775.0	1775.0	1781.0	1781.0	1781.0	1708.0	1708.0	1750.0	1750.0	1750.0	1731.0	1731.0	1770.0	1770.0	1770.0	1703.0	1703.0	1715.0	1715.0	1715.0	1767.0	1767.0	1711.0	1711.0	1711.0	1701.0	1701.0	1755.0	1755.0	1755.0	1694.0	1694.0	1708.0	1708.0	1708.0	1743.0	1743.0	1758.0	1758.0	1758.0	1730.0	1730.0	1756.0	1756.0	1756.0	1761.0	1761.0	1727.0	1727.0	1727.0	1709.0	1709.0	1728.0	1728.0	1728.0	1738.0	1738.0	1739.0	1739.0	1739.0	1728.0	1728.0	1697.0	1697.0	1697.0	1752.0	1752.0	1685.0	1685.0	1685.0	1763.0	1763.0	1681.0	1681.0	1681.0	1748.0	1748.0	1745.0	1745.0	1745.0	1678.0	1678.0	1684.0	1684.0	1684.0	1684.0	1684.0	1667.0	1667.0	1667.0	1741.0	1741.0	1739.0	1739.0	1739.0	1740.0	1740.0	1701.0	1701.0	1701.0	1736.0	1736.0	1677.0	1677.0	1677.0	1671.0	1671.0	1712.0	1712.0	1712.0	1675.0	1675.0	1694.0	1694.0	1694.0	1682.0	1682.0	1675.0	1675.0	1675.0	1707.0	1707.0	1663.0	1663.0	1663.0	1735.0	1735.0	1651.0	1651.0	1651.0	1720.0	1720.0	1722.0	1722.0	1722.0	1650.0	1650.0	1727.0	1727.0	1727.0	1692.0	1692.0	1664.0	1664.0	1664.0	1700.0	1700.0	1722.0	1722.0	1722.0	1684.0	1684.0	1680.0	1680.0	1680.0	1750.0	1750.0	1738.0	1738.0	1738.0	1725.0	1725.0	1730.0	1730.0	1730.0	1752.0	1752.0	1775.0	1775.0	1859.0	1859.0	1859.0	1882.0	1882.0	1838.0	1838.0	1838.0	1934.0	1934.0	1895.0	1895.0	1895.0	1949.0	1949.0	1944.0	1944.0	1944.0	1980.0	1980.0	2061.0	2061.0	2061.0	2053.0	2053.0	2108.0	2108.0	2108.0	2070.0	2070.0	2107.0	2107.0	2107.0	2170.0	2170.0	2218.0	2218.0	2218.0	2237.0	2237.0	2266.0	2266.0	2266.0	2275.0	2275.0	2243.0	2243.0	2243.0	2315.0	2315.0	2309.0	2309.0	2309.0	2310.0	2310.0	2317.0	2317.0	2317.0	2361.0	2361.0	2365.0	2365.0	2365.0	2413.0	2413.0	2366.0	2366.0	2366.0	2414.0	2414.0	2395.0	2395.0	2395.0	2424.0	2424.0	2411.0	2411.0	2411.0	2449.0	2449.0	2439.0	2439.0	2439.0	2470.0	2470.0	2490.0	2490.0	2490.0	2484.0	2484.0	2479.0	2479.0	2479.0	2520.0	2520.0	2503.0	2503.0	2503.0	2536.0	2536.0	2507.0	2507.0	2507.0	2493.0	2493.0	2559.0	2559.0	2559.0	2529.0	2529.0	2539.0	2539.0	2539.0	2515.0	2515.0	2500.0	2500.0	2500.0	2508.0	2508.0	2563.0	2563.0	2563.0	2553.0	2553.0	2543.0	2543.0	2543.0	2538.0	2538.0	2562.0	2562.0	2562.0	2537.0	2537.0	2546.0	2546.0	2546.0	2595.0	2595.0	2583.0	2583.0	2583.0	2590.0	2590.0	2547.0	2547.0	2547.0	2569.0	2569.0	2533.0	2533.0	2533.0	2605.0	2605.0	2572.0	2572.0	2572.0	2567.0	2567.0	2597.0	2597.0	2597.0	2600.0	2600.0	2597.0	2597.0	2597.0	2575.0	2575.0	2600.0	2600.0	2600.0	2563.0	2563.0	2563.0	2563.0	2563.0	2560.0	2560.0	2590.0	2590.0	2590.0	2526.0	2526.0	2587.0	2587.0	2587.0	2572.0	2572.0	2567.0	2567.0	2567.0	2555.0	2555.0	2536.0	2536.0	2536.0	2530.0	2530.0	2536.0	2536.0	2531.0	2531.0	2531.0	2543.0	2543.0	2540.0	2540.0	2540.0	2524.0	2524.0	2539.0	2539.0	2539.0	2540.0	2540.0	2515.0	2515.0	2515.0	2531.0	2531.0	2511.0	2511.0	2511.0	2468.0	2468.0	2437.0	2437.0	2437.0	2462.0	2462.0	2484.0	2484.0	2484.0	2425.0	2425.0	2446.0	2446.0	2446.0	2460.0	2460.0	2453.0	2453.0	2453.0	2446.0	2446.0	2374.0	2374.0	2374.0	2364.0	2364.0	2381.0	2381.0	2381.0	2388.0	2388.0	2389.0	2389.0	2389.0	2309.0	2309.0	2303.0	2303.0	2303.0	2340.0	2340.0	2325.0	2325.0	2325.0	2315.0	2315.0	2250.0	2250.0	2250.0	2236.0	2236.0	2242.0	2242.0	2242.0	2222.0	2222.0	2234.0	2234.0	2234.0	2206.0	2206.0	2187.0	2187.0	2187.0	2239.0	2239.0	2170.0	2170.0	2170.0	2219.0	2219.0	2186.0	2186.0	2186.0	2147.0	2147.0	2145.0	2145.0	2145.0	2176.0	2176.0	2193.0	2193.0	2193.0	2152.0	2152.0	2181.0	2181.0	2181.0	2153.0	2153.0	2114.0	2114.0	2114.0	2135.0	2135.0	2090.0	2090.0	2090.0	2094.0	2094.0	2150.0	2150.0	2150.0	2082.0	2082.0	2087.0	2087.0	2087.0	2123.0	2123.0	2103.0	2103.0	2103.0	2062.0	2062.0	2126.0	2126.0	2126.0	2083.0	2083.0	2080.0	2080.0	2080.0	2067.0	2067.0	2067.0	2067.0	2067.0	2088.0	2088.0	2094.0	2094.0	2094.0	2054.0	2054.0	2068.0	2068.0	2068.0	2074.0	2074.0	2041.0	2041.0	2041.0	2032.0	2032.0	2020.0	2020.0	2020.0	2010.0	2010.0	2031.0	2031.0	2031.0	2042.0	2042.0	2010.0	2010.0	2010.0	1998.0	1998.0	2021.0	2021.0	2021.0	2022.0	2022.0	1980.0	1980.0	1980.0	2046.0	2046.0	1999.0	1999.0	1999.0	1980.0	1980.0	1965.0	1965.0	1980.0	1980.0	1980.0	1964.0	1964.0	2004.0	2004.0	2004.0	1988.0	1988.0	1974.0	1974.0	1974.0	2001.0	2001.0	1993.0	1993.0	1993.0	1937.0	1937.0	1982.0	1982.0	1982.0	1983.0	1983.0	1975.0	1975.0	1975.0	1970.0	1970.0	1933.0	1933.0	1933.0	1911.0	1911.0	1924.0	1924.0	1924.0	1956.0	1956.0	1911.0	1911.0	1911.0	1912.0	1912.0	1912.0	1912.0	1912.0	1932.0	1932.0	1874.0	1874.0	1874.0	1900.0	1900.0	1901.0	1901.0	1901.0	1891.0	1891.0	1917.0	1917.0	1917.0	1910.0	1910.0	1911.0	1911.0	1911.0	1888.0	1888.0	1905.0	1905.0	1905.0	1865.0	1865.0	1895.0	1895.0	1895.0	1897.0	1897.0	1862.0	1862.0	1862.0	1888.0	1888.0	1870.0	1870.0	1870.0	1869.0	1869.0	1836.0	1836.0	1836.0	1833.0	1833.0	1879.0	1879.0	1879.0	1818.0	1818.0	1820.0	1820.0	1820.0	1850.0	1850.0	1854.0	1854.0	1854.0	1824.0	1824.0	1791.0	1791.0	1791.0	1805.0	1805.0	1816.0	1816.0	1816.0	1853.0	1853.0	1834.0	1834.0	1834.0	1804.0	1804.0	1815.0	1815.0	1815.0	1841.0	1841.0	1802.0	1802.0	1802.0	1772.0	1772.0	1832.0	1832.0	1832.0	1780.0	1780.0	1774.0	1774.0	1774.0	1766.0	1766.0	1835.0	1835.0	1835.0	1811.0	1811.0	1801.0	1801.0	1801.0	1822.0	1822.0	1776.0	1776.0	1776.0	1803.0	1803.0	1741.0	1741.0	1741.0	1791.0	1791.0	1823.0	1823.0	1823.0	1801.0	1801.0	1743.0	1743.0	1743.0	1774.0	1774.0	1743.0	1743.0	1743.0	1757.0	1757.0	1802.0	1802.0	1802.0	1748.0	1748.0	1783.0	1783.0	1783.0	1768.0	1768.0	1735.0	1735.0	1735.0	1739.0	1739.0	1782.0	1782.0	1782.0	1749.0	1749.0	1725.0	1725.0	1725.0	1737.0	1737.0	1796.0	1796.0	1720.0	1720.0	1720.0	1739.0	1739.0	1793.0	1793.0	1793.0	1717.0	1717.0	1718.0	1718.0	1718.0	1773.0	1773.0	1771.0	1771.0	1771.0	1780.0	1780.0	1758.0	1758.0	1758.0	1741.0	1741.0	1732.0	1732.0	1732.0	1713.0	1713.0	1716.0	1716.0	1716.0	1732.0	1732.0	1741.0	1741.0	1741.0	1705.0	1705.0	1724.0	1724.0	1724.0	1703.0	1703.0	1713.0	1713.0	1713.0	1705.0	1705.0	1698.0	1698.0	1698.0	1763.0	1763.0	1735.0	1735.0	1735.0	1733.0	1733.0	1711.0	1711.0	1711.0	1771.0	1771.0	1695.0	1695.0	1695.0	1693.0	1693.0	1708.0	1708.0	1708.0	1694.0	1694.0	1707.0	1707.0	1707.0	1737.0	1737.0	1745.0	1745.0	1745.0	1710.0	1710.0	1722.0	1722.0	1722.0	1716.0	1716.0	1755.0	1755.0	1755.0	1680.0	1680.0	1689.0	1689.0	1689.0	1751.0	1751.0	1693.0	1693.0	1693.0	1736.0	1736.0	1707.0	1707.0	1707.0	1726.0	1726.0	1683.0	1683.0	1683.0	1712.0	1712.0	1677.0	1677.0	1677.0	1706.0	1706.0	1736.0	1736.0	1736.0	1747.0	1747.0	1676.0	1676.0	1676.0	1716.0	1716.0	1732.0	1732.0	1732.0	1743.0	1743.0	1660.0	1660.0	1660.0	1711.0	1711.0	1723.0	1723.0	1723.0	1728.0	1728.0	1690.0	1690.0	1690.0	1720.0	1720.0	1678.0	1678.0	1678.0	1671.0	1671.0	1684.0	1684.0	1684.0	1688.0	1688.0	1677.0	1677.0	1677.0	1718.0	1718.0	1696.0	1696.0	1696.0	1743.0	1743.0	1720.0	1720.0	1720.0	1767.0	1767.0	1745.0	1745.0	1745.0	1748.0	1748.0	1776.0	1776.0	1776.0	1779.0	1779.0	1790.0	1790.0	1790.0	1847.0	1847.0	1833.0	1833.0	1833.0	1909.0	1909.0	1919.0	1919.0	1919.0	1905.0	1905.0	1928.0	1928.0	2030.0	2030.0	2030.0	2031.0	2031.0	2064.0	2064.0	2064.0	2115.0	2115.0	2069.0	2069.0	2069.0	2139.0	2139.0	2186.0	2186.0	2186.0	2136.0	2136.0	2248.0	2248.0	2248.0	2271.0	2271.0	2291.0	2291.0	2291.0	2241.0	2241.0	2292.0	2292.0	2292.0	2330.0	2330.0	2299.0	2299.0	2299.0	2380.0	2380.0	2397.0	2397.0	2397.0	2410.0	2410.0	2378.0	2378.0	2378.0	2424.0	2424.0	2403.0	2403.0	2403.0	2424.0	2424.0	2475.0	2475.0	2475.0	2480.0	2480.0	2454.0	2454.0	2454.0	2463.0	2463.0	2504.0	2504.0	2504.0	2533.0	2533.0	2470.0	2470.0	2470.0	2517.0	