1844.0	1857.0	1857.0	1857.0	1840.0	1840.0	1874.0	1874.0	1874.0	1846.0	1846.0	1846.0	1846.0	1846.0	1872.0	1872.0	1848.0	1848.0	1848.0	1872.0	1872.0	1868.0	1868.0	1868.0	1855.0	1855.0	1823.0	1823.0	1823.0	1860.0	1860.0	1828.0	1828.0	1828.0	1852.0	1852.0	1820.0	1820.0	1820.0	1852.0	1852.0	1854.0	1854.0	1854.0	1829.0	1829.0	1832.0	1832.0	1832.0	1854.0	1854.0	1820.0	1820.0	1820.0	1839.0	1839.0	1814.0	1814.0	1814.0	1817.0	1817.0	1825.0	1825.0	1825.0	1834.0	1834.0	1864.0	1864.0	1806.0	1806.0	1806.0	1830.0	1830.0	1851.0	1851.0	1851.0	1826.0	1826.0	1832.0	1832.0	1832.0	1817.0	1817.0	1840.0	1840.0	1840.0	1862.0	1862.0	1818.0	1818.0	1818.0	1839.0	1839.0	1869.0	1869.0	1869.0	1874.0	1874.0	1884.0	1884.0	1884.0	1875.0	1875.0	1873.0	1873.0	1873.0	1890.0	1890.0	1893.0	1893.0	1893.0	1911.0	1911.0	1932.0	1932.0	1932.0	1923.0	1923.0	1943.0	1943.0	1943.0	1975.0	1975.0	1986.0	1986.0	1986.0	1999.0	1999.0	1998.0	1998.0	1998.0	2031.0	2031.0	2024.0	2024.0	2024.0	2037.0	2037.0	2062.0	2062.0	2062.0	2076.0	2076.0	2096.0	2096.0	2096.0	2079.0	2079.0	2075.0	2075.0	2075.0	2091.0	2091.0	2098.0	2098.0	2098.0	2136.0	2136.0	2118.0	2118.0	2118.0	2139.0	2139.0	2124.0	2124.0	2124.0	2175.0	2175.0	2184.0	2184.0	2184.0	2171.0	2171.0	2200.0	2200.0	2200.0	2189.0	2189.0	2187.0	2187.0	2187.0	2206.0	2206.0	2185.0	2185.0	2185.0	2211.0	2211.0	2198.0	2198.0	2198.0	2205.0	2205.0	2196.0	2196.0	2196.0	2228.0	2228.0	2235.0	2235.0	2235.0	2208.0	2208.0	2246.0	2246.0	2246.0	2234.0	2234.0	2245.0	2245.0	2245.0	2212.0	2212.0	2209.0	2209.0	2209.0	2236.0	2236.0	2222.0	2222.0	2222.0	2240.0	2240.0	2237.0	2237.0	2237.0	2230.0	2230.0	2233.0	2233.0	2233.0	2260.0	2260.0	2265.0	2265.0	2265.0	2255.0	2255.0	2245.0	2245.0	2245.0	2257.0	2257.0	2259.0	2259.0	2259.0	2242.0	2242.0	2236.0	2236.0	2236.0	2226.0	2226.0	2254.0	2254.0	2254.0	2248.0	2248.0	2246.0	2246.0	2246.0	2225.0	2225.0	2230.0	2230.0	2230.0	2269.0	2269.0	2231.0	2231.0	2219.0	2219.0	2219.0	2226.0	2226.0	2252.0	2252.0	2252.0	2250.0	2250.0	2273.0	2273.0	2273.0	2245.0	2245.0	2249.0	2249.0	2249.0	2230.0	2230.0	2248.0	2248.0	2248.0	2248.0	2248.0	2258.0	2258.0	2258.0	2254.0	2254.0	2248.0	2248.0	2248.0	2228.0	2228.0	2224.0	2224.0	2224.0	2217.0	2217.0	2208.0	2208.0	2208.0	2238.0	2238.0	2216.0	2216.0	2216.0	2248.0	2248.0	2216.0	2216.0	2216.0	2240.0	2240.0	2235.0	2235.0	2235.0	2218.0	2218.0	2226.0	2226.0	2226.0	2227.0	2227.0	2187.0	2187.0	2187.0	2202.0	2202.0	2205.0	2205.0	2205.0	2190.0	2190.0	2186.0	2186.0	2186.0	2194.0	2194.0	2206.0	2206.0	2206.0	2172.0	2172.0	2184.0	2184.0	2184.0	2164.0	2164.0	2151.0	2151.0	2151.0	2165.0	2165.0	2155.0	2155.0	2155.0	2157.0	2157.0	2147.0	2147.0	2147.0	2139.0	2139.0	2105.0	2105.0	2105.0	2142.0	2142.0	2110.0	2110.0	2110.0	2100.0	2100.0	2096.0	2096.0	2096.0	2069.0	2069.0	2086.0	2086.0	2086.0	2064.0	2064.0	2097.0	2097.0	2097.0	2075.0	2075.0	2083.0	2083.0	2083.0	2074.0	2074.0	2055.0	2055.0	2055.0	2046.0	2046.0	2058.0	2058.0	2058.0	2038.0	2038.0	2048.0	2048.0	2048.0	2054.0	2054.0	2062.0	2062.0	2062.0	2014.0	2014.0	2038.0	2038.0	2038.0	2018.0	2018.0	2019.0	2019.0	2019.0	2008.0	2008.0	2020.0	2020.0	2020.0	2035.0	2035.0	2006.0	2006.0	2006.0	2015.0	2015.0	2018.0	2018.0	2018.0	2028.0	2028.0	1993.0	1993.0	1993.0	1978.0	1978.0	2016.0	2016.0	2016.0	2025.0	2025.0	2016.0	2016.0	2016.0	2007.0	2007.0	2020.0	2020.0	2020.0	2000.0	2000.0	2002.0	2002.0	1990.0	1990.0	1990.0	1994.0	1994.0	1974.0	1974.0	1974.0	1997.0	1997.0	2004.0	2004.0	2004.0	1968.0	1968.0	1962.0	1962.0	1962.0	1992.0	1992.0	1976.0	1976.0	1976.0	1978.0	1978.0	1975.0	1975.0	1975.0	1971.0	1971.0	1981.0	1981.0	1981.0	1968.0	1968.0	1990.0	1990.0	1990.0	1967.0	1967.0	1977.0	1977.0	1977.0	1975.0	1975.0	1975.0	1975.0	1975.0	1961.0	1961.0	1959.0	1959.0	1959.0	1972.0	1972.0	1935.0	1935.0	1935.0	1950.0	1950.0	1962.0	1962.0	1962.0	1940.0	1940.0	1953.0	1953.0	1953.0	1944.0	1944.0	1939.0	1939.0	1939.0	1938.0	1938.0	1945.0	1945.0	1945.0	1928.0	1928.0	1928.0	1928.0	1928.0	1917.0	1917.0	1940.0	1940.0	1940.0	1904.0	1904.0	1926.0	1926.0	1926.0	1938.0	1938.0	1937.0	1937.0	1937.0	1942.0	1942.0	1945.0	1945.0	1945.0	1914.0	1914.0	1889.0	1889.0	1889.0	1902.0	1902.0	1904.0	1904.0	1904.0	1892.0	1892.0	1906.0	1906.0	1906.0	1922.0	1922.0	1900.0	1900.0	1900.0	1886.0	1886.0	1878.0	1878.0	1878.0	1910.0	1910.0	1904.0	1904.0	1904.0	1876.0	1876.0	1912.0	1912.0	1912.0	1905.0	1905.0	1894.0	1894.0	1894.0	1880.0	1880.0	1867.0	1867.0	1867.0	1911.0	1911.0	1864.0	1864.0	1864.0	1887.0	1887.0	1900.0	1900.0	1900.0	1870.0	1870.0	1866.0	1866.0	1866.0	1911.0	1911.0	1863.0	1863.0	1863.0	1873.0	1873.0	1860.0	1860.0	1860.0	1897.0	1897.0	1882.0	1882.0	1882.0	1871.0	1871.0	1888.0	1888.0	1888.0	1896.0	1896.0	1901.0	1901.0	1901.0	1884.0	1884.0	1853.0	1853.0	1853.0	1855.0	1855.0	1863.0	1863.0	1863.0	1858.0	1858.0	1889.0	1889.0	1889.0	1857.0	1857.0	1887.0	1887.0	1884.0	1884.0	1884.0	1857.0	1857.0	1846.0	1846.0	1846.0	1865.0	1865.0	1855.0	1855.0	1855.0	1872.0	1872.0	1850.0	1850.0	1850.0	1850.0	1850.0	1840.0	1840.0	1840.0	1881.0	1881.0	1884.0	1884.0	1884.0	1880.0	1880.0	1855.0	1855.0	1855.0	1863.0	1863.0	1852.0	1852.0	1852.0	1868.0	1868.0	1841.0	1841.0	1841.0	1866.0	1866.0	1836.0	1836.0	1836.0	1867.0	1867.0	1884.0	1884.0	1884.0	1861.0	1861.0	1841.0	1841.0	1841.0	1862.0	1862.0	1831.0	1831.0	1831.0	1872.0	1872.0	1865.0	1865.0	1865.0	1855.0	1855.0	1857.0	1857.0	1857.0	1846.0	1846.0	1838.0	1838.0	1838.0	1874.0	1874.0	1853.0	1853.0	1853.0	1842.0	1842.0	1850.0	1850.0	1850.0	1883.0	1883.0	1839.0	1839.0	1839.0	1852.0	1852.0	1864.0	1864.0	1864.0	1870.0	1870.0	1850.0	1850.0	1850.0	1880.0	1880.0	1836.0	1836.0	1836.0	1855.0	1855.0	1855.0	1855.0	1855.0	1870.0	1870.0	1824.0	1824.0	1824.0	1869.0	1869.0	1869.0	1869.0	1869.0	1846.0	1846.0	1834.0	1834.0	1834.0	1857.0	1857.0	1842.0	1842.0	1842.0	1824.0	1824.0	1867.0	1867.0	1867.0	1840.0	1840.0	1827.0	1827.0	1827.0	1864.0	1864.0	1854.0	1854.0	1854.0	1843.0	1843.0	1837.0	1837.0	1837.0	1859.0	1859.0	1844.0	1844.0	1844.0	1849.0	1849.0	1840.0	1840.0	1840.0	1855.0	1855.0	1866.0	1866.0	1866.0	1826.0	1826.0	1863.0	1863.0	1863.0	1852.0	1852.0	1850.0	1850.0	1850.0	1831.0	1831.0	1830.0	1830.0	1830.0	1843.0	1843.0	1834.0	1834.0	1834.0	1819.0	1819.0	1866.0	1866.0	1866.0	1831.0	1831.0	1844.0	1844.0	1844.0	1855.0	1855.0	1863.0	1863.0	1844.0	1844.0	1844.0	1889.0	1889.0	1882.0	1882.0	1882.0	1907.0	1907.0	1917.0	1917.0	1917.0	1909.0	1909.0	1937.0	1937.0	1937.0	1965.0	1965.0	1963.0	1963.0	1963.0	1962.0	1962.0	1951.0	1951.0	1951.0	1988.0	1988.0	1993.0	1993.0	1993.0	2027.0	2027.0	2044.0	2044.0	2044.0	2038.0	2038.0	2040.0	2040.0	2040.0	2062.0	2062.0	2082.0	2082.0	2082.0	2089.0	2089.0	2113.0	2113.0	2113.0	2122.0	2122.0	2096.0	2096.0	2096.0	2124.0	2124.0	2128.0	2128.0	2128.0	2128.0	2128.0	2148.0	2148.0	2148.0	2161.0	2161.0	2150.0	2150.0	2150.0	2175.0	2175.0	2164.0	2164.0	2164.0	2191.0	2191.0	2177.0	2177.0	2177.0	2210.0	2210.0	2224.0	2224.0	2224.0	2189.0	2189.0	2200.0	2200.0	2200.0	2230.0	2230.0	2216.0	2216.0	2216.0	2230.0	2230.0	2218.0	2218.0	2218.0	2230.0	2230.0	2212.0	2212.0	2212.0	2228.0	2228.0	2251.0	2251.0	2251.0	2244.0	2244.0	2252.0	2252.0	2252.0	2225.0	2225.0	2232.0	2232.0	2232.0	2257.0	2257.0	2261.0	2261.0	2261.0	2246.0	2246.0	2230.0	2230.0	2230.0	2272.0	2272.0	2253.0	2253.0	2253.0	2253.0	2253.0	2260.0	2260.0	2260.0	2257.0	2257.0	2251.0	2251.0	2251.0	2251.0	2251.0	2246.0	2246.0	2246.0	2255.0	2255.0	2263.0	2263.0	2263.0	2267.0	2267.0	2260.0	2260.0	2260.0	2239.0	2239.0	2246.0	2246.0	2246.0	2272.0	2272.0	2238.0	2238.0	2238.0	2245.0	2245.0	2253.0	2253.0	2253.0	2261.0	2261.0	2238.0	2238.0	2238.0	2243.0	2243.0	2230.0	2230.0	2230.0	2237.0	2237.0	2245.0	2245.0	2245.0	2234.0	2234.0	2232.0	2232.0	2232.0	2238.0	2238.0	2240.0	2240.0	2240.0	2254.0	2254.0	2207.0	2207.0	2240.0	2240.0	2240.0	2238.0	2238.0	2240.0	2240.0	2240.0	2215.0	2215.0	2211.0	2211.0	2211.0	2256.0	2256.0	2221.0	2221.0	2221.0	2230.0	2230.0	2233.0	2233.0	2233.0	2212.0	2212.0	2237.0	2237.0	2237.0	2209.0	2209.0	2213.0	2213.0	2213.0	2202.0	2202.0	2207.0	2207.0	2207.0	2214.0	2214.0	2203.0	2203.0	2203.0	2201.0	2201.0	2189.0	2189.0	2189.0	2177.0	2177.0	2149.0	2149.0	2149.0	2171.0	2171.0	2186.0	2186.0	2186.0	2132.0	2132.0	2140.0	2140.0	2140.0	2163.0	2163.0	2148.0	2148.0	2148.0	2145.0	2145.0	2131.0	2131.0	2131.0	2112.0	2112.0	2090.0	2090.0	2090.0	2114.0	2114.0	2092.0	2092.0	2092.0	2096.0	2096.0	2093.0	2093.0	2093.0	2085.0	2085.0	2097.0	2097.0	2097.0	2097.0	2097.0	2081.0	2081.0	2081.0	2077.0	2077.0	2076.0	2076.0	2076.0	2065.0	2065.0	2045.0	2045.0	2045.0	2064.0	2064.0	2047.0	2047.0	2047.0	2064.0	2064.0	2062.0	2062.0	2062.0	2045.0	2045.0	2025.0	2025.0	2025.0	2038.0	2038.0	2019.0	2019.0	2019.0	2022.0	2022.0	2045.0	2045.0	2045.0	2024.0	2024.0	2047.0	2047.0	2047.0	2048.0	2048.0	2048.0	2048.0	2048.0	2052.0	2052.0	2019.0	2019.0	2019.0	2050.0	2050.0	2037.0	2037.0	2037.0	2028.0	2028.0	2020.0	2020.0	2020.0	2020.0	2020.0	2024.0	2024.0	2024.0	2010.0	2010.0	2017.0	2017.0	2017.0	2003.0	2003.0	2033.0	2033.0	2033.0	2032.0	2032.0	2012.0	2012.0	2012.0	2010.0	2010.0	1990.0	1990.0	1990.0	1994.0	1994.0	2000.0	2000.0	2000.0	2022.0	2022.0	2032.0	2032.0	2032.0	2003.0	2003.0	1985.0	1985.0	1985.0	2001.0	2001.0	1979.0	1979.0	1995.0	1995.0	1995.0	1995.0	1995.0	2015.0	2015.0	2015.0	1998.0	1998.0	1966.0	1966.0	1966.0	1988.0	1988.0	1980.0	1980.0	1980.0	1958.0	1958.0	1983.0	1983.0	1983.0	1961.0	1961.0	1971.0	1971.0	1971.0	1989.0	1989.0	1959.0	1959.0	1959.0	1955.0	1955.0	1954.0	1954.0	1954.0	1959.0	1959.0	1954.0	1954.0	1954.0	1959.0	1959.0	1970.0	1970.0	1970.0	1972.0	1972.0	1978.0	1978.0	1978.0	1977.0	1977.0	1953.0	1953.0	1953.0	1992.0	1992.0	1953.0	1953.0	1953.0	1945.0	1945.0	1941.0	1941.0	1941.0	1957.0	1957.0	1944.0	1944.0	1944.0	1935.0	1935.0	1959.0	1959.0	1959.0	1944.0	1944.0	1954.0	1954.0	1954.0	1940.0	1940.0	1913.0	1913.0	1913.0	1929.0	1929.0	1927.0	1927.0	1927.0	1910.0	1910.0	1947.0	1947.0	1947.0	1920.0	1920.0	1924.0	1924.0	1924.0	1931.0	1931.0	1928.0	1928.0	1928.0	1935.0	1935.0	1937.0	1937.0	1937.0	1953.0	1953.0	1925.0	1925.0	1925.0	1901.0	1901.0	1911.0	1911.0	1911.0	1919.0	1919.0	1898.0	1898.0	1898.0	1899.0	1899.0	1907.0	1907.0	1907.0	1931.0	1931.0	1916.0	1916.0	1916.0	1926.0	1926.0	1900.0	1900.0	1900.0	1911.0	1911.0	1923.0	1923.0	1923.0	1904.0	1904.0	1900.0	1900.0	1900.0	1895.0	1895.0	1891.0	1891.0	1891.0	1890.0	1890.0	1923.0	1923.0	1923.0	1891.0	1891.0	1914.0	1914.0	1914.0	1909.0	1909.0	1887.0	1887.0	1887.0	1881.0	1881.0	1899.0	1899.0	1899.0	1908.0	1908.0	1890.0	1890.0	1890.0	1910.0	1910.0	1883.0	1883.0	1883.0	1902.0	1902.0	1884.0	1884.0	1884.0	1887.0	1887.0	1880.0	1880.0	1880.0	1912.0	1912.0	1904.0	1904.0	1874.0	1874.0	1874.0	1895.0	1895.0	1876.0	1876.0	1876.0	1906.0	1906.0	1907.0	1907.0	1907.0	1881.0	1881.0	1875.0	1875.0	1875.0	1882.0	1882.0	1901.0	1901.0	1901.0	1860.0	1860.0	1876.0	1876.0	1876.0	1903.0	1903.0	1908.0	1908.0	1908.0	1900.0	1900.0	1877.0	1877.0	1877.0	1901.0	1901.0	1916.0	1916.0	1916.0	1903.0	1903.0	1903.0	1903.0	1903.0	1879.0	1879.0	1895.0	1895.0	1895.0	1905.0	1905.0	1873.0	1873.0	1873.0	1886.0	1886.0	1889.0	1889.0	1889.0	1900.0	1900.0	1880.0	1880.0	1880.0	1869.0	1869.0	1863.0	1863.0	1863.0	1860.0	1860.0	1859.0	1859.0	1859.0	1875.0	1875.0	1867.0	1867.0	1867.0	1880.0	1880.0	1892.0	1892.0	1892.0	1869.0	1869.0	1886.0	1886.0	1886.0	1876.0	1876.0	1865.0	1865.0	1865.0	1869.0	1869.0	1865.0	1865.0	1865.0	1883.0	1883.0	1866.0	1866.0	1866.0	1881.0	1881.0	1862.0	1862.0	1862.0	1875.0	1875.0	1886.0	1886.0	1886.0	1872.0	1872.0	1862.0	1862.0	1862.0	1861.0	1861.0	1859.0	1859.0	1859.0	1884.0	1884.0	1889.0	1889.0	1889.0	1885.0	1885.0	1879.0	1879.0	1879.0	1877.0	1877.0	1867.0	1867.0	1867.0	1885.0	1885.0	1856.0	1856.0	1856.0	1880.0	1880.0	1888.0	1888.0	1888.0	1870.0	1870.0	1890.0	1890.0	1890.0	1892.0	1892.0	1873.0	1873.0	1873.0	1879.0	1879.0	1880.0	1880.0	1880.0	1886.0	1886.0	1876.0	1876.0	1876.0	1911.0	1911.0	1880.0	1880.0	1880.0	1900.0	1900.0	1934.0	1934.0	1934.0	1927.0	1927.0	1929.0	1929.0	1929.0	1940.0	1940.0	1944.0	1944.0	1944.0	1963.0	1963.0	1992.0	1992.0	1992.0	1991.0	1991.0	1995.0	1995.0	1995.0	2046.0	2046.0	2051.0	2051.0	2047.0	2047.0	2047.0	2088.0	2088.0	2086.0	2086.0	2086.0	2083.0	2083.0	2084.0	2084.0	2084.0	2112.0	2112.0	2146.0	2146.0	2146.0	2147.0	2147.0	2154.0	2154.0	2154.0	2143.0	2143.0	2161.0	2161.0	2161.0	2153.0	2153.0	2197.0	2197.0	2197.0	2190.0	2190.0	2222.0	2222.0	2222.0	2203.0	2203.0	2198.0	2198.0	2198.0	2203.0	2203.0	2224.0	2224.0	2224.0	2230.0	2230.0	2242.0	2242.0	2242.0	2232.0	2232.0	2240.0	2240.0	2240.0	2244.0	2244.0	2250.0	2250.0	2250.0	2255.0	2255.0	2234.0	2234.0	2234.0	2240.0	2240.0	2267.0	2267.0	2267.0	2272.0	2272.0	2257.0	2257.0	2257.0	2251.0	2251.0	2282.0	2282.0	2282.0	2279.0	2279.0	2285.0	2285.0	2285.0	2254.0	2254.0	2285.0	2285.0	2285.0	2293.0	2293.0	2289.0	2289.0	2289.0	2254.0	2254.0	2274.0	2274.0	2274.0	2269.0	2269.0	2296.0	2296.0	2296.0	2279.0	2279.0	2300.0	2300.0	2300.0	2260.0	2260.0	2272.0	2272.0	2272.0	2272.0	2272.0	2300.0	2300.0	2300.0	2268.0	2268.0	2285.0	2285.0	2285.0	2295.0	2295.0	2273.0	2273.0	2273.0	2283.0	2283.0	2271.0	2271.0	2271.0	2308.0	2308.0	2284.0	2284.0	2284.0	2324.0	2324.0	2286.0	2286.0	2286.0	2289.0	2289.0	2277.0	2277.0	2277.0	2298.0	2298.0	2308.0	2308.0	2308.0	2265.0	2265.0	2287.0	2287.0	2287.0	2299.0	2299.0	2287.0	2287.0	2287.0	2266.0	2266.0	2277.0	2277.0	2277.0	2298.0	2298.0	2287.0	2287.0	2287.0	2291.0	2291.0	2270.0	2270.0	2270.0	2271.0	2271.0	2280.0	2280.0	2280.0	2250.0	2250.0	2281.0	2281.0	2281.0	2237.0	2237.0	2285.0	2285.0	2285.0	2270.0	2270.0	2238.0	2238.0	2264.0	2264.0	2264.0	2254.0	2254.0	2235.0	2235.0	2235.0	2258.0	2258.0	2262.0	2262.0	2262.0	2221.0	2221.0	2260.0	2260.0	2260.0	2219.0	2219.0	2215.0	2215.0	2215.0	2209.0	2209.0	2195.0	2195.0	2195.0	2211.0	2211.0	2186.0	2186.0	2186.0	2208.0	2208.0	2175.0	2175.0	2175.0	2221.0	2221.0	2169.0	2169.0	2169.0	2185.0	2185.0	2198.0	2198.0	2198.0	2185.0	2185.0	2153.0	2153.0	2153.0	2155.0	2155.0	2177.0	2177.0	2177.0	2157.0	2157.0	2140.0	2140.0	2140.0	2124.0	2124.0	2142.0	2142.0	2142.0	2133.0	2133.0	2108.0	2108.0	2108.0	2124.0	2124.0	2107.0	2107.0	2107.0	2084.0	2084.0	2097.0	2097.0	2097.0	2082.0	2082.0	2104.0	2104.0	2104.0	2092.0	2092.0	2070.0	2070.0	2070.0	2079.0	2079.0	2071.0	2071.0	2071.0	2066.0	2066.0	2092.0	2092.0	2092.0	2062.0	2062.0	2059.0	2059.0	2059.0	2068.0	2068.0	2067.0	2067.0	2067.0	2062.0	2062.0	2069.0	2069.0	2069.0	2059.0	2059.0	2053.0	2053.0	2053.0	2057.0	2057.0	2040.0	2040.0	2040.0	2049.0	2049.0	2046.0	2046.0	2046.0	2057.0	2057.0	2026.0	2026.0	2026.0	2063.0	2063.0	2051.0	2051.0	2051.0	2059.0	2059.0	2058.0	2058.0	2058.0	2027.0	2027.0	2034.0	2034.0	2034.0	2022.0	2022.0	2034.0	2034.0	2034.0	2014.0	2014.0	2034.0	2034.0	2034.0	2027.0	2027.0	2044.0	2044.0	2044.0	2041.0	2041.0	2043.0	2043.0	2043.0	2028.0	2028.0	2044.0	2044.0	2044.0	2036.0	2036.0	1999.0	1999.0	1999.0	2020.0	2020.0	2029.0	2029.0	2029.0	2003.0	2003.0	2004.0	2004.0	2004.0	2009.0	2009.0	1997.0	1997.0	1997.0	2026.0	