2251.0	2251.0	2251.0	2237.0	2237.0	2224.0	2224.0	2224.0	2209.0	2209.0	2182.0	2182.0	2182.0	2211.0	2211.0	2199.0	2199.0	2199.0	2207.0	2207.0	2174.0	2174.0	2174.0	2184.0	2184.0	2180.0	2180.0	2164.0	2164.0	2164.0	2131.0	2131.0	2137.0	2137.0	2137.0	2147.0	2147.0	2125.0	2125.0	2125.0	2115.0	2115.0	2105.0	2105.0	2105.0	2114.0	2114.0	2103.0	2103.0	2103.0	2095.0	2095.0	2116.0	2116.0	2116.0	2110.0	2110.0	2069.0	2069.0	2069.0	2083.0	2083.0	2071.0	2071.0	2071.0	2075.0	2075.0	2090.0	2090.0	2090.0	2055.0	2055.0	2071.0	2071.0	2071.0	2039.0	2039.0	2071.0	2071.0	2071.0	2067.0	2067.0	2042.0	2042.0	2042.0	2058.0	2058.0	2017.0	2017.0	2017.0	2060.0	2060.0	2039.0	2039.0	2039.0	2032.0	2032.0	2026.0	2026.0	2026.0	2028.0	2028.0	2046.0	2046.0	2046.0	2016.0	2016.0	1995.0	1995.0	1995.0	2025.0	2025.0	1977.0	1977.0	1977.0	1998.0	1998.0	1967.0	1967.0	1967.0	1979.0	1979.0	1999.0	1999.0	1999.0	1991.0	1991.0	2001.0	2001.0	2001.0	1985.0	1985.0	1987.0	1987.0	1987.0	1995.0	1995.0	1944.0	1944.0	1944.0	1973.0	1973.0	1947.0	1947.0	1947.0	1978.0	1978.0	1929.0	1929.0	1929.0	1960.0	1960.0	1926.0	1926.0	1926.0	1947.0	1947.0	1935.0	1935.0	1935.0	1924.0	1924.0	1936.0	1936.0	1936.0	1912.0	1912.0	1915.0	1915.0	1915.0	1925.0	1925.0	1906.0	1906.0	1906.0	1900.0	1900.0	1916.0	1916.0	1916.0	1882.0	1882.0	1880.0	1880.0	1880.0	1884.0	1884.0	1892.0	1892.0	1892.0	1904.0	1904.0	1878.0	1878.0	1878.0	1865.0	1865.0	1898.0	1898.0	1898.0	1874.0	1874.0	1877.0	1877.0	1877.0	1897.0	1897.0	1849.0	1849.0	1849.0	1860.0	1860.0	1845.0	1845.0	1845.0	1854.0	1854.0	1855.0	1855.0	1855.0	1863.0	1863.0	1837.0	1837.0	1837.0	1829.0	1829.0	1837.0	1837.0	1837.0	1831.0	1831.0	1800.0	1800.0	1846.0	1846.0	1846.0	1847.0	1847.0	1810.0	1810.0	1810.0	1845.0	1845.0	1835.0	1835.0	1835.0	1818.0	1818.0	1823.0	1823.0	1823.0	1831.0	1831.0	1796.0	1796.0	1796.0	1785.0	1785.0	1805.0	1805.0	1805.0	1780.0	1780.0	1808.0	1808.0	1808.0	1811.0	1811.0	1791.0	1791.0	1791.0	1770.0	1770.0	1770.0	1770.0	1770.0	1801.0	1801.0	1777.0	1777.0	1777.0	1804.0	1804.0	1780.0	1780.0	1780.0	1792.0	1792.0	1770.0	1770.0	1770.0	1809.0	1809.0	1771.0	1771.0	1771.0	1786.0	1786.0	1775.0	1775.0	1775.0	1778.0	1778.0	1791.0	1791.0	1791.0	1783.0	1783.0	1762.0	1762.0	1762.0	1777.0	1777.0	1742.0	1742.0	1742.0	1787.0	1787.0	1746.0	1746.0	1746.0	1765.0	1765.0	1779.0	1779.0	1779.0	1776.0	1776.0	1737.0	1737.0	1737.0	1765.0	1765.0	1741.0	1741.0	1741.0	1750.0	1750.0	1759.0	1759.0	1759.0	1767.0	1767.0	1745.0	1745.0	1745.0	1751.0	1751.0	1729.0	1729.0	1729.0	1747.0	1747.0	1732.0	1732.0	1732.0	1757.0	1757.0	1725.0	1725.0	1725.0	1725.0	1725.0	1743.0	1743.0	1743.0	1746.0	1746.0	1726.0	1726.0	1726.0	1738.0	1738.0	1717.0	1717.0	1717.0	1719.0	1719.0	1749.0	1749.0	1749.0	1746.0	1746.0	1749.0	1749.0	1749.0	1716.0	1716.0	1751.0	1751.0	1751.0	1730.0	1730.0	1743.0	1743.0	1743.0	1763.0	1763.0	1729.0	1729.0	1729.0	1732.0	1732.0	1737.0	1737.0	1737.0	1713.0	1713.0	1723.0	1723.0	1723.0	1712.0	1712.0	1756.0	1756.0	1756.0	1724.0	1724.0	1714.0	1714.0	1714.0	1727.0	1727.0	1726.0	1726.0	1726.0	1728.0	1728.0	1718.0	1718.0	1718.0	1748.0	1748.0	1738.0	1738.0	1703.0	1703.0	1703.0	1741.0	1741.0	1735.0	1735.0	1735.0	1749.0	1749.0	1740.0	1740.0	1740.0	1721.0	1721.0	1723.0	1723.0	1723.0	1723.0	1723.0	1710.0	1710.0	1710.0	1741.0	1741.0	1704.0	1704.0	1704.0	1717.0	1717.0	1750.0	1750.0	1750.0	1716.0	1716.0	1708.0	1708.0	1708.0	1738.0	1738.0	1728.0	1728.0	1728.0	1733.0	1733.0	1733.0	1733.0	1733.0	1725.0	1725.0	1751.0	1751.0	1751.0	1721.0	1721.0	1739.0	1739.0	1739.0	1714.0	1714.0	1742.0	1742.0	1742.0	1727.0	1727.0	1767.0	1767.0	1767.0	1745.0	1745.0	1733.0	1733.0	1733.0	1735.0	1735.0	1742.0	1742.0	1742.0	1741.0	1741.0	1727.0	1727.0	1727.0	1715.0	1715.0	1712.0	1712.0	1712.0	1762.0	1762.0	1746.0	1746.0	1746.0	1744.0	1744.0	1746.0	1746.0	1746.0	1726.0	1726.0	1753.0	1753.0	1753.0	1758.0	1758.0	1771.0	1771.0	1771.0	1764.0	1764.0	1793.0	1793.0	1793.0	1823.0	1823.0	1870.0	1870.0	1870.0	1846.0	1846.0	1888.0	1888.0	1888.0	1933.0	1933.0	1950.0	1950.0	1950.0	1991.0	1991.0	1990.0	1990.0	1990.0	2025.0	2025.0	2048.0	2048.0	2048.0	2077.0	2077.0	2123.0	2123.0	2123.0	2175.0	2175.0	2190.0	2190.0	2190.0	2213.0	2213.0	2224.0	2224.0	2224.0	2241.0	2241.0	2281.0	2281.0	2281.0	2290.0	2290.0	2340.0	2340.0	2340.0	2325.0	2325.0	2370.0	2370.0	2370.0	2410.0	2410.0	2392.0	2392.0	2392.0	2418.0	2418.0	2411.0	2411.0	2411.0	2446.0	2446.0	2465.0	2465.0	2465.0	2491.0	2491.0	2473.0	2473.0	2473.0	2497.0	2497.0	2498.0	2498.0	2498.0	2482.0	2482.0	2488.0	2488.0	2488.0	2509.0	2509.0	2489.0	2489.0	2497.0	2497.0	2497.0	2523.0	2523.0	2526.0	2526.0	2526.0	2520.0	2520.0	2526.0	2526.0	2526.0	2493.0	2493.0	2506.0	2506.0	2506.0	2490.0	2490.0	2551.0	2551.0	2551.0	2505.0	2505.0	2534.0	2534.0	2534.0	2497.0	2497.0	2504.0	2504.0	2504.0	2527.0	2527.0	2507.0	2507.0	2507.0	2516.0	2516.0	2509.0	2509.0	2509.0	2484.0	2484.0	2500.0	2500.0	2500.0	2488.0	2488.0	2471.0	2471.0	2471.0	2491.0	2491.0	2487.0	2487.0	2487.0	2476.0	2476.0	2475.0	2475.0	2475.0	2453.0	2453.0	2443.0	2443.0	2443.0	2446.0	2446.0	2433.0	2433.0	2433.0	2456.0	2456.0	2421.0	2421.0	2421.0	2417.0	2417.0	2444.0	2444.0	2444.0	2413.0	2413.0	2394.0	2394.0	2394.0	2402.0	2402.0	2373.0	2373.0	2373.0	2382.0	2382.0	2407.0	2407.0	2407.0	2345.0	2345.0	2362.0	2362.0	2362.0	2365.0	2365.0	2365.0	2365.0	2365.0	2340.0	2340.0	2343.0	2343.0	2343.0	2329.0	2329.0	2288.0	2288.0	2288.0	2314.0	2314.0	2309.0	2309.0	2309.0	2281.0	2281.0	2294.0	2294.0	2294.0	2264.0	2264.0	2264.0	2264.0	2264.0	2277.0	2277.0	2255.0	2255.0	2255.0	2214.0	2214.0	2243.0	2243.0	2243.0	2238.0	2238.0	2229.0	2229.0	2229.0	2217.0	2217.0	2221.0	2221.0	2221.0	2184.0	2184.0	2209.0	2209.0	2209.0	2185.0	2185.0	2179.0	2179.0	2179.0	2178.0	2178.0	2146.0	2146.0	2146.0	2159.0	2159.0	2170.0	2170.0	2170.0	2166.0	2166.0	2172.0	2172.0	2172.0	2146.0	2146.0	2136.0	2136.0	2136.0	2163.0	2163.0	2136.0	2136.0	2136.0	2147.0	2147.0	2153.0	2153.0	2153.0	2129.0	2129.0	2139.0	2139.0	2139.0	2124.0	2124.0	2096.0	2096.0	2096.0	2109.0	2109.0	2128.0	2128.0	2111.0	2111.0	2111.0	2090.0	2090.0	2114.0	2114.0	2114.0	2093.0	2093.0	2072.0	2072.0	2072.0	2079.0	2079.0	2107.0	2107.0	2107.0	2087.0	2087.0	2095.0	2095.0	2095.0	2082.0	2082.0	2057.0	2057.0	2057.0	2047.0	2047.0	2084.0	2084.0	2084.0	2060.0	2060.0	2046.0	2046.0	2046.0	2029.0	2029.0	2045.0	2045.0	2045.0	2041.0	2041.0	2046.0	2046.0	2046.0	2058.0	2058.0	2016.0	2016.0	2016.0	2027.0	2027.0	2047.0	2047.0	2047.0	2003.0	2003.0	1990.0	1990.0	1990.0	1999.0	1999.0	2006.0	2006.0	2006.0	1999.0	1999.0	2005.0	2005.0	2005.0	2009.0	2009.0	2007.0	2007.0	2007.0	1947.0	1947.0	1967.0	1967.0	1967.0	1996.0	1996.0	1995.0	1995.0	1995.0	1966.0	1966.0	1947.0	1947.0	1947.0	1943.0	1943.0	1956.0	1956.0	1956.0	1969.0	1969.0	1955.0	1955.0	1955.0	1954.0	1954.0	1952.0	1952.0	1952.0	1924.0	1924.0	1952.0	1952.0	1952.0	1929.0	1929.0	1929.0	1929.0	1929.0	1910.0	1910.0	1921.0	1921.0	1921.0	1923.0	1923.0	1923.0	1923.0	1923.0	1900.0	1900.0	1902.0	1902.0	1902.0	1893.0	1893.0	1914.0	1914.0	1914.0	1898.0	1898.0	1876.0	1876.0	1876.0	1879.0	1879.0	1876.0	1876.0	1876.0	1877.0	1877.0	1898.0	1898.0	1898.0	1864.0	1864.0	1857.0	1857.0	1857.0	1862.0	1862.0	1863.0	1863.0	1863.0	1855.0	1855.0	1838.0	1838.0	1838.0	1829.0	1829.0	1840.0	1840.0	1840.0	1847.0	1847.0	1851.0	1851.0	1851.0	1851.0	1851.0	1857.0	1857.0	1857.0	1869.0	1869.0	1828.0	1828.0	1828.0	1846.0	1846.0	1839.0	1839.0	1839.0	1847.0	1847.0	1841.0	1841.0	1841.0	1811.0	1811.0	1848.0	1848.0	1825.0	1825.0	1825.0	1832.0	1832.0	1813.0	1813.0	1813.0	1847.0	1847.0	1821.0	1821.0	1821.0	1815.0	1815.0	1808.0	1808.0	1808.0	1793.0	1793.0	1811.0	1811.0	1811.0	1818.0	1818.0	1815.0	1815.0	1815.0	1829.0	1829.0	1827.0	1827.0	1827.0	1826.0	1826.0	1803.0	1803.0	1803.0	1770.0	1770.0	1783.0	1783.0	1783.0	1794.0	1794.0	1806.0	1806.0	1806.0	1809.0	1809.0	1819.0	1819.0	1819.0	1778.0	1778.0	1786.0	1786.0	1786.0	1811.0	1811.0	1797.0	1797.0	1797.0	1778.0	1778.0	1780.0	1780.0	1780.0	1792.0	1792.0	1785.0	1785.0	1785.0	1768.0	1768.0	1773.0	1773.0	1773.0	1783.0	1783.0	1764.0	1764.0	1764.0	1759.0	1759.0	1772.0	1772.0	1772.0	1795.0	1795.0	1770.0	1770.0	1770.0	1763.0	1763.0	1777.0	1777.0	1777.0	1784.0	1784.0	1774.0	1774.0	1774.0	1771.0	1771.0	1746.0	1746.0	1746.0	1755.0	1755.0	1748.0	1748.0	1748.0	1767.0	1767.0	1779.0	1779.0	1779.0	1771.0	1771.0	1738.0	1738.0	1738.0	1745.0	1745.0	1734.0	1734.0	1734.0	1775.0	1775.0	1771.0	1771.0	1771.0	1742.0	1742.0	1772.0	1772.0	1772.0	1771.0	1771.0	1748.0	1748.0	1748.0	1773.0	1773.0	1779.0	1779.0	1779.0	1761.0	1761.0	1741.0	1741.0	1741.0	1745.0	1745.0	1765.0	1765.0	1765.0	1729.0	1729.0	1719.0	1719.0	1719.0	1752.0	1752.0	1736.0	1736.0	1736.0	1749.0	1749.0	1754.0	1754.0	1754.0	1750.0	1750.0	1733.0	1733.0	1733.0	1742.0	1742.0	1750.0	1750.0	1750.0	1729.0	1729.0	1734.0	1734.0	1734.0	1758.0	1758.0	1708.0	1708.0	1708.0	1720.0	1720.0	1706.0	1706.0	1706.0	1744.0	1744.0	1721.0	1721.0	1748.0	1748.0	1748.0	1732.0	1732.0	1744.0	1744.0	1744.0	1713.0	1713.0	1749.0	1749.0	1749.0	1748.0	1748.0	1723.0	1723.0	1723.0	1746.0	1746.0	1729.0	1729.0	1729.0	1739.0	1739.0	1755.0	1755.0	1755.0	1743.0	1743.0	1770.0	1770.0	1770.0	1755.0	1755.0	1793.0	1793.0	1793.0	1805.0	1805.0	1828.0	1828.0	1828.0	1847.0	1847.0	1847.0	1847.0	1847.0	1875.0	1875.0	1892.0	1892.0	1892.0	1950.0	1950.0	1987.0	1987.0	1987.0	1986.0	1986.0	2040.0	2040.0	2040.0	2039.0	2039.0	2084.0	2084.0	2084.0	2083.0	2083.0	2150.0	2150.0	2150.0	2179.0	2179.0	2191.0	2191.0	2191.0	2211.0	2211.0	2232.0	2232.0	2232.0	2264.0	2264.0	2281.0	2281.0	2281.0	2311.0	2311.0	2335.0	2335.0	2335.0	2351.0	2351.0	2340.0	2340.0	2340.0	2360.0	2360.0	2388.0	2388.0	2388.0	2415.0	2415.0	2426.0	2426.0	2426.0	2444.0	2444.0	2432.0	2432.0	2432.0	2435.0	2435.0	2452.0	2452.0	2452.0	2471.0	2471.0	2477.0	2477.0	2477.0	2463.0	2463.0	2457.0	2457.0	2457.0	2501.0	2501.0	2480.0	2480.0	2480.0	2496.0	2496.0	2487.0	2487.0	2487.0	2492.0	2492.0	2504.0	2504.0	2504.0	2535.0	2535.0	2502.0	2502.0	2502.0	2509.0	2509.0	2524.0	2524.0	2524.0	2501.0	2501.0	2512.0	2512.0	2512.0	2523.0	2523.0	2507.0	2507.0	2507.0	2488.0	2488.0	2528.0	2528.0	2528.0	2516.0	2516.0	2500.0	2500.0	2500.0	2496.0	2496.0	2498.0	2498.0	2498.0	2504.0	2504.0	2472.0	2472.0	2472.0	2473.0	2473.0	2489.0	2489.0	2489.0	2446.0	2446.0	2459.0	2459.0	2459.0	2474.0	2474.0	2458.0	2458.0	2458.0	2436.0	2436.0	2405.0	2405.0	2405.0	2411.0	2411.0	2421.0	2421.0	2439.0	2439.0	2439.0	2419.0	2419.0	2372.0	2372.0	2372.0	2390.0	2390.0	2379.0	2379.0	2379.0	2350.0	2350.0	2379.0	2379.0	2379.0	2336.0	2336.0	2369.0	2369.0	2369.0	2346.0	2346.0	2316.0	2316.0	2316.0	2307.0	2307.0	2314.0	2314.0	2314.0	2285.0	2285.0	2299.0	2299.0	2299.0	2265.0	2265.0	2265.0	2265.0	2265.0	2262.0	2262.0	2264.0	2264.0	2264.0	2233.0	2233.0	2238.0	2238.0	2238.0	2212.0	2212.0	2231.0	2231.0	2231.0	2207.0	2207.0	2232.0	2232.0	2232.0	2189.0	2189.0	2200.0	2200.0	2200.0	2183.0	2183.0	2153.0	2153.0	2153.0	2165.0	2165.0	2152.0	2152.0	2152.0	2162.0	2162.0	2138.0	2138.0	2138.0	2123.0	2123.0	2131.0	2131.0	2131.0	2121.0	2121.0	2140.0	2140.0	2140.0	2081.0	2081.0	2097.0	2097.0	2097.0	2086.0	2086.0	2104.0	2104.0	2104.0	2116.0	2116.0	2076.0	2076.0	2076.0	2084.0	2084.0	2066.0	2066.0	2066.0	2069.0	2069.0	2080.0	2080.0	2080.0	2056.0	2056.0	2092.0	2092.0	2092.0	2050.0	2050.0	2059.0	2059.0	2059.0	2037.0	2037.0	2052.0	2052.0	2052.0	2041.0	2041.0	2028.0	2028.0	2028.0	2047.0	2047.0	2031.0	2031.0	2031.0	2019.0	2019.0	2053.0	2053.0	2053.0	2031.0	2031.0	2040.0	2040.0	2040.0	2024.0	2024.0	2030.0	2030.0	2030.0	2008.0	2008.0	2012.0	2012.0	2012.0	2006.0	2006.0	2010.0	2010.0	2010.0	2007.0	2007.0	2018.0	2018.0	2018.0	1987.0	1987.0	2002.0	2002.0	2002.0	1990.0	1990.0	1989.0	1989.0	1989.0	1978.0	1978.0	1967.0	1967.0	1967.0	1945.0	1945.0	1949.0	1949.0	1949.0	1978.0	1978.0	1946.0	1946.0	1946.0	1947.0	1947.0	1938.0	1938.0	1933.0	1933.0	1933.0	1948.0	1948.0	1945.0	1945.0	1945.0	1956.0	1956.0	1956.0	1956.0	1956.0	1917.0	1917.0	1939.0	1939.0	1939.0	1896.0	1896.0	1931.0	1931.0	1931.0	1935.0	1935.0	1891.0	1891.0	1891.0	1906.0	1906.0	1910.0	1910.0	1910.0	1892.0	1892.0	1881.0	1881.0	1881.0	1915.0	1915.0	1883.0	1883.0	1883.0	1924.0	1924.0	1899.0	1899.0	1899.0	1861.0	1861.0	1879.0	1879.0	1879.0	1901.0	1901.0	1881.0	1881.0	1881.0	1870.0	1870.0	1868.0	1868.0	1868.0	1868.0	1868.0	1889.0	1889.0	1889.0	1866.0	1866.0	1854.0	1854.0	1854.0	1870.0	1870.0	1876.0	1876.0	1876.0	1836.0	1836.0	1849.0	1849.0	1849.0	1868.0	1868.0	1858.0	1858.0	1858.0	1830.0	1830.0	1863.0	1863.0	1863.0	1852.0	1852.0	1826.0	1826.0	1826.0	1852.0	1852.0	1843.0	1843.0	1843.0	1817.0	1817.0	1849.0	1849.0	1849.0	1840.0	1840.0	1805.0	1805.0	1805.0	1816.0	1816.0	1810.0	1810.0	1810.0	1851.0	1851.0	1841.0	1841.0	1841.0	1798.0	1798.0	1799.0	1799.0	1799.0	1807.0	1807.0	1803.0	1803.0	1803.0	1784.0	1784.0	1779.0	1779.0	1779.0	1815.0	1815.0	1789.0	1789.0	1789.0	1827.0	1827.0	1792.0	1792.0	1792.0	1793.0	1793.0	1808.0	1808.0	1808.0	1776.0	1776.0	1761.0	1761.0	1761.0	1783.0	1783.0	1803.0	1803.0	1803.0	1802.0	1802.0	1758.0	1758.0	1758.0	1754.0	1754.0	1763.0	1763.0	1763.0	1748.0	1748.0	1786.0	1786.0	1786.0	1764.0	1764.0	1776.0	1776.0	1776.0	1782.0	1782.0	1785.0	1785.0	1785.0	1781.0	1781.0	1786.0	1786.0	1786.0	1758.0	1758.0	1785.0	1785.0	1785.0	1779.0	1779.0	1780.0	1780.0	1780.0	1787.0	1787.0	1750.0	1750.0	1759.0	1759.0	1759.0	1775.0	1775.0	1743.0	1743.0	1743.0	1757.0	1757.0	1751.0	1751.0	1751.0	1778.0	1778.0	1733.0	1733.0	1733.0	1771.0	1771.0	1741.0	1741.0	1741.0	1764.0	1764.0	1732.0	1732.0	1732.0	1728.0	1728.0	1781.0	1781.0	1781.0	1748.0	1748.0	1746.0	1746.0	1746.0	1767.0	1767.0	1728.0	1728.0	1728.0	1757.0	1757.0	1743.0	1743.0	1743.0	1729.0	1729.0	1780.0	1780.0	1780.0	1762.0	1762.0	1723.0	1723.0	1723.0	1724.0	1724.0	1718.0	1718.0	1718.0	1760.0	1760.0	1757.0	1757.0	1757.0	1721.0	1721.0	1767.0	1767.0	1767.0	1716.0	1716.0	1763.0	1763.0	1763.0	1739.0	1739.0	1769.0	1769.0	1769.0	1756.0	1756.0	1760.0	1760.0	1760.0	1759.0	1759.0	1737.0	1737.0	1737.0	1769.0	1769.0	1781.0	1781.0	1781.0	1779.0	1779.0	1743.0	1743.0	1743.0	1723.0	1723.0	1751.0	1751.0	1751.0	1724.0	1724.0	1738.0	1738.0	1738.0	1739.0	1739.0	1724.0	1724.0	1724.0	1734.0	1734.0	1750.0	1750.0	1750.0	1760.0	1760.0	1764.0	1764.0	1764.0	1734.0	1734.0	1719.0	1719.0	1719.0	1742.0	1742.0	1763.0	1763.0	1763.0	1764.0	1764.0	1767.0	1767.0	1767.0	1747.0	1747.0	1747.0	1747.0	1747.0	1777.0	1777.0	1803.0	1803.0	1803.0	1797.0	1797.0	1771.0	1771.0	1771.0	1802.0	1802.0	1849.0	1849.0	1849.0	1868.0	1868.0	1874.0	1874.0	1874.0	1921.0	1921.0	1923.0	1923.0	1923.0	1979.0	1979.0	1972.0	1972.0	1972.0	2060.0	2060.0	2064.0	2064.0	2064.0	2078.0	2078.0	2123.0	2123.0	2123.0	2150.0	2150.0	2152.0	2152.0	2152.0	2227.0	2227.0	2228.0	2228.0	2228.0	2278.0	2278.0	2275.0	2275.0	2326.0	2326.0	2326.0	2303.0	2303.0	2354.0	2354.0	2354.0	2354.0	2354.0	2361.0	2361.0	2361.0	2399.0	2399.0	2393.0	2393.0	2393.0	2444.0	2444.0	2434.0	2434.0	2434.0	2467.0	2467.0	2470.0	2470.0	2470.0	2455.0	2455.0	2498.0	2498.0	2498.0	