2610.0	2610.0	2610.0	2526.0	2526.0	2521.0	2521.0	2521.0	2560.0	2560.0	2525.0	2525.0	2525.0	2509.0	2509.0	2491.0	2491.0	2491.0	2498.0	2498.0	2488.0	2488.0	2488.0	2461.0	2461.0	2461.0	2461.0	2461.0	2453.0	2453.0	2452.0	2452.0	2452.0	2441.0	2441.0	2439.0	2439.0	2439.0	2501.0	2501.0	2439.0	2439.0	2439.0	2473.0	2473.0	2435.0	2435.0	2435.0	2408.0	2408.0	2397.0	2397.0	2397.0	2450.0	2450.0	2423.0	2423.0	2423.0	2376.0	2376.0	2339.0	2339.0	2339.0	2383.0	2383.0	2340.0	2340.0	2340.0	2306.0	2306.0	2309.0	2309.0	2309.0	2305.0	2305.0	2309.0	2309.0	2309.0	2241.0	2241.0	2294.0	2294.0	2294.0	2295.0	2295.0	2199.0	2199.0	2199.0	2217.0	2217.0	2238.0	2238.0	2238.0	2206.0	2206.0	2215.0	2215.0	2215.0	2167.0	2167.0	2142.0	2142.0	2142.0	2119.0	2119.0	2134.0	2134.0	2134.0	2058.0	2058.0	2099.0	2099.0	2099.0	2115.0	2115.0	2095.0	2095.0	2095.0	2038.0	2038.0	2093.0	2093.0	2093.0	2000.0	2000.0	2066.0	2066.0	2066.0	2016.0	2016.0	2008.0	2008.0	2008.0	2058.0	2058.0	1987.0	1987.0	1987.0	1978.0	1978.0	1973.0	1973.0	1973.0	2011.0	2011.0	1961.0	1961.0	1961.0	1967.0	1967.0	1977.0	1977.0	1977.0	1951.0	1951.0	1992.0	1992.0	1992.0	1959.0	1959.0	2023.0	2023.0	2023.0	1955.0	1955.0	2027.0	2027.0	2027.0	1971.0	1971.0	2030.0	2030.0	2030.0	1967.0	1967.0	2008.0	2008.0	2008.0	1973.0	1973.0	1968.0	1968.0	1968.0	1999.0	1999.0	1991.0	1991.0	1991.0	2003.0	2003.0	2011.0	2011.0	2029.0	2029.0	2029.0	1944.0	1944.0	1951.0	1951.0	1951.0	1951.0	1951.0	1976.0	1976.0	1976.0	2016.0	2016.0	2000.0	2000.0	2000.0	1972.0	1972.0	2003.0	2003.0	2003.0	1984.0	1984.0	2004.0	2004.0	2004.0	1999.0	1999.0	1933.0	1933.0	1933.0	1955.0	1955.0	1962.0	1962.0	1962.0	1974.0	1974.0	1992.0	1992.0	1992.0	1911.0	1911.0	1911.0	1911.0	1911.0	1899.0	1899.0	1960.0	1960.0	1960.0	1973.0	1973.0	1907.0	1907.0	1907.0	1890.0	1890.0	1884.0	1884.0	1884.0	1908.0	1908.0	1892.0	1892.0	1892.0	1937.0	1937.0	1919.0	1919.0	1919.0	1876.0	1876.0	1880.0	1880.0	1880.0	1890.0	1890.0	1922.0	1922.0	1922.0	1927.0	1927.0	1851.0	1851.0	1851.0	1903.0	1903.0	1842.0	1842.0	1842.0	1837.0	1837.0	1865.0	1865.0	1865.0	1888.0	1888.0	1851.0	1851.0	1851.0	1879.0	1879.0	1813.0	1813.0	1813.0	1810.0	1810.0	1803.0	1803.0	1803.0	1783.0	1783.0	1789.0	1789.0	1789.0	1850.0	1850.0	1806.0	1806.0	1806.0	1828.0	1828.0	1784.0	1784.0	1784.0	1765.0	1765.0	1805.0	1805.0	1805.0	1832.0	1832.0	1793.0	1793.0	1793.0	1829.0	1829.0	1810.0	1810.0	1810.0	1808.0	1808.0	1796.0	1796.0	1796.0	1739.0	1739.0	1739.0	1739.0	1739.0	1761.0	1761.0	1799.0	1799.0	1799.0	1804.0	1804.0	1731.0	1731.0	1731.0	1735.0	1735.0	1724.0	1724.0	1724.0	1790.0	1790.0	1725.0	1725.0	1725.0	1789.0	1789.0	1744.0	1744.0	1744.0	1723.0	1723.0	1772.0	1772.0	1772.0	1703.0	1703.0	1779.0	1779.0	1779.0	1749.0	1749.0	1758.0	1758.0	1758.0	1721.0	1721.0	1703.0	1703.0	1703.0	1690.0	1690.0	1747.0	1747.0	1747.0	1724.0	1724.0	1742.0	1742.0	1695.0	1695.0	1695.0	1688.0	1688.0	1691.0	1691.0	1691.0	1701.0	1701.0	1706.0	1706.0	1706.0	1701.0	1701.0	1691.0	1691.0	1691.0	1755.0	1755.0	1671.0	1671.0	1671.0	1677.0	1677.0	1767.0	1767.0	1767.0	1684.0	1684.0	1752.0	1752.0	1752.0	1683.0	1683.0	1734.0	1734.0	1734.0	1730.0	1730.0	1684.0	1684.0	1684.0	1677.0	1677.0	1745.0	1745.0	1745.0	1673.0	1673.0	1728.0	1728.0	1728.0	1711.0	1711.0	1677.0	1677.0	1677.0	1690.0	1690.0	1731.0	1731.0	1731.0	1739.0	1739.0	1740.0	1740.0	1740.0	1694.0	1694.0	1686.0	1686.0	1686.0	1673.0	1673.0	1742.0	1742.0	1742.0	1739.0	1739.0	1720.0	1720.0	1720.0	1747.0	1747.0	1681.0	1681.0	1681.0	1704.0	1704.0	1660.0	1660.0	1660.0	1735.0	1735.0	1691.0	1691.0	1691.0	1708.0	1708.0	1659.0	1659.0	1659.0	1659.0	1659.0	1733.0	1733.0	1733.0	1742.0	1742.0	1735.0	1735.0	1735.0	1661.0	1661.0	1671.0	1671.0	1671.0	1659.0	1659.0	1646.0	1646.0	1646.0	1670.0	1670.0	1694.0	1694.0	1694.0	1725.0	1725.0	1716.0	1716.0	1716.0	1685.0	1685.0	1666.0	1666.0	1666.0	1730.0	1730.0	1722.0	1722.0	1722.0	1719.0	1719.0	1713.0	1713.0	1713.0	1650.0	1650.0	1671.0	1671.0	1671.0	1721.0	1721.0	1716.0	1716.0	1716.0	1640.0	1640.0	1730.0	1730.0	1730.0	1639.0	1639.0	1727.0	1727.0	1727.0	1692.0	1692.0	1719.0	1719.0	1719.0	1668.0	1668.0	1638.0	1638.0	1638.0	1652.0	1652.0	1660.0	1660.0	1660.0	1656.0	1656.0	1643.0	1643.0	1643.0	1637.0	1637.0	1667.0	1667.0	1667.0	1705.0	1705.0	1707.0	1707.0	1707.0	1660.0	1660.0	1706.0	1706.0	1659.0	1659.0	1659.0	1707.0	1707.0	1649.0	1649.0	1649.0	1673.0	1673.0	1721.0	1721.0	1721.0	1657.0	1657.0	1721.0	1721.0	1721.0	1680.0	1680.0	1695.0	1695.0	1695.0	1746.0	1746.0	1672.0	1672.0	1672.0	1770.0	1770.0	1771.0	1771.0	1771.0	1787.0	1787.0	1752.0	1752.0	1752.0	1731.0	1731.0	1770.0	1770.0	1770.0	1817.0	1817.0	1798.0	1798.0	1798.0	1875.0	1875.0	1852.0	1852.0	1852.0	1929.0	1929.0	1949.0	1949.0	1949.0	1967.0	1967.0	1996.0	1996.0	1996.0	2032.0	2032.0	2000.0	2000.0	2000.0	2033.0	2033.0	2139.0	2139.0	2139.0	2097.0	2097.0	2198.0	2198.0	2198.0	2212.0	2212.0	2270.0	2270.0	2270.0	2238.0	2238.0	2256.0	2256.0	2256.0	2320.0	2320.0	2387.0	2387.0	2387.0	2428.0	2428.0	2411.0	2411.0	2411.0	2462.0	2462.0	2433.0	2433.0	2433.0	2527.0	2527.0	2496.0	2496.0	2496.0	2570.0	2570.0	2519.0	2519.0	2519.0	2549.0	2549.0	2582.0	2582.0	2582.0	2573.0	2573.0	2654.0	2654.0	2654.0	2601.0	2601.0	2667.0	2667.0	2667.0	2655.0	2655.0	2693.0	2693.0	2693.0	2631.0	2631.0	2699.0	2699.0	2699.0	2656.0	2656.0	2665.0	2665.0	2665.0	2727.0	2727.0	2710.0	2710.0	2710.0	2730.0	2730.0	2667.0	2667.0	2667.0	2658.0	2658.0	2655.0	2655.0	2655.0	2710.0	2710.0	2707.0	2707.0	2707.0	2711.0	2711.0	2695.0	2695.0	2695.0	2710.0	2710.0	2634.0	2634.0	2634.0	2706.0	2706.0	2685.0	2685.0	2685.0	2619.0	2619.0	2682.0	2682.0	2682.0	2623.0	2623.0	2614.0	2614.0	2614.0	2668.0	2668.0	2646.0	2646.0	2646.0	2659.0	2659.0	2604.0	2604.0	2604.0	2575.0	2575.0	2553.0	2553.0	2555.0	2555.0	2555.0	2581.0	2581.0	2555.0	2555.0	2555.0	2547.0	2547.0	2531.0	2531.0	2531.0	2568.0	2568.0	2591.0	2591.0	2591.0	2502.0	2502.0	2540.0	2540.0	2540.0	2491.0	2491.0	2467.0	2467.0	2467.0	2515.0	2515.0	2487.0	2487.0	2487.0	2522.0	2522.0	2439.0	2439.0	2439.0	2470.0	2470.0	2419.0	2419.0	2419.0	2437.0	2437.0	2437.0	2437.0	2437.0	2402.0	2402.0	2419.0	2419.0	2419.0	2356.0	2356.0	2415.0	2415.0	2415.0	2317.0	2317.0	2342.0	2342.0	2342.0	2291.0	2291.0	2336.0	2336.0	2336.0	2303.0	2303.0	2260.0	2260.0	2260.0	2301.0	2301.0	2283.0	2283.0	2283.0	2252.0	2252.0	2227.0	2227.0	2227.0	2167.0	2167.0	2196.0	2196.0	2196.0	2150.0	2150.0	2111.0	2111.0	2111.0	2141.0	2141.0	2126.0	2126.0	2126.0	2136.0	2136.0	2104.0	2104.0	2104.0	2056.0	2056.0	2055.0	2055.0	2055.0	2091.0	2091.0	2035.0	2035.0	2035.0	2022.0	2022.0	2034.0	2034.0	2034.0	2045.0	2045.0	2080.0	2080.0	2080.0	2001.0	2001.0	2073.0	2073.0	2073.0	2029.0	2029.0	2022.0	2022.0	2022.0	2046.0	2046.0	2020.0	2020.0	2020.0	1992.0	1992.0	2000.0	2000.0	2000.0	1989.0	1989.0	2023.0	2023.0	2023.0	1988.0	1988.0	2034.0	2034.0	2034.0	2041.0	2041.0	2019.0	2019.0	2019.0	2021.0	2021.0	2011.0	2011.0	2011.0	1988.0	1988.0	1990.0	1990.0	1990.0	2001.0	2001.0	1992.0	1992.0	1992.0	2024.0	2024.0	1981.0	1981.0	1981.0	1972.0	1972.0	2034.0	2034.0	2034.0	1987.0	1987.0	1976.0	1976.0	1976.0	2033.0	2033.0	2032.0	2032.0	2032.0	1998.0	1998.0	2022.0	2022.0	2022.0	1970.0	1970.0	1957.0	1957.0	1957.0	1997.0	1997.0	1994.0	1994.0	1950.0	1950.0	1950.0	1983.0	1983.0	1964.0	1964.0	1964.0	1933.0	1933.0	1975.0	1975.0	1975.0	1967.0	1967.0	1949.0	1949.0	1949.0	1973.0	1973.0	1914.0	1914.0	1914.0	1993.0	1993.0	1923.0	1923.0	1923.0	1940.0	1940.0	1913.0	1913.0	1913.0	1976.0	1976.0	1901.0	1901.0	1901.0	1918.0	1918.0	1901.0	1901.0	1901.0	1911.0	1911.0	1930.0	1930.0	1930.0	1924.0	1924.0	1933.0	1933.0	1933.0	1878.0	1878.0	1899.0	1899.0	1899.0	1904.0	1904.0	1863.0	1863.0	1863.0	1835.0	1835.0	1905.0	1905.0	1905.0	1865.0	1865.0	1889.0	1889.0	1889.0	1850.0	1850.0	1857.0	1857.0	1857.0	1814.0	1814.0	1795.0	1795.0	1795.0	1855.0	1855.0	1865.0	1865.0	1865.0	1866.0	1866.0	1810.0	1810.0	1810.0	1768.0	1768.0	1819.0	1819.0	1819.0	1830.0	1830.0	1777.0	1777.0	1777.0	1818.0	1818.0	1798.0	1798.0	1798.0	1757.0	1757.0	1803.0	1803.0	1803.0	1746.0	1746.0	1830.0	1830.0	1830.0	1750.0	1750.0	1775.0	1775.0	1775.0	1798.0	1798.0	1765.0	1765.0	1765.0	1797.0	1797.0	1788.0	1788.0	1788.0	1741.0	1741.0	1731.0	1731.0	1731.0	1730.0	1730.0	1797.0	1797.0	1797.0	1792.0	1792.0	1710.0	1710.0	1710.0	1787.0	1787.0	1771.0	1771.0	1771.0	1773.0	1773.0	1758.0	1758.0	1758.0	1780.0	1780.0	1711.0	1711.0	1711.0	1776.0	1776.0	1776.0	1776.0	1776.0	1743.0	1743.0	1704.0	1704.0	1704.0	1703.0	1703.0	1777.0	1777.0	1777.0	1694.0	1694.0	1703.0	1703.0	1703.0	1763.0	1763.0	1686.0	1686.0	1686.0	1699.0	1699.0	1694.0	1694.0	1694.0	1695.0	1695.0	1742.0	1742.0	1742.0	1758.0	1758.0	1690.0	1690.0	1711.0	1711.0	1711.0	1696.0	1696.0	1742.0	1742.0	1742.0	1709.0	1709.0	1750.0	1750.0	1750.0	1751.0	1751.0	1704.0	1704.0	1704.0	1761.0	1761.0	1750.0	1750.0	1750.0	1694.0	1694.0	1682.0	1682.0	1682.0	1738.0	1738.0	1676.0	1676.0	1676.0	1684.0	1684.0	1682.0	1682.0	1682.0	1735.0	1735.0	1744.0	1744.0	1744.0	1715.0	1715.0	1754.0	1754.0	1754.0	1738.0	1738.0	1723.0	1723.0	1723.0	1736.0	1736.0	1689.0	1689.0	1689.0	1748.0	1748.0	1736.0	1736.0	1736.0	1672.0	1672.0	1685.0	1685.0	1685.0	1667.0	1667.0	1672.0	1672.0	1672.0	1672.0	1672.0	1669.0	1669.0	1669.0	1743.0	1743.0	1760.0	1760.0	1760.0	1696.0	1696.0	1674.0	1674.0	1674.0	1743.0	1743.0	1668.0	1668.0	1668.0	1705.0	1705.0	1753.0	1753.0	1753.0	1676.0	1676.0	1725.0	1725.0	1725.0	1757.0	1757.0	1680.0	1680.0	1680.0	1707.0	1707.0	1725.0	1725.0	1725.0	1756.0	1756.0	1759.0	1759.0	1759.0	1686.0	1686.0	1718.0	1718.0	1718.0	1709.0	1709.0	1693.0	1693.0	1693.0	1718.0	1718.0	1757.0	1757.0	1757.0	1763.0	1763.0	1694.0	1694.0	1694.0	1771.0	1771.0	1696.0	1696.0	1696.0	1756.0	1756.0	1682.0	1682.0	1682.0	1757.0	1757.0	1755.0	1755.0	1755.0	1705.0	1705.0	1737.0	1737.0	1737.0	1693.0	1693.0	1743.0	1743.0	1743.0	1722.0	1722.0	1722.0	1722.0	1722.0	1737.0	1737.0	1693.0	1693.0	1693.0	1776.0	1776.0	1699.0	1699.0	1699.0	1775.0	1775.0	1704.0	1704.0	1704.0	1750.0	1750.0	1755.0	1755.0	1755.0	1779.0	1779.0	1713.0	1713.0	1713.0	1740.0	1740.0	1799.0	1799.0	1799.0	1731.0	1731.0	1738.0	1738.0	1738.0	1825.0	1825.0	1810.0	1810.0	1766.0	1766.0	1766.0	1857.0	1857.0	1844.0	1844.0	1844.0	1888.0	1888.0	1879.0	1879.0	1879.0	1885.0	1885.0	1895.0	1895.0	1895.0	1908.0	1908.0	2003.0	2003.0	2003.0	2030.0	2030.0	2039.0	2039.0	2039.0	2063.0	2063.0	2034.0	2034.0	2034.0	2089.0	2089.0	2186.0	2186.0	2186.0	2217.0	2217.0	2250.0	2250.0	2250.0	2207.0	2207.0	2245.0	2245.0	2245.0	2322.0	2322.0	2336.0	2336.0	2336.0	2380.0	2380.0	2419.0	2419.0	2419.0	2470.0	2470.0	2464.0	2464.0	2464.0	2503.0	2503.0	2498.0	2498.0	2498.0	2545.0	2545.0	2539.0	2539.0	2539.0	2594.0	2594.0	2583.0	2583.0	2583.0	2636.0	2636.0	2682.0	2682.0	2682.0	2644.0	2644.0	2669.0	2669.0	2669.0	2712.0	2712.0	2674.0	2674.0	2674.0	2698.0	2698.0	2695.0	2695.0	2695.0	2769.0	2769.0	2702.0	2702.0	2702.0	2710.0	2710.0	2787.0	2787.0	2787.0	2776.0	2776.0	2785.0	2785.0	2785.0	2735.0	2735.0	2755.0	2755.0	2755.0	2776.0	2776.0	2795.0	2795.0	2795.0	2727.0	2727.0	2785.0	2785.0	2785.0	2713.0	2713.0	2713.0	2713.0	2713.0	2789.0	2789.0	2783.0	2783.0	2783.0	2757.0	2757.0	2699.0	2699.0	2699.0	2713.0	2713.0	2695.0	2695.0	2695.0	2716.0	2716.0	2680.0	2680.0	2680.0	2732.0	2732.0	2741.0	2741.0	2741.0	2675.0	2675.0	2693.0	2693.0	2693.0	2653.0	2653.0	2718.0	2718.0	2718.0	2716.0	2716.0	2645.0	2645.0	2645.0	2649.0	2649.0	2677.0	2677.0	2677.0	2635.0	2635.0	2625.0	2625.0	2625.0	2638.0	2638.0	2640.0	2640.0	2640.0	2585.0	2585.0	2582.0	2582.0	2582.0	2596.0	2596.0	2567.0	2567.0	2567.0	2626.0	2626.0	2634.0	2634.0	2573.0	2573.0	2573.0	2531.0	2531.0	2538.0	2538.0	2538.0	2592.0	2592.0	2580.0	2580.0	2580.0	2552.0	2552.0	2538.0	2538.0	2538.0	2515.0	2515.0	2459.0	2459.0	2459.0	2441.0	2441.0	2464.0	2464.0	2464.0	2504.0	2504.0	2430.0	2430.0	2430.0	2392.0	2392.0	2420.0	2420.0	2420.0	2420.0	2420.0	2422.0	2422.0	2422.0	2322.0	2322.0	2405.0	2405.0	2405.0	2317.0	2317.0	2353.0	2353.0	2353.0	2271.0	2271.0	2297.0	2297.0	2297.0	2289.0	2289.0	2283.0	2283.0	2283.0	2222.0	2222.0	2255.0	2255.0	2255.0	2257.0	2257.0	2184.0	2184.0	2184.0	2168.0	2168.0	2150.0	2150.0	2150.0	2199.0	2199.0	2180.0	2180.0	2180.0	2178.0	2178.0	2127.0	2127.0	2127.0	2163.0	2163.0	2122.0	2122.0	2122.0	2122.0	2122.0	2165.0	2165.0	2165.0	2165.0	2165.0	2127.0	2127.0	2127.0	2092.0	2092.0	2110.0	2110.0	2110.0	2144.0	2144.0	2080.0	2080.0	2080.0	2097.0	2097.0	2115.0	2115.0	2115.0	2160.0	2160.0	2089.0	2089.0	2089.0	2147.0	2147.0	2159.0	2159.0	2159.0	2168.0	2168.0	2159.0	2159.0	2159.0	2093.0	2093.0	2111.0	2111.0	2111.0	2172.0	2172.0	2122.0	2122.0	2122.0	2168.0	2168.0	2139.0	2139.0	2139.0	2169.0	2169.0	2170.0	2170.0	2170.0	2136.0	2136.0	2119.0	2119.0	2119.0	2157.0	2157.0	2082.0	2082.0	2082.0	2174.0	2174.0	2106.0	2106.0	2106.0	2158.0	2158.0	2144.0	2144.0	2144.0	2157.0	2157.0	2158.0	2158.0	2158.0	2146.0	2146.0	2109.0	2109.0	2109.0	2101.0	2101.0	2137.0	2137.0	2137.0	2063.0	2063.0	2096.0	2096.0	2096.0	2044.0	2044.0	2130.0	2130.0	2130.0	2046.0	2046.0	2078.0	2078.0	2085.0	2085.0	2085.0	2098.0	2098.0	2087.0	2087.0	2087.0	2089.0	2089.0	2010.0	2010.0	2010.0	2075.0	2075.0	2036.0	2036.0	2036.0	2006.0	2006.0	1997.0	1997.0	1997.0	2049.0	2049.0	1964.0	1964.0	1964.0	2034.0	2034.0	1960.0	1960.0	1960.0	2031.0	2031.0	2005.0	2005.0	2005.0	1940.0	1940.0	2010.0	2010.0	2010.0	2007.0	2007.0	2007.0	2007.0	2007.0	1911.0	1911.0	1984.0	1984.0	1984.0	1976.0	1976.0	1949.0	1949.0	1949.0	1959.0	1959.0	1884.0	1884.0	1884.0	1879.0	1879.0	1902.0	1902.0	1902.0	1873.0	1873.0	1889.0	1889.0	1889.0	1845.0	1845.0	1849.0	1849.0	1849.0	1923.0	1923.0	1916.0	1916.0	1916.0	1837.0	1837.0	1851.0	1851.0	1851.0	1826.0	1826.0	1899.0	1899.0	1899.0	1885.0	1885.0	1888.0	1888.0	1888.0	1826.0	1826.0	1865.0	1865.0	1865.0	1803.0	1803.0	1807.0	1807.0	1807.0	1810.0	1810.0	1801.0	1801.0	1801.0	1862.0	1862.0	1838.0	1838.0	1838.0	1867.0	1867.0	1811.0	1811.0	1811.0	1797.0	1797.0	1853.0	1853.0	1853.0	1782.0	1782.0	1788.0	1788.0	1788.0	1831.0	1831.0	1827.0	1827.0	1827.0	1817.0	1817.0	1783.0	1783.0	1783.0	1831.0	1831.0	1756.0	1756.0	1756.0	1833.0	1833.0	1803.0	1803.0	1803.0	1802.0	1802.0	1776.0	1776.0	1776.0	1807.0	1807.0	1764.0	1764.0	1764.0	1769.0	1769.0	1831.0	1831.0	1831.0	1788.0	1788.0	1752.0	1752.0	1752.0	1775.0	1775.0	1756.0	1756.0	1756.0	1741.0	1741.0	1811.0	1811.0	1811.0	1771.0	1771.0	1726.0	1726.0	1726.0	1786.0	1786.0	1733.0	1733.0	1733.0	1735.0	1735.0	1781.0	1781.0	1781.0	1774.0	1774.0	1788.0	1788.0	1788.0	1771.0	1771.0	1713.0	1713.0	1768.0	1768.0	1768.0	1732.0	1732.0	1746.0	1746.0	1746.0	1771.0	1771.0	1720.0	1720.0	1720.0	1765.0	1765.0	1748.0	1748.0	1748.0	1719.0	1719.0	1724.0	1724.0	1724.0	1731.0	1731.0	1749.0	1749.0	1749.0	1722.0	1722.0	1750.0	1750.0	1750.0	1775.0	1775.0	1731.0	1731.0	1731.0	1772.0	1772.0	1724.0	1724.0	1724.0	1747.0	1747.0	1776.0	1776.0	1776.0	1768.0	1768.0	1715.0	1715.0	1715.0	1693.0	1693.0	1711.0	1711.0	1711.0	1754.0	1754.0	1758.0	1758.0	1758.0	1754.0	1754.0	1739.0	1739.0	1739.0	1686.0	1686.0	