2001.0	2001.0	1996.0	1996.0	2049.0	2049.0	2049.0	2048.0	2048.0	2049.0	2049.0	2049.0	1959.0	1959.0	2043.0	2043.0	2043.0	2038.0	2038.0	2027.0	2027.0	2027.0	2014.0	2014.0	1965.0	1965.0	2021.0	2021.0	2021.0	2011.0	2011.0	2021.0	2021.0	2021.0	2005.0	2005.0	1979.0	1979.0	1979.0	1929.0	1929.0	1915.0	1915.0	1915.0	1940.0	1940.0	1963.0	1963.0	1963.0	1907.0	1907.0	1975.0	1975.0	1975.0	1905.0	1905.0	1955.0	1955.0	1955.0	1960.0	1960.0	1890.0	1890.0	1890.0	1875.0	1875.0	1872.0	1872.0	1872.0	1870.0	1870.0	1863.0	1863.0	1863.0	1883.0	1883.0	1929.0	1929.0	1929.0	1845.0	1845.0	1851.0	1851.0	1851.0	1831.0	1831.0	1833.0	1833.0	1833.0	1814.0	1814.0	1902.0	1902.0	1902.0	1856.0	1856.0	1868.0	1868.0	1868.0	1856.0	1856.0	1883.0	1883.0	1883.0	1809.0	1809.0	1829.0	1829.0	1829.0	1857.0	1857.0	1868.0	1868.0	1868.0	1826.0	1826.0	1847.0	1847.0	1847.0	1836.0	1836.0	1835.0	1835.0	1835.0	1769.0	1769.0	1793.0	1793.0	1793.0	1803.0	1803.0	1817.0	1817.0	1817.0	1778.0	1778.0	1823.0	1823.0	1823.0	1793.0	1793.0	1801.0	1801.0	1801.0	1799.0	1799.0	1741.0	1741.0	1741.0	1804.0	1804.0	1753.0	1753.0	1753.0	1793.0	1793.0	1754.0	1754.0	1754.0	1719.0	1719.0	1751.0	1751.0	1751.0	1727.0	1727.0	1747.0	1747.0	1747.0	1729.0	1729.0	1767.0	1767.0	1767.0	1747.0	1747.0	1763.0	1763.0	1763.0	1766.0	1766.0	1696.0	1696.0	1696.0	1692.0	1692.0	1693.0	1693.0	1693.0	1737.0	1737.0	1718.0	1718.0	1718.0	1776.0	1776.0	1698.0	1698.0	1698.0	1746.0	1746.0	1682.0	1682.0	1682.0	1689.0	1689.0	1716.0	1716.0	1716.0	1753.0	1753.0	1730.0	1730.0	1730.0	1680.0	1680.0	1725.0	1725.0	1725.0	1703.0	1703.0	1708.0	1708.0	1708.0	1681.0	1681.0	1762.0	1762.0	1705.0	1705.0	1705.0	1751.0	1751.0	1694.0	1694.0	1694.0	1743.0	1743.0	1690.0	1690.0	1690.0	1746.0	1746.0	1737.0	1737.0	1737.0	1679.0	1679.0	1660.0	1660.0	1660.0	1669.0	1669.0	1712.0	1712.0	1712.0	1743.0	1743.0	1665.0	1665.0	1665.0	1723.0	1723.0	1712.0	1712.0	1712.0	1736.0	1736.0	1654.0	1654.0	1654.0	1669.0	1669.0	1733.0	1733.0	1733.0	1676.0	1676.0	1654.0	1654.0	1654.0	1655.0	1655.0	1719.0	1719.0	1719.0	1663.0	1663.0	1717.0	1717.0	1717.0	1648.0	1648.0	1736.0	1736.0	1736.0	1709.0	1709.0	1663.0	1663.0	1663.0	1711.0	1711.0	1661.0	1661.0	1661.0	1730.0	1730.0	1683.0	1683.0	1683.0	1648.0	1648.0	1717.0	1717.0	1717.0	1695.0	1695.0	1735.0	1735.0	1735.0	1646.0	1646.0	1722.0	1722.0	1722.0	1644.0	1644.0	1723.0	1723.0	1723.0	1691.0	1691.0	1651.0	1651.0	1651.0	1709.0	1709.0	1716.0	1716.0	1716.0	1634.0	1634.0	1636.0	1636.0	1636.0	1686.0	1686.0	1712.0	1712.0	1712.0	1653.0	1653.0	1674.0	1674.0	1674.0	1716.0	1716.0	1690.0	1690.0	1690.0	1691.0	1691.0	1666.0	1666.0	1666.0	1649.0	1649.0	1708.0	1708.0	1708.0	1659.0	1659.0	1677.0	1677.0	1677.0	1713.0	1713.0	1645.0	1645.0	1645.0	1697.0	1697.0	1713.0	1713.0	1713.0	1673.0	1673.0	1651.0	1651.0	1651.0	1640.0	1640.0	1693.0	1693.0	1693.0	1652.0	1652.0	1651.0	1651.0	1651.0	1713.0	1713.0	1701.0	1701.0	1701.0	1727.0	1727.0	1682.0	1682.0	1682.0	1687.0	1687.0	1736.0	1736.0	1736.0	1715.0	1715.0	1766.0	1766.0	1766.0	1695.0	1695.0	1696.0	1696.0	1696.0	1761.0	1761.0	1783.0	1783.0	1787.0	1787.0	1787.0	1828.0	1828.0	1775.0	1775.0	1775.0	1829.0	1829.0	1831.0	1831.0	1831.0	1900.0	1900.0	1882.0	1882.0	1882.0	1893.0	1893.0	1967.0	1967.0	1967.0	2020.0	2020.0	2046.0	2046.0	2046.0	2083.0	2083.0	2054.0	2054.0	2054.0	2096.0	2096.0	2135.0	2135.0	2135.0	2216.0	2216.0	2238.0	2238.0	2238.0	2254.0	2254.0	2254.0	2254.0	2254.0	2263.0	2263.0	2270.0	2270.0	2270.0	2378.0	2378.0	2356.0	2356.0	2356.0	2346.0	2346.0	2427.0	2427.0	2427.0	2473.0	2473.0	2440.0	2440.0	2440.0	2434.0	2434.0	2504.0	2504.0	2504.0	2537.0	2537.0	2558.0	2558.0	2558.0	2495.0	2495.0	2566.0	2566.0	2566.0	2583.0	2583.0	2587.0	2587.0	2587.0	2608.0	2608.0	2586.0	2586.0	2586.0	2561.0	2561.0	2585.0	2585.0	2585.0	2631.0	2631.0	2573.0	2573.0	2573.0	2597.0	2597.0	2574.0	2574.0	2574.0	2655.0	2655.0	2583.0	2583.0	2583.0	2637.0	2637.0	2614.0	2614.0	2614.0	2598.0	2598.0	2660.0	2660.0	2660.0	2618.0	2618.0	2614.0	2614.0	2614.0	2630.0	2630.0	2610.0	2610.0	2610.0	2550.0	2550.0	2578.0	2578.0	2578.0	2580.0	2580.0	2540.0	2540.0	2540.0	2561.0	2561.0	2599.0	2599.0	2599.0	2527.0	2527.0	2522.0	2522.0	2522.0	2547.0	2547.0	2560.0	2560.0	2560.0	2494.0	2494.0	2523.0	2523.0	2523.0	2541.0	2541.0	2548.0	2548.0	2548.0	2540.0	2540.0	2517.0	2517.0	2517.0	2473.0	2473.0	2528.0	2528.0	2528.0	2485.0	2485.0	2441.0	2441.0	2441.0	2456.0	2456.0	2483.0	2483.0	2483.0	2458.0	2458.0	2414.0	2414.0	2414.0	2446.0	2446.0	2436.0	2436.0	2436.0	2383.0	2383.0	2445.0	2445.0	2445.0	2381.0	2381.0	2367.0	2367.0	2343.0	2343.0	2343.0	2371.0	2371.0	2360.0	2360.0	2360.0	2297.0	2297.0	2346.0	2346.0	2346.0	2274.0	2274.0	2306.0	2306.0	2306.0	2285.0	2285.0	2232.0	2232.0	2232.0	2284.0	2284.0	2221.0	2221.0	2221.0	2181.0	2181.0	2188.0	2188.0	2188.0	2204.0	2204.0	2159.0	2159.0	2159.0	2133.0	2133.0	2139.0	2139.0	2139.0	2117.0	2117.0	2083.0	2083.0	2083.0	2095.0	2095.0	2044.0	2044.0	2044.0	2099.0	2099.0	2054.0	2054.0	2054.0	2035.0	2035.0	2040.0	2040.0	2040.0	2066.0	2066.0	1996.0	1996.0	1996.0	2003.0	2003.0	2015.0	2015.0	2015.0	2019.0	2019.0	1978.0	1978.0	1978.0	2024.0	2024.0	2010.0	2010.0	2010.0	2014.0	2014.0	1962.0	1962.0	1962.0	1974.0	1974.0	2008.0	2008.0	2008.0	1948.0	1948.0	1988.0	1988.0	1988.0	1995.0	1995.0	1948.0	1948.0	1948.0	2020.0	2020.0	2020.0	2020.0	2020.0	2025.0	2025.0	1977.0	1977.0	1977.0	1975.0	1975.0	1991.0	1991.0	1991.0	2007.0	2007.0	1947.0	1947.0	1947.0	1945.0	1945.0	2015.0	2015.0	2015.0	1947.0	1947.0	1983.0	1983.0	1983.0	1945.0	1945.0	1987.0	1987.0	1987.0	2007.0	2007.0	2001.0	2001.0	2001.0	2020.0	2020.0	2017.0	2017.0	2017.0	1932.0	1932.0	1946.0	1946.0	1946.0	1932.0	1932.0	1941.0	1941.0	1941.0	2002.0	2002.0	1958.0	1958.0	1958.0	1910.0	1910.0	1925.0	1925.0	1925.0	1918.0	1918.0	1966.0	1966.0	1966.0	1910.0	1910.0	1980.0	1980.0	1980.0	1904.0	1904.0	1891.0	1891.0	1891.0	1963.0	1963.0	1930.0	1930.0	1930.0	1872.0	1872.0	1934.0	1934.0	1934.0	1873.0	1873.0	1920.0	1920.0	1920.0	1897.0	1897.0	1898.0	1898.0	1853.0	1853.0	1853.0	1851.0	1851.0	1904.0	1904.0	1904.0	1896.0	1896.0	1827.0	1827.0	1827.0	1903.0	1903.0	1888.0	1888.0	1888.0	1878.0	1878.0	1873.0	1873.0	1873.0	1863.0	1863.0	1833.0	1833.0	1833.0	1848.0	1848.0	1797.0	1797.0	1797.0	1785.0	1785.0	1824.0	1824.0	1824.0	1857.0	1857.0	1843.0	1843.0	1843.0	1769.0	1769.0	1765.0	1765.0	1765.0	1774.0	1774.0	1828.0	1828.0	1828.0	1742.0	1742.0	1827.0	1827.0	1827.0	1760.0	1760.0	1809.0	1809.0	1809.0	1763.0	1763.0	1723.0	1723.0	1723.0	1737.0	1737.0	1729.0	1729.0	1729.0	1715.0	1715.0	1720.0	1720.0	1720.0	1737.0	1737.0	1739.0	1739.0	1739.0	1779.0	1779.0	1714.0	1714.0	1714.0	1700.0	1700.0	1719.0	1719.0	1719.0	1724.0	1724.0	1694.0	1694.0	1694.0	1760.0	1760.0	1730.0	1730.0	1730.0	1712.0	1712.0	1738.0	1738.0	1738.0	1758.0	1758.0	1733.0	1733.0	1733.0	1702.0	1702.0	1710.0	1710.0	1710.0	1703.0	1703.0	1672.0	1672.0	1672.0	1673.0	1673.0	1755.0	1755.0	1755.0	1702.0	1702.0	1710.0	1710.0	1710.0	1669.0	1669.0	1713.0	1713.0	1713.0	1707.0	1707.0	1680.0	1680.0	1680.0	1678.0	1678.0	1705.0	1705.0	1705.0	1665.0	1665.0	1714.0	1714.0	1714.0	1736.0	1736.0	1743.0	1743.0	1743.0	1694.0	1694.0	1685.0	1685.0	1685.0	1691.0	1691.0	1747.0	1747.0	1747.0	1740.0	1740.0	1663.0	1663.0	1663.0	1677.0	1677.0	1663.0	1663.0	1663.0	1716.0	1716.0	1669.0	1669.0	1669.0	1733.0	1733.0	1740.0	1740.0	1740.0	1707.0	1707.0	1677.0	1677.0	1677.0	1663.0	1663.0	1719.0	1719.0	1719.0	1680.0	1680.0	1702.0	1702.0	1702.0	1656.0	1656.0	1662.0	1662.0	1734.0	1734.0	1734.0	1689.0	1689.0	1653.0	1653.0	1653.0	1715.0	1715.0	1651.0	1651.0	1651.0	1669.0	1669.0	1664.0	1664.0	1664.0	1650.0	1650.0	1690.0	1690.0	1690.0	1713.0	1713.0	1647.0	1647.0	1647.0	1653.0	1653.0	1662.0	1662.0	1662.0	1659.0	1659.0	1667.0	1667.0	1667.0	1721.0	1721.0	1654.0	1654.0	1654.0	1675.0	1675.0	1663.0	1663.0	1663.0	1690.0	1690.0	1694.0	1694.0	1694.0	1648.0	1648.0	1656.0	1656.0	1656.0	1649.0	1649.0	1726.0	1726.0	1726.0	1722.0	1722.0	1653.0	1653.0	1653.0	1665.0	1665.0	1697.0	1697.0	1697.0	1643.0	1643.0	1722.0	1722.0	1722.0	1706.0	1706.0	1643.0	1643.0	1643.0	1683.0	1683.0	1678.0	1678.0	1678.0	1640.0	1640.0	1652.0	1652.0	1652.0	1681.0	1681.0	1660.0	1660.0	1660.0	1682.0	1682.0	1669.0	1669.0	1669.0	1666.0	1666.0	1732.0	1732.0	1732.0	1683.0	1683.0	1651.0	1651.0	1651.0	1641.0	1641.0	1715.0	1715.0	1715.0	1677.0	1677.0	1704.0	1704.0	1704.0	1681.0	1681.0	1664.0	1664.0	1664.0	1711.0	1711.0	1683.0	1683.0	1683.0	1736.0	1736.0	1727.0	1727.0	1727.0	1724.0	1724.0	1685.0	1685.0	1685.0	1691.0	1691.0	1706.0	1706.0	1706.0	1775.0	1775.0	1742.0	1742.0	1742.0	1752.0	1752.0	1759.0	1759.0	1759.0	1790.0	1790.0	1820.0	1820.0	1820.0	1808.0	1808.0	1855.0	1855.0	1855.0	1925.0	1925.0	1938.0	1938.0	1938.0	1971.0	1971.0	1966.0	1966.0	1966.0	1980.0	1980.0	2026.0	2026.0	2026.0	2031.0	2031.0	2048.0	2048.0	2048.0	2103.0	2103.0	2173.0	2173.0	2173.0	2171.0	2171.0	2242.0	2242.0	2242.0	2224.0	2224.0	2231.0	2231.0	2271.0	2271.0	2271.0	2323.0	2323.0	2327.0	2327.0	2327.0	2346.0	2346.0	2400.0	2400.0	2400.0	2392.0	2392.0	2412.0	2412.0	2412.0	2461.0	2461.0	2498.0	2498.0	2498.0	2517.0	2517.0	2491.0	2491.0	2491.0	2477.0	2477.0	2526.0	2526.0	2526.0	2568.0	2568.0	2531.0	2531.0	2531.0	2582.0	2582.0	2573.0	2573.0	2573.0	2608.0	2608.0	2539.0	2539.0	2539.0	2550.0	2550.0	2550.0	2550.0	2550.0	2558.0	2558.0	2583.0	2583.0	2583.0	2557.0	2557.0	2564.0	2564.0	2564.0	2547.0	2547.0	2618.0	2618.0	2618.0	2602.0	2602.0	2606.0	2606.0	2606.0	2576.0	2576.0	2552.0	2552.0	2552.0	2619.0	2619.0	2620.0	2620.0	2620.0	2618.0	2618.0	2556.0	2556.0	2556.0	2555.0	2555.0	2539.0	2539.0	2539.0	2562.0	2562.0	2553.0	2553.0	2553.0	2591.0	2591.0	2509.0	2509.0	2509.0	2501.0	2501.0	2487.0	2487.0	2487.0	2512.0	2512.0	2509.0	2509.0	2509.0	2487.0	2487.0	2472.0	2472.0	2472.0	2459.0	2459.0	2468.0	2468.0	2468.0	2499.0	2499.0	2468.0	2468.0	2468.0	2483.0	2483.0	2431.0	2431.0	2431.0	2463.0	2463.0	2411.0	2411.0	2411.0	2425.0	2425.0	2399.0	2399.0	2399.0	2395.0	2395.0	2367.0	2367.0	2367.0	2351.0	2351.0	2370.0	2370.0	2370.0	2362.0	2362.0	2376.0	2376.0	2376.0	2310.0	2310.0	2295.0	2295.0	2295.0	2317.0	2317.0	2279.0	2279.0	2279.0	2269.0	2269.0	2312.0	2312.0	2312.0	2297.0	2297.0	2273.0	2273.0	2273.0	2199.0	2199.0	2188.0	2188.0	2188.0	2188.0	2188.0	2154.0	2154.0	2154.0	2152.0	2152.0	2112.0	2112.0	2112.0	2135.0	2135.0	2088.0	2088.0	2088.0	2078.0	2078.0	2107.0	2107.0	2093.0	2093.0	2093.0	2035.0	2035.0	2052.0	2052.0	2052.0	2007.0	2007.0	2056.0	2056.0	2056.0	1994.0	1994.0	2002.0	2002.0	2002.0	2046.0	2046.0	2046.0	2046.0	2046.0	1996.0	1996.0	2021.0	2021.0	2021.0	2030.0	2030.0	2007.0	2007.0	2007.0	2021.0	2021.0	2003.0	2003.0	2003.0	1949.0	1949.0	1957.0	1957.0	1957.0	2027.0	2027.0	2027.0	2027.0	2027.0	1950.0	1950.0	2009.0	2009.0	2009.0	1940.0	1940.0	2009.0	2009.0	2009.0	1955.0	1955.0	2019.0	2019.0	2019.0	2001.0	2001.0	2025.0	2025.0	2025.0	1953.0	1953.0	1962.0	1962.0	1962.0	1972.0	1972.0	1995.0	1995.0	1995.0	2000.0	2000.0	1976.0	1976.0	1976.0	1956.0	1956.0	1946.0	1946.0	1946.0	1989.0	1989.0	2003.0	2003.0	2003.0	2022.0	2022.0	1936.0	1936.0	1936.0	1940.0	1940.0	1995.0	1995.0	1995.0	2003.0	2003.0	1963.0	1963.0	1963.0	1994.0	1994.0	1947.0	1947.0	1947.0	1951.0	1951.0	1943.0	1943.0	1943.0	1991.0	1991.0	1906.0	1906.0	1906.0	1918.0	1918.0	1956.0	1956.0	1956.0	1921.0	1921.0	1928.0	1928.0	1928.0	1938.0	1938.0	1899.0	1899.0	1899.0	1888.0	1888.0	1957.0	1957.0	1957.0	1915.0	1915.0	1883.0	1883.0	1883.0	1922.0	1922.0	1870.0	1870.0	1870.0	1930.0	1930.0	1848.0	1848.0	1848.0	1904.0	1904.0	1904.0	1904.0	1904.0	1837.0	1837.0	1829.0	1829.0	1829.0	1825.0	1825.0	1834.0	1834.0	1834.0	1891.0	1891.0	1836.0	1836.0	1836.0	1833.0	1833.0	1867.0	1867.0	1867.0	1881.0	1881.0	1829.0	1829.0	1829.0	1839.0	1839.0	1861.0	1861.0	1861.0	1858.0	1858.0	1778.0	1778.0	1778.0	1831.0	1831.0	1804.0	1804.0	1804.0	1826.0	1826.0	1805.0	1805.0	1796.0	1796.0	1796.0	1754.0	1754.0	1831.0	1831.0	1831.0	1830.0	1830.0	1807.0	1807.0	1807.0	1774.0	1774.0	1769.0	1769.0	1769.0	1762.0	1762.0	1769.0	1769.0	1769.0	1745.0	1745.0	1782.0	1782.0	1782.0	1785.0	1785.0	1768.0	1768.0	1768.0	1717.0	1717.0	1739.0	1739.0	1739.0	1764.0	1764.0	1711.0	1711.0	1711.0	1781.0	1781.0	1711.0	1711.0	1711.0	1768.0	1768.0	1723.0	1723.0	1723.0	1721.0	1721.0	1711.0	1711.0	1711.0	1739.0	1739.0	1761.0	1761.0	1761.0	1694.0	1694.0	1757.0	1757.0	1757.0	1699.0	1699.0	1739.0	1739.0	1739.0	1757.0	1757.0	1722.0	1722.0	1722.0	1687.0	1687.0	1691.0	1691.0	1691.0	1685.0	1685.0	1708.0	1708.0	1708.0	1701.0	1701.0	1685.0	1685.0	1685.0	1755.0	1755.0	1747.0	1747.0	1747.0	1708.0	1708.0	1673.0	1673.0	1673.0	1701.0	1701.0	1678.0	1678.0	1678.0	1752.0	1752.0	1681.0	1681.0	1681.0	1678.0	1678.0	1739.0	1739.0	1739.0	1740.0	1740.0	1723.0	1723.0	1723.0	1722.0	1722.0	1722.0	1722.0	1722.0	1683.0	1683.0	1733.0	1733.0	1733.0	1654.0	1654.0	1743.0	1743.0	1743.0	1665.0	1665.0	1735.0	1735.0	1735.0	1670.0	1670.0	1698.0	1698.0	1698.0	1658.0	1658.0	1686.0	1686.0	1686.0	1712.0	1712.0	1667.0	1667.0	1667.0	1683.0	1683.0	1707.0	1707.0	1707.0	1718.0	1718.0	1691.0	1691.0	1691.0	1720.0	1720.0	1661.0	1661.0	1661.0	1729.0	1729.0	1660.0	1660.0	1660.0	1699.0	1699.0	1681.0	1681.0	1681.0	1644.0	1644.0	1722.0	1722.0	1722.0	1717.0	1717.0	1692.0	1692.0	1692.0	1664.0	1664.0	1683.0	1683.0	1683.0	1721.0	1721.0	1646.0	1646.0	1688.0	1688.0	1688.0	1692.0	1692.0	1646.0	1646.0	1646.0	1717.0	1717.0	1714.0	1714.0	1714.0	1675.0	1675.0	1699.0	1699.0	1699.0	1713.0	1713.0	1640.0	1640.0	1640.0	1669.0	1669.0	1672.0	1672.0	1672.0	1627.0	1627.0	1629.0	1629.0	1629.0	1674.0	1674.0	1660.0	1660.0	1660.0	1693.0	1693.0	1690.0	1690.0	1690.0	1659.0	1659.0	1701.0	1701.0	1701.0	1648.0	1648.0	1633.0	1633.0	1633.0	1685.0	1685.0	1653.0	1653.0	1653.0	1652.0	1652.0	1696.0	1696.0	1696.0	1626.0	1626.0	1699.0	1699.0	1699.0	1629.0	1629.0	1639.0	1639.0	1639.0	1646.0	1646.0	1723.0	1723.0	1723.0	1716.0	1716.0	1656.0	1656.0	1656.0	1688.0	1688.0	1685.0	1685.0	1685.0	1673.0	1673.0	1687.0	1687.0	1687.0	1776.0	1776.0	1724.0	1724.0	1724.0	1714.0	1714.0	1806.0	1806.0	1806.0	1817.0	1817.0	1854.0	1854.0	1854.0	1863.0	1863.0	1834.0	1834.0	1834.0	1834.0	1834.0	1895.0	1895.0	1895.0	1895.0	1895.0	1934.0	1934.0	1934.0	2006.0	2006.0	2013.0	2013.0	2013.0	2012.0	2012.0	2099.0	2099.0	2099.0	2153.0	2153.0	2167.0	2167.0	2167.0	2137.0	2137.0	2247.0	2247.0	2247.0	2199.0	2199.0	2294.0	2294.0	2294.0	2282.0	2282.0	2314.0	2314.0	2314.0	2323.0	2323.0	2417.0	2417.0	2417.0	2366.0	2366.0	2432.0	2432.0	2432.0	2430.0	2430.0	2444.0	2444.0	2444.0	2479.0	2479.0	2514.0	2514.0	2514.0	2485.0	2485.0	2584.0	2584.0	2584.0	2548.0	2548.0	2552.0	2552.0	2552.0	2615.0	2615.0	2610.0	2610.0	2610.0	2565.0	2565.0	2635.0	2635.0	2635.0	2619.0	2619.0	2606.0	2606.0	2606.0	2602.0	2602.0	2651.0	2651.0	2613.0	2613.0	2613.0	2582.0	2582.0	2593.0	2593.0	2593.0	2639.0	2639.0	2590.0	2590.0	2590.0	2654.0	2654.0	2577.0	2577.0	2577.0	2573.0	2573.0	2625.0	2625.0	2625.0	2581.0	2581.0	2572.0	2572.0	2572.0	2603.0	2603.0	2601.0	2601.0	2601.0	2576.0	2576.0	2594.0	2594.0	2594.0	2595.0	