1815.0	1815.0	1815.0	1828.0	1828.0	1770.0	1770.0	1770.0	1831.0	1831.0	1762.0	1762.0	1762.0	1796.0	1796.0	1752.0	1752.0	1801.0	1801.0	1801.0	1809.0	1809.0	1803.0	1803.0	1803.0	1804.0	1804.0	1823.0	1823.0	1823.0	1772.0	1772.0	1795.0	1795.0	1795.0	1780.0	1780.0	1813.0	1813.0	1813.0	1756.0	1756.0	1767.0	1767.0	1767.0	1808.0	1808.0	1792.0	1792.0	1792.0	1803.0	1803.0	1769.0	1769.0	1769.0	1793.0	1793.0	1785.0	1785.0	1785.0	1791.0	1791.0	1785.0	1785.0	1785.0	1762.0	1762.0	1792.0	1792.0	1792.0	1737.0	1737.0	1788.0	1788.0	1788.0	1794.0	1794.0	1742.0	1742.0	1742.0	1788.0	1788.0	1724.0	1724.0	1724.0	1739.0	1739.0	1722.0	1722.0	1722.0	1758.0	1758.0	1764.0	1764.0	1764.0	1724.0	1724.0	1708.0	1708.0	1708.0	1703.0	1703.0	1712.0	1712.0	1712.0	1731.0	1731.0	1736.0	1736.0	1736.0	1720.0	1720.0	1735.0	1735.0	1735.0	1771.0	1771.0	1770.0	1770.0	1770.0	1710.0	1710.0	1706.0	1706.0	1706.0	1710.0	1710.0	1746.0	1746.0	1746.0	1695.0	1695.0	1742.0	1742.0	1742.0	1736.0	1736.0	1714.0	1714.0	1714.0	1713.0	1713.0	1757.0	1757.0	1757.0	1696.0	1696.0	1690.0	1690.0	1690.0	1699.0	1699.0	1684.0	1684.0	1684.0	1717.0	1717.0	1759.0	1759.0	1759.0	1747.0	1747.0	1753.0	1753.0	1753.0	1724.0	1724.0	1713.0	1713.0	1713.0	1761.0	1761.0	1726.0	1726.0	1726.0	1734.0	1734.0	1700.0	1700.0	1700.0	1758.0	1758.0	1747.0	1747.0	1747.0	1696.0	1696.0	1751.0	1751.0	1751.0	1760.0	1760.0	1758.0	1758.0	1758.0	1799.0	1799.0	1753.0	1753.0	1753.0	1826.0	1826.0	1797.0	1797.0	1797.0	1830.0	1830.0	1846.0	1846.0	1846.0	1825.0	1825.0	1867.0	1867.0	1867.0	1870.0	1870.0	1954.0	1954.0	1930.0	1930.0	1930.0	1937.0	1937.0	1968.0	1968.0	1968.0	2031.0	2031.0	2008.0	2008.0	2008.0	2090.0	2090.0	2071.0	2071.0	2071.0	2100.0	2100.0	2107.0	2107.0	2107.0	2200.0	2200.0	2182.0	2182.0	2182.0	2189.0	2189.0	2231.0	2231.0	2231.0	2250.0	2250.0	2246.0	2246.0	2246.0	2292.0	2292.0	2341.0	2341.0	2341.0	2317.0	2317.0	2380.0	2380.0	2380.0	2385.0	2385.0	2454.0	2454.0	2454.0	2406.0	2406.0	2447.0	2447.0	2447.0	2446.0	2446.0	2464.0	2464.0	2464.0	2493.0	2493.0	2498.0	2498.0	2498.0	2580.0	2580.0	2585.0	2585.0	2585.0	2548.0	2548.0	2587.0	2587.0	2587.0	2572.0	2572.0	2602.0	2602.0	2602.0	2646.0	2646.0	2666.0	2666.0	2666.0	2629.0	2629.0	2711.0	2711.0	2711.0	2692.0	2692.0	2688.0	2688.0	2688.0	2697.0	2697.0	2736.0	2736.0	2736.0	2719.0	2719.0	2712.0	2712.0	2712.0	2772.0	2772.0	2782.0	2782.0	2782.0	2737.0	2737.0	2796.0	2796.0	2796.0	2813.0	2813.0	2826.0	2826.0	2826.0	2791.0	2791.0	2782.0	2782.0	2782.0	2829.0	2829.0	2792.0	2792.0	2792.0	2848.0	2848.0	2812.0	2812.0	2812.0	2855.0	2855.0	2814.0	2814.0	2814.0	2877.0	2877.0	2883.0	2883.0	2883.0	2865.0	2865.0	2852.0	2852.0	2852.0	2832.0	2832.0	2890.0	2890.0	2890.0	2857.0	2857.0	2851.0	2851.0	2851.0	2879.0	2879.0	2843.0	2843.0	2843.0	2868.0	2868.0	2882.0	2882.0	2882.0	2911.0	2911.0	2902.0	2902.0	2902.0	2907.0	2907.0	2877.0	2877.0	2877.0	2851.0	2851.0	2866.0	2866.0	2866.0	2857.0	2857.0	2912.0	2912.0	2912.0	2864.0	2864.0	2880.0	2880.0	2880.0	2877.0	2877.0	2866.0	2866.0	2854.0	2854.0	2854.0	2908.0	2908.0	2843.0	2843.0	2843.0	2852.0	2852.0	2887.0	2887.0	2887.0	2889.0	2889.0	2892.0	2892.0	2892.0	2831.0	2831.0	2832.0	2832.0	2832.0	2895.0	2895.0	2883.0	2883.0	2883.0	2861.0	2861.0	2826.0	2826.0	2826.0	2868.0	2868.0	2822.0	2822.0	2822.0	2839.0	2839.0	2841.0	2841.0	2841.0	2844.0	2844.0	2844.0	2844.0	2844.0	2783.0	2783.0	2816.0	2816.0	2816.0	2812.0	2812.0	2752.0	2752.0	2752.0	2783.0	2783.0	2723.0	2723.0	2723.0	2716.0	2716.0	2735.0	2735.0	2735.0	2732.0	2732.0	2689.0	2689.0	2689.0	2698.0	2698.0	2724.0	2724.0	2724.0	2658.0	2658.0	2649.0	2649.0	2649.0	2666.0	2666.0	2689.0	2689.0	2689.0	2660.0	2660.0	2609.0	2609.0	2609.0	2577.0	2577.0	2592.0	2592.0	2592.0	2604.0	2604.0	2544.0	2544.0	2544.0	2582.0	2582.0	2558.0	2558.0	2558.0	2518.0	2518.0	2543.0	2543.0	2543.0	2488.0	2488.0	2504.0	2504.0	2504.0	2471.0	2471.0	2475.0	2475.0	2475.0	2479.0	2479.0	2506.0	2506.0	2506.0	2438.0	2438.0	2467.0	2467.0	2467.0	2419.0	2419.0	2428.0	2428.0	2428.0	2453.0	2453.0	2386.0	2386.0	2386.0	2387.0	2387.0	2388.0	2388.0	2388.0	2413.0	2413.0	2388.0	2388.0	2388.0	2335.0	2335.0	2390.0	2390.0	2390.0	2373.0	2373.0	2382.0	2382.0	2382.0	2335.0	2335.0	2335.0	2335.0	2335.0	2296.0	2296.0	2351.0	2351.0	2351.0	2308.0	2308.0	2293.0	2293.0	2293.0	2333.0	2333.0	2272.0	2272.0	2272.0	2262.0	2262.0	2293.0	2293.0	2293.0	2268.0	2268.0	2311.0	2311.0	2311.0	2290.0	2290.0	2288.0	2288.0	2288.0	2273.0	2273.0	2260.0	2260.0	2260.0	2278.0	2278.0	2226.0	2226.0	2203.0	2203.0	2203.0	2220.0	2220.0	2197.0	2197.0	2197.0	2193.0	2193.0	2218.0	2218.0	2218.0	2250.0	2250.0	2178.0	2178.0	2178.0	2208.0	2208.0	2175.0	2175.0	2175.0	2221.0	2221.0	2168.0	2168.0	2168.0	2214.0	2214.0	2211.0	2211.0	2211.0	2168.0	2168.0	2196.0	2196.0	2196.0	2136.0	2136.0	2163.0	2163.0	2163.0	2136.0	2136.0	2140.0	2140.0	2140.0	2100.0	2100.0	2121.0	2121.0	2121.0	2110.0	2110.0	2144.0	2144.0	2144.0	2145.0	2145.0	2089.0	2089.0	2089.0	2132.0	2132.0	2137.0	2137.0	2137.0	2060.0	2060.0	2123.0	2123.0	2123.0	2104.0	2104.0	2090.0	2090.0	2090.0	2059.0	2059.0	2108.0	2108.0	2108.0	2103.0	2103.0	2072.0	2072.0	2072.0	2023.0	2023.0	2079.0	2079.0	2079.0	2058.0	2058.0	2040.0	2040.0	2040.0	2005.0	2005.0	2052.0	2052.0	2052.0	2048.0	2048.0	1984.0	1984.0	1984.0	2046.0	2046.0	1993.0	1993.0	1993.0	2033.0	2033.0	1986.0	1986.0	1986.0	1976.0	1976.0	1985.0	1985.0	1985.0	2011.0	2011.0	1961.0	1961.0	1961.0	2001.0	2001.0	2001.0	2001.0	2001.0	1927.0	1927.0	1939.0	1939.0	1939.0	1974.0	1974.0	1934.0	1934.0	1934.0	1975.0	1975.0	1969.0	1969.0	1969.0	1957.0	1957.0	1928.0	1928.0	1928.0	1928.0	1928.0	1905.0	1905.0	1905.0	1884.0	1884.0	1881.0	1881.0	1881.0	1923.0	1923.0	1941.0	1941.0	1941.0	1936.0	1936.0	1908.0	1908.0	1908.0	1871.0	1871.0	1921.0	1921.0	1921.0	1853.0	1853.0	1922.0	1922.0	1922.0	1849.0	1849.0	1844.0	1844.0	1844.0	1907.0	1907.0	1870.0	1870.0	1870.0	1847.0	1847.0	1841.0	1841.0	1841.0	1836.0	1836.0	1856.0	1856.0	1881.0	1881.0	1881.0	1858.0	1858.0	1820.0	1820.0	1820.0	1871.0	1871.0	1807.0	1807.0	1807.0	1829.0	1829.0	1817.0	1817.0	1817.0	1848.0	1848.0	1798.0	1798.0	1798.0	1856.0	1856.0	1786.0	1786.0	1786.0	1788.0	1788.0	1836.0	1836.0	1836.0	1824.0	1824.0	1841.0	1841.0	1841.0	1831.0	1831.0	1824.0	1824.0	1824.0	1766.0	1766.0	1759.0	1759.0	1759.0	1824.0	1824.0	1763.0	1763.0	1763.0	1788.0	1788.0	1767.0	1767.0	1767.0	1769.0	1769.0	1805.0	1805.0	1805.0	1774.0	1774.0	1769.0	1769.0	1769.0	1748.0	1748.0	1740.0	1740.0	1740.0	1798.0	1798.0	1789.0	1789.0	1789.0	1784.0	1784.0	1794.0	1794.0	1794.0	1744.0	1744.0	1784.0	1784.0	1784.0	1744.0	1744.0	1780.0	1780.0	1780.0	1764.0	1764.0	1730.0	1730.0	1730.0	1793.0	1793.0	1777.0	1777.0	1777.0	1769.0	1769.0	1776.0	1776.0	1776.0	1777.0	1777.0	1758.0	1758.0	1758.0	1758.0	1758.0	1719.0	1719.0	1719.0	1753.0	1753.0	1759.0	1759.0	1759.0	1712.0	1712.0	1756.0	1756.0	1756.0	1694.0	1694.0	1761.0	1761.0	1761.0	1690.0	1690.0	1688.0	1688.0	1688.0	1738.0	1738.0	1677.0	1677.0	1677.0	1705.0	1705.0	1684.0	1684.0	1684.0	1716.0	1716.0	1697.0	1697.0	1697.0	1701.0	1701.0	1741.0	1741.0	1741.0	1674.0	1674.0	1737.0	1737.0	1737.0	1714.0	1714.0	1700.0	1700.0	1700.0	1668.0	1668.0	1657.0	1657.0	1657.0	1674.0	1674.0	1661.0	1661.0	1661.0	1724.0	1724.0	1718.0	1718.0	1718.0	1705.0	1705.0	1646.0	1646.0	1646.0	1695.0	1695.0	1673.0	1673.0	1673.0	1684.0	1684.0	1694.0	1694.0	1694.0	1703.0	1703.0	1663.0	1663.0	1679.0	1679.0	1679.0	1679.0	1679.0	1716.0	1716.0	1716.0	1695.0	1695.0	1649.0	1649.0	1649.0	1705.0	1705.0	1664.0	1664.0	1664.0	1669.0	1669.0	1696.0	1696.0	1696.0	1704.0	1704.0	1649.0	1649.0	1649.0	1713.0	1713.0	1653.0	1653.0	1653.0	1704.0	1704.0	1634.0	1634.0	1634.0	1696.0	1696.0	1654.0	1654.0	1654.0	1633.0	1633.0	1633.0	1633.0	1633.0	1665.0	1665.0	1632.0	1632.0	1632.0	1700.0	1700.0	1711.0	1711.0	1711.0	1651.0	1651.0	1691.0	1691.0	1691.0	1641.0	1641.0	1685.0	1685.0	1685.0	1643.0	1643.0	1649.0	1649.0	1649.0	1687.0	1687.0	1697.0	1697.0	1697.0	1698.0	1698.0	1633.0	1633.0	1633.0	1685.0	1685.0	1643.0	1643.0	1643.0	1685.0	1685.0	1660.0	1660.0	1660.0	1621.0	1621.0	1700.0	1700.0	1700.0	1681.0	1681.0	1683.0	1683.0	1683.0	1633.0	1633.0	1687.0	1687.0	1687.0	1666.0	1666.0	1682.0	1682.0	1682.0	1620.0	1620.0	1625.0	1625.0	1625.0	1691.0	1691.0	1618.0	1618.0	1618.0	1658.0	1658.0	1671.0	1671.0	1671.0	1676.0	1676.0	1679.0	1679.0	1679.0	1634.0	1634.0	1643.0	1643.0	1643.0	1612.0	1612.0	1629.0	1629.0	1629.0	1666.0	1666.0	1620.0	1620.0	1620.0	1673.0	1673.0	1634.0	1634.0	1634.0	1620.0	1620.0	1685.0	1685.0	1685.0	1639.0	1639.0	1614.0	1614.0	1614.0	1619.0	1619.0	1670.0	1670.0	1670.0	1675.0	1675.0	1679.0	1679.0	1679.0	1694.0	1694.0	1680.0	1680.0	1680.0	1687.0	1687.0	1676.0	1676.0	1676.0	1637.0	1637.0	1696.0	1696.0	1696.0	1704.0	1704.0	1668.0	1668.0	1668.0	1676.0	1676.0	1723.0	1723.0	1723.0	1735.0	1735.0	1714.0	1714.0	1714.0	1766.0	1766.0	1764.0	1764.0	1827.0	1827.0	1827.0	1803.0	1803.0	1840.0	1840.0	1840.0	1884.0	1884.0	1917.0	1917.0	1917.0	1867.0	1867.0	1919.0	1919.0	1919.0	1935.0	1935.0	1977.0	1977.0	1977.0	2033.0	2033.0	2008.0	2008.0	2008.0	2081.0	2081.0	2056.0	2056.0	2056.0	2078.0	2078.0	2085.0	2085.0	2085.0	2144.0	2144.0	2191.0	2191.0	2191.0	2227.0	2227.0	2190.0	2190.0	2190.0	2202.0	2202.0	2271.0	2271.0	2271.0	2295.0	2295.0	2286.0	2286.0	2286.0	2288.0	2288.0	2309.0	2309.0	2309.0	2367.0	2367.0	2421.0	2421.0	2421.0	2392.0	2392.0	2434.0	2434.0	2434.0	2452.0	2452.0	2435.0	2435.0	2435.0	2413.0	2413.0	2493.0	2493.0	2493.0	2460.0	2460.0	2530.0	2530.0	2530.0	2490.0	2490.0	2493.0	2493.0	2493.0	2548.0	2548.0	2587.0	2587.0	2587.0	2534.0	2534.0	2577.0	2577.0	2577.0	2610.0	2610.0	2560.0	2560.0	2560.0	2626.0	2626.0	2597.0	2597.0	2597.0	2603.0	2603.0	2588.0	2588.0	2588.0	2595.0	2595.0	2607.0	2607.0	2607.0	2615.0	2615.0	2659.0	2659.0	2659.0	2675.0	2675.0	2662.0	2662.0	2662.0	2656.0	2656.0	2632.0	2632.0	2632.0	2683.0	2683.0	2646.0	2646.0	2646.0	2676.0	2676.0	2716.0	2716.0	2716.0	2694.0	2694.0	2707.0	2707.0	2707.0	2724.0	2724.0	2667.0	2667.0	2667.0	2731.0	2731.0	2726.0	2726.0	2726.0	2706.0	2706.0	2718.0	2718.0	2718.0	2682.0	2682.0	2686.0	2686.0	2686.0	2704.0	2704.0	2690.0	2690.0	2690.0	2704.0	2704.0	2726.0	2726.0	2726.0	2728.0	2728.0	2735.0	2735.0	2735.0	2746.0	2746.0	2715.0	2715.0	2715.0	2676.0	2676.0	2678.0	2678.0	2678.0	2674.0	2674.0	2690.0	2690.0	2677.0	2677.0	2677.0	2700.0	2700.0	2700.0	2700.0	2700.0	2707.0	2707.0	2660.0	2660.0	2660.0	2641.0	2641.0	2669.0	2669.0	2669.0	2691.0	2691.0	2658.0	2658.0	2658.0	2691.0	2691.0	2696.0	2696.0	2696.0	2690.0	2690.0	2667.0	2667.0	2667.0	2611.0	2611.0	2648.0	2648.0	2648.0	2654.0	2654.0	2606.0	2606.0	2606.0	2653.0	2653.0	2574.0	2574.0	2574.0	2602.0	2602.0	2553.0	2553.0	2553.0	2549.0	2549.0	2539.0	2539.0	2539.0	2533.0	2533.0	2566.0	2566.0	2566.0	2554.0	2554.0	2557.0	2557.0	2557.0	2534.0	2534.0	2499.0	2499.0	2499.0	2490.0	2490.0	2455.0	2455.0	2455.0	2468.0	2468.0	2463.0	2463.0	2463.0	2490.0	2490.0	2459.0	2459.0	2459.0	2466.0	2466.0	2402.0	2402.0	2402.0	2434.0	2434.0	2390.0	2390.0	2390.0	2364.0	2364.0	2399.0	2399.0	2399.0	2378.0	2378.0	2395.0	2395.0	2395.0	2320.0	2320.0	2356.0	2356.0	2356.0	2356.0	2356.0	2340.0	2340.0	2340.0	2314.0	2314.0	2302.0	2302.0	2302.0	2280.0	2280.0	2317.0	2317.0	2317.0	2248.0	2248.0	2262.0	2262.0	2262.0	2264.0	2264.0	2294.0	2294.0	2294.0	2277.0	2277.0	2281.0	2281.0	2281.0	2268.0	2268.0	2257.0	2257.0	2257.0	2197.0	2197.0	2251.0	2251.0	2251.0	2242.0	2242.0	2202.0	2202.0	2202.0	2180.0	2180.0	2162.0	2162.0	2162.0	2183.0	2183.0	2202.0	2202.0	2202.0	2219.0	2219.0	2204.0	2204.0	2204.0	2151.0	2151.0	2175.0	2175.0	2175.0	2138.0	2138.0	2196.0	2196.0	2196.0	2170.0	2170.0	2182.0	2182.0	2182.0	2129.0	2129.0	2159.0	2159.0	2159.0	2118.0	2118.0	2154.0	2154.0	2154.0	2148.0	2148.0	2119.0	2119.0	2119.0	2134.0	2134.0	2156.0	2156.0	2125.0	2125.0	2125.0	2082.0	2082.0	2087.0	2087.0	2087.0	2084.0	2084.0	2069.0	2069.0	2069.0	2127.0	2127.0	2093.0	2093.0	2093.0	2094.0	2094.0	2046.0	2046.0	2046.0	2064.0	2064.0	2065.0	2065.0	2065.0	2086.0	2086.0	2043.0	2043.0	2043.0	2027.0	2027.0	2030.0	2030.0	2030.0	2032.0	2032.0	2070.0	2070.0	2070.0	2013.0	2013.0	2025.0	2025.0	2025.0	2033.0	2033.0	2048.0	2048.0	2048.0	1992.0	1992.0	2013.0	2013.0	2013.0	2020.0	2020.0	1980.0	1980.0	1980.0	1970.0	1970.0	2030.0	2030.0	2030.0	1991.0	1991.0	1983.0	1983.0	1983.0	1969.0	1969.0	1986.0	1986.0	1986.0	1979.0	1979.0	1949.0	1949.0	1949.0	1959.0	1959.0	1993.0	1993.0	1993.0	1972.0	1972.0	1979.0	1979.0	1979.0	1923.0	1923.0	1913.0	1913.0	1913.0	1907.0	1907.0	1903.0	1903.0	1903.0	1962.0	1962.0	1957.0	1957.0	1957.0	1884.0	1884.0	1900.0	1900.0	1900.0	1895.0	1895.0	1914.0	1914.0	1914.0	1872.0	1872.0	1911.0	1911.0	1911.0	1882.0	1882.0	1855.0	1855.0	1855.0	1870.0	1870.0	1915.0	1915.0	1915.0	1881.0	1881.0	1909.0	1909.0	1909.0	1838.0	1838.0	1901.0	1901.0	1901.0	1871.0	1871.0	1896.0	1896.0	1896.0	1855.0	1855.0	1837.0	1837.0	1837.0	1816.0	1816.0	1812.0	1812.0	1812.0	1836.0	1836.0	1810.0	1810.0	1810.0	1836.0	1836.0	1808.0	1808.0	1808.0	1798.0	1798.0	1831.0	1831.0	1831.0	1792.0	1792.0	1789.0	1789.0	1789.0	1807.0	1807.0	1825.0	1825.0	1825.0	1825.0	1825.0	1811.0	1811.0	1811.0	1780.0	1780.0	1828.0	1828.0	1828.0	1766.0	1766.0	1808.0	1808.0	1808.0	1802.0	1802.0	1754.0	1754.0	1756.0	1756.0	1756.0	1755.0	1755.0	1777.0	1777.0	1777.0	1774.0	1774.0	1805.0	1805.0	1805.0	1791.0	1791.0	1796.0	1796.0	1796.0	1769.0	1769.0	1762.0	1762.0	1762.0	1804.0	1804.0	1790.0	1790.0	1790.0	1746.0	1746.0	1730.0	1730.0	1730.0	1741.0	1741.0	1767.0	1767.0	1767.0	1730.0	1730.0	1719.0	1719.0	1719.0	1777.0	1777.0	1762.0	1762.0	1762.0	1765.0	1765.0	1775.0	1775.0	1775.0	1751.0	1751.0	1762.0	1762.0	1762.0	1773.0	1773.0	1719.0	1719.0	1719.0	1701.0	1701.0	1693.0	1693.0	1693.0	1707.0	1707.0	1696.0	1696.0	1696.0	1737.0	1737.0	1742.0	1742.0	1742.0	1686.0	1686.0	1770.0	1770.0	1770.0	1696.0	1696.0	1690.0	1690.0	1690.0	1724.0	1724.0	1716.0	1716.0	1716.0	1707.0	1707.0	1754.0	1754.0	1754.0	1685.0	1685.0	1750.0	1750.0	1750.0	1687.0	1687.0	1681.0	1681.0	1681.0	1679.0	1679.0	1721.0	1721.0	1721.0	1677.0	1677.0	1708.0	1708.0	1708.0	1705.0	1705.0	1704.0	1704.0	1704.0	1659.0	1659.0	1677.0	1677.0	1677.0	1708.0	1708.0	1716.0	1716.0	1716.0	1725.0	1725.0	1672.0	1672.0	1672.0	1706.0	1706.0	1728.0	1728.0	1728.0	1689.0	1689.0	1659.0	1659.0	1659.0	1658.0	1658.0	1710.0	1710.0	1710.0	1719.0	1719.0	1719.0	1719.0	1719.0	1711.0	1711.0	1671.0	1671.0	1671.0	1646.0	1646.0	1662.0	1662.0	1662.0	1666.0	1666.0	1715.0	1715.0	1715.0	1644.0	1644.0	1692.0	1692.0	1692.0	1676.0	1676.0	1653.0	1653.0	1653.0	1647.0	1647.0	1689.0	1689.0	1689.0	1698.0	1698.0	1641.0	1641.0	1641.0	1690.0	1690.0	1690.0	1690.0	1690.0	1666.0	1666.0	1667.0	1667.0	1634.0	1634.0	1634.0	1698.0	1698.0	1674.0	1674.0	1674.0	1659.0	1659.0	1650.0	1650.0	1650.0	1659.0	1659.0	1635.0	1635.0	1635.0	1641.0	1641.0	1625.0	1625.0	1625.0	1632.0	1632.0	1643.0	1643.0	1643.0	1622.0	1622.0	1663.0	1663.0	1663.0	1623.0	1623.0	1688.0	1688.0	1688.0	1641.0	1641.0	1617.0	1617.0	1617.0	1663.0	1663.0	1663.0	1663.0	1663.0	