2034.0	1970.0	1970.0	2000.0	2000.0	2000.0	2004.0	2004.0	2020.0	2020.0	2020.0	1985.0	1985.0	1979.0	1979.0	1979.0	1981.0	1981.0	1982.0	1982.0	1982.0	1985.0	1985.0	1989.0	1989.0	1989.0	1955.0	1955.0	1964.0	1964.0	1964.0	1937.0	1937.0	1967.0	1967.0	1967.0	1973.0	1973.0	1982.0	1982.0	1982.0	1989.0	1989.0	1959.0	1959.0	1959.0	1978.0	1978.0	1956.0	1956.0	1956.0	1956.0	1956.0	1934.0	1934.0	1934.0	1963.0	1963.0	1939.0	1939.0	1939.0	1913.0	1913.0	1969.0	1969.0	1969.0	1948.0	1948.0	1956.0	1956.0	1956.0	1940.0	1940.0	1915.0	1915.0	1915.0	1932.0	1932.0	1929.0	1929.0	1929.0	1950.0	1950.0	1923.0	1923.0	1923.0	1954.0	1954.0	1920.0	1920.0	1920.0	1893.0	1893.0	1910.0	1910.0	1944.0	1944.0	1944.0	1900.0	1900.0	1923.0	1923.0	1923.0	1944.0	1944.0	1920.0	1920.0	1920.0	1914.0	1914.0	1942.0	1942.0	1942.0	1915.0	1915.0	1910.0	1910.0	1910.0	1910.0	1910.0	1900.0	1900.0	1900.0	1881.0	1881.0	1926.0	1926.0	1926.0	1932.0	1932.0	1885.0	1885.0	1885.0	1870.0	1870.0	1922.0	1922.0	1922.0	1904.0	1904.0	1908.0	1908.0	1908.0	1922.0	1922.0	1863.0	1863.0	1863.0	1876.0	1876.0	1909.0	1909.0	1909.0	1914.0	1914.0	1911.0	1911.0	1911.0	1899.0	1899.0	1899.0	1899.0	1899.0	1892.0	1892.0	1872.0	1872.0	1872.0	1906.0	1906.0	1885.0	1885.0	1885.0	1859.0	1859.0	1901.0	1901.0	1901.0	1889.0	1889.0	1852.0	1852.0	1852.0	1878.0	1878.0	1897.0	1897.0	1897.0	1870.0	1870.0	1848.0	1848.0	1848.0	1849.0	1849.0	1847.0	1847.0	1847.0	1868.0	1868.0	1886.0	1886.0	1886.0	1876.0	1876.0	1885.0	1885.0	1885.0	1884.0	1884.0	1896.0	1896.0	1896.0	1865.0	1865.0	1848.0	1848.0	1848.0	1864.0	1864.0	1854.0	1854.0	1854.0	1835.0	1835.0	1863.0	1863.0	1863.0	1881.0	1881.0	1881.0	1881.0	1881.0	1874.0	1874.0	1864.0	1864.0	1864.0	1850.0	1850.0	1847.0	1847.0	1847.0	1828.0	1828.0	1866.0	1866.0	1866.0	1865.0	1865.0	1831.0	1831.0	1831.0	1851.0	1851.0	1830.0	1830.0	1830.0	1834.0	1834.0	1828.0	1828.0	1828.0	1849.0	1849.0	1837.0	1837.0	1837.0	1840.0	1840.0	1870.0	1870.0	1870.0	1819.0	1819.0	1856.0	1856.0	1856.0	1871.0	1871.0	1866.0	1866.0	1866.0	1856.0	1856.0	1820.0	1820.0	1820.0	1847.0	1847.0	1825.0	1825.0	1825.0	1837.0	1837.0	1817.0	1817.0	1817.0	1823.0	1823.0	1872.0	1872.0	1845.0	1845.0	1845.0	1865.0	1865.0	1837.0	1837.0	1837.0	1833.0	1833.0	1837.0	1837.0	1837.0	1848.0	1848.0	1847.0	1847.0	1847.0	1833.0	1833.0	1832.0	1832.0	1832.0	1814.0	1814.0	1855.0	1855.0	1855.0	1829.0	1829.0	1863.0	1863.0	1863.0	1846.0	1846.0	1811.0	1811.0	1811.0	1816.0	1816.0	1828.0	1828.0	1828.0	1860.0	1860.0	1835.0	1835.0	1835.0	1846.0	1846.0	1857.0	1857.0	1857.0	1836.0	1836.0	1843.0	1843.0	1843.0	1811.0	1811.0	1802.0	1802.0	1802.0	1831.0	1831.0	1817.0	1817.0	1817.0	1831.0	1831.0	1845.0	1845.0	1845.0	1838.0	1838.0	1840.0	1840.0	1840.0	1822.0	1822.0	1798.0	1798.0	1798.0	1823.0	1823.0	1803.0	1803.0	1803.0	1817.0	1817.0	1813.0	1813.0	1813.0	1855.0	1855.0	1812.0	1812.0	1812.0	1820.0	1820.0	1822.0	1822.0	1822.0	1808.0	1808.0	1827.0	1827.0	1827.0	1843.0	1843.0	1830.0	1830.0	1830.0	1831.0	1831.0	1813.0	1813.0	1813.0	1830.0	1830.0	1835.0	1835.0	1835.0	1832.0	1832.0	1860.0	1860.0	1860.0	1825.0	1825.0	1833.0	1833.0	1833.0	1860.0	1860.0	1842.0	1842.0	1842.0	1840.0	1840.0	1805.0	1805.0	1805.0	1849.0	1849.0	1834.0	1834.0	1834.0	1844.0	1844.0	1833.0	1833.0	1833.0	1804.0	1804.0	1829.0	1829.0	1829.0	1849.0	1849.0	1853.0	1853.0	1853.0	1843.0	1843.0	1809.0	1809.0	1809.0	1837.0	1837.0	1835.0	1835.0	1835.0	1818.0	1818.0	1817.0	1817.0	1817.0	1838.0	1838.0	1838.0	1838.0	1838.0	1843.0	1843.0	1832.0	1832.0	1832.0	1854.0	1854.0	1822.0	1822.0	1822.0	1832.0	1832.0	1840.0	1840.0	1840.0	1830.0	1830.0	1828.0	1828.0	1819.0	1819.0	1819.0	1846.0	1846.0	1846.0	1846.0	1846.0	1816.0	1816.0	1851.0	1851.0	1851.0	1839.0	1839.0	1847.0	1847.0	1847.0	1800.0	1800.0	1856.0	1856.0	1856.0	1813.0	1813.0	1849.0	1849.0	1849.0	1823.0	1823.0	1832.0	1832.0	1832.0	1832.0	1832.0	1851.0	1851.0	1851.0	1847.0	1847.0	1830.0	1830.0	1830.0	1846.0	1846.0	1820.0	1820.0	1820.0	1861.0	1861.0	1855.0	1855.0	1855.0	1844.0	1844.0	1836.0	1836.0	1836.0	1817.0	1817.0	1871.0	1871.0	1871.0	1834.0	1834.0	1841.0	1841.0	1841.0	1868.0	1868.0	1845.0	1845.0	1845.0	1857.0	1857.0	1907.0	1907.0	1907.0	1865.0	1865.0	1886.0	1886.0	1886.0	1895.0	1895.0	1931.0	1931.0	1931.0	1937.0	1937.0	1922.0	1922.0	1922.0	1926.0	1926.0	1959.0	1959.0	1959.0	1976.0	1976.0	1953.0	1953.0	1953.0	2014.0	2014.0	2006.0	2006.0	2006.0	2031.0	2031.0	2047.0	2047.0	2047.0	2014.0	2014.0	2049.0	2049.0	2049.0	2066.0	2066.0	2063.0	2063.0	2063.0	2079.0	2079.0	2128.0	2128.0	2128.0	2120.0	2120.0	2097.0	2097.0	2097.0	2118.0	2118.0	2180.0	2180.0	2180.0	2165.0	2165.0	2172.0	2172.0	2172.0	2195.0	2195.0	2169.0	2169.0	2169.0	2202.0	2202.0	2208.0	2208.0	2208.0	2239.0	2239.0	2202.0	2202.0	2202.0	2248.0	2248.0	2241.0	2241.0	2241.0	2246.0	2246.0	2237.0	2237.0	2237.0	2242.0	2242.0	2276.0	2276.0	2276.0	2276.0	2276.0	2268.0	2268.0	2268.0	2303.0	2303.0	2321.0	2321.0	2321.0	2311.0	2311.0	2311.0	2311.0	2311.0	2304.0	2304.0	2303.0	2303.0	2303.0	2327.0	2327.0	2305.0	2305.0	2305.0	2329.0	2329.0	2358.0	2358.0	2354.0	2354.0	2354.0	2345.0	2345.0	2368.0	2368.0	2368.0	2343.0	2343.0	2352.0	2352.0	2352.0	2374.0	2374.0	2346.0	2346.0	2346.0	2337.0	2337.0	2373.0	2373.0	2373.0	2342.0	2342.0	2373.0	2373.0	2373.0	2396.0	2396.0	2344.0	2344.0	2344.0	2359.0	2359.0	2342.0	2342.0	2342.0	2375.0	2375.0	2367.0	2367.0	2367.0	2391.0	2391.0	2391.0	2391.0	2391.0	2384.0	2384.0	2400.0	2400.0	2400.0	2364.0	2364.0	2379.0	2379.0	2379.0	2372.0	2372.0	2364.0	2364.0	2364.0	2377.0	2377.0	2383.0	2383.0	2383.0	2370.0	2370.0	2384.0	2384.0	2384.0	2379.0	2379.0	2413.0	2413.0	2413.0	2377.0	2377.0	2354.0	2354.0	2354.0	2407.0	2407.0	2360.0	2360.0	2360.0	2389.0	2389.0	2370.0	2370.0	2370.0	2379.0	2379.0	2372.0	2372.0	2372.0	2379.0	2379.0	2396.0	2396.0	2396.0	2388.0	2388.0	2399.0	2399.0	2399.0	2347.0	2347.0	2360.0	2360.0	2360.0	2362.0	2362.0	2357.0	2357.0	2357.0	2386.0	2386.0	2375.0	2375.0	2375.0	2342.0	2342.0	2337.0	2337.0	2337.0	2332.0	2332.0	2374.0	2374.0	2374.0	2367.0	2367.0	2354.0	2354.0	2354.0	2313.0	2313.0	2322.0	2322.0	2322.0	2344.0	2344.0	2334.0	2334.0	2334.0	2341.0	2341.0	2323.0	2323.0	2323.0	2316.0	2316.0	2295.0	2295.0	2295.0	2301.0	2301.0	2280.0	2280.0	2280.0	2293.0	2293.0	2286.0	2286.0	2286.0	2310.0	2310.0	2280.0	2280.0	2280.0	2264.0	2264.0	2265.0	2265.0	2265.0	2267.0	2267.0	2275.0	2275.0	2275.0	2255.0	2255.0	2249.0	2249.0	2249.0	2253.0	2253.0	2244.0	2244.0	2244.0	2207.0	2207.0	2207.0	2207.0	2207.0	2216.0	2216.0	2186.0	2186.0	2186.0	2212.0	2212.0	2212.0	2212.0	2183.0	2183.0	2183.0	2164.0	2164.0	2199.0	2199.0	2199.0	2170.0	2170.0	2127.0	2127.0	2127.0	2176.0	2176.0	2135.0	2135.0	2135.0	2145.0	2145.0	2122.0	2122.0	2122.0	2120.0	2120.0	2129.0	2129.0	2129.0	2130.0	2130.0	2149.0	2149.0	2149.0	2111.0	2111.0	2138.0	2138.0	2138.0	2134.0	2134.0	2093.0	2093.0	2093.0	2100.0	2100.0	2083.0	2083.0	2083.0	2082.0	2082.0	2077.0	2077.0	2077.0	2073.0	2073.0	2109.0	2109.0	2109.0	2092.0	2092.0	2076.0	2076.0	2076.0	2107.0	2107.0	2080.0	2080.0	2080.0	2082.0	2082.0	2051.0	2051.0	2051.0	2093.0	2093.0	2066.0	2066.0	2066.0	2054.0	2054.0	2057.0	2057.0	2057.0	2043.0	2043.0	2044.0	2044.0	2044.0	2034.0	2034.0	2073.0	2073.0	2073.0	2031.0	2031.0	2051.0	2051.0	2051.0	2044.0	2044.0	2050.0	2050.0	2050.0	2063.0	2063.0	2057.0	2057.0	2057.0	2045.0	2045.0	2058.0	2058.0	2058.0	2017.0	2017.0	2015.0	2015.0	2015.0	2029.0	2029.0	2033.0	2033.0	2033.0	2000.0	2000.0	2038.0	2038.0	2038.0	1991.0	1991.0	2009.0	2009.0	2009.0	2032.0	2032.0	2000.0	2000.0	2000.0	2030.0	2030.0	1982.0	1982.0	1982.0	2012.0	2012.0	1988.0	1988.0	1988.0	1996.0	1996.0	1983.0	1983.0	1983.0	2006.0	2006.0	1972.0	1972.0	1972.0	1997.0	1997.0	1975.0	1975.0	1975.0	1969.0	1969.0	1959.0	1959.0	1959.0	1990.0	1990.0	1971.0	1971.0	1971.0	1965.0	1965.0	2002.0	2002.0	2002.0	1964.0	1964.0	1963.0	1963.0	1963.0	1967.0	1967.0	1951.0	1951.0	1951.0	1977.0	1977.0	1971.0	1971.0	1971.0	1969.0	1969.0	1946.0	1946.0	1946.0	1983.0	1983.0	1942.0	1942.0	1943.0	1943.0	1943.0	1972.0	1972.0	1924.0	1924.0	1924.0	1948.0	1948.0	1964.0	1964.0	1964.0	1942.0	1942.0	1970.0	1970.0	1970.0	1951.0	1951.0	1960.0	1960.0	1960.0	1947.0	1947.0	1917.0	1917.0	1917.0	1917.0	1917.0	1926.0	1926.0	1926.0	1920.0	1920.0	1921.0	1921.0	1921.0	1926.0	1926.0	1924.0	1924.0	1924.0	1945.0	1945.0	1912.0	1912.0	1912.0	1935.0	1935.0	1906.0	1906.0	1906.0	1924.0	1924.0	1920.0	1920.0	1920.0	1915.0	1915.0	1894.0	1894.0	1894.0	1927.0	1927.0	1890.0	1890.0	1890.0	1923.0	1923.0	1905.0	1905.0	1905.0	1906.0	1906.0	1880.0	1880.0	1880.0	1886.0	1886.0	1921.0	1921.0	1921.0	1925.0	1925.0	1897.0	1897.0	1897.0	1899.0	1899.0	1880.0	1880.0	1880.0	1915.0	1915.0	1904.0	1904.0	1904.0	1889.0	1889.0	1914.0	1914.0	1914.0	1865.0	1865.0	1859.0	1859.0	1859.0	1864.0	1864.0	1904.0	1904.0	1904.0	1868.0	1868.0	1907.0	1907.0	1907.0	1900.0	1900.0	1908.0	1908.0	1908.0	1864.0	1864.0	1873.0	1873.0	1873.0	1887.0	1887.0	1901.0	1901.0	1901.0	1854.0	1854.0	1872.0	1872.0	1872.0	1872.0	1872.0	1893.0	1893.0	1893.0	1855.0	1855.0	1852.0	1852.0	1852.0	1885.0	1885.0	1897.0	1897.0	1897.0	1844.0	1844.0	1885.0	1885.0	1885.0	1893.0	1893.0	1851.0	1851.0	1851.0	1858.0	1858.0	1857.0	1857.0	1857.0	1862.0	1862.0	1894.0	1894.0	1894.0	1845.0	1845.0	1865.0	1865.0	1865.0	1863.0	1863.0	1870.0	1870.0	1870.0	1863.0	1863.0	1825.0	1825.0	1825.0	1832.0	1832.0	1842.0	1842.0	1842.0	1870.0	1870.0	1836.0	1836.0	1836.0	1880.0	1880.0	1852.0	1852.0	1852.0	1865.0	1865.0	1859.0	1859.0	1861.0	1861.0	1861.0	1864.0	1864.0	1860.0	1860.0	1860.0	1871.0	1871.0	1870.0	1870.0	1870.0	1832.0	1832.0	1871.0	1871.0	1871.0	1829.0	1829.0	1861.0	1861.0	1861.0	1856.0	1856.0	1841.0	1841.0	1841.0	1838.0	1838.0	1841.0	1841.0	1841.0	1870.0	1870.0	1862.0	1862.0	1862.0	1878.0	1878.0	1878.0	1878.0	1878.0	1852.0	1852.0	1817.0	1817.0	1817.0	1846.0	1846.0	1828.0	1828.0	1828.0	1828.0	1828.0	1841.0	1841.0	1841.0	1858.0	1858.0	1827.0	1827.0	1827.0	1821.0	1821.0	1824.0	1824.0	1824.0	1870.0	1870.0	1833.0	1833.0	1833.0	1837.0	1837.0	1838.0	1838.0	1838.0	1820.0	1820.0	1863.0	1863.0	1863.0	1823.0	1823.0	1841.0	1841.0	1841.0	1840.0	1840.0	1817.0	1817.0	1817.0	1822.0	1822.0	1844.0	1844.0	1844.0	1812.0	1812.0	1860.0	1860.0	1860.0	1802.0	1802.0	1862.0	1862.0	1862.0	1812.0	1812.0	1842.0	1842.0	1842.0	1819.0	1819.0	1834.0	1834.0	1834.0	1841.0	1841.0	1859.0	1859.0	1859.0	1836.0	1836.0	1835.0	1835.0	1835.0	1826.0	1826.0	1811.0	1811.0	1811.0	1823.0	1823.0	1846.0	1846.0	1846.0	1844.0	1844.0	1807.0	1807.0	1807.0	1801.0	1801.0	1837.0	1837.0	1837.0	1839.0	1839.0	1813.0	1813.0	1813.0	1854.0	1854.0	1849.0	1849.0	1849.0	1826.0	1826.0	1808.0	1808.0	1808.0	1855.0	1855.0	1819.0	1819.0	1819.0	1868.0	1868.0	1826.0	1826.0	1826.0	1838.0	1838.0	1811.0	1811.0	1811.0	1803.0	1803.0	1803.0	1803.0	1803.0	1826.0	1826.0	1812.0	1812.0	1812.0	1824.0	1824.0	1822.0	1822.0	1822.0	1835.0	1835.0	1821.0	1821.0	1821.0	1845.0	1845.0	1830.0	1830.0	1816.0	1816.0	1816.0	1856.0	1856.0	1825.0	1825.0	1825.0	1832.0	1832.0	1828.0	1828.0	1828.0	1840.0	1840.0	1850.0	1850.0	1850.0	1833.0	1833.0	1849.0	1849.0	1849.0	1828.0	1828.0	1842.0	1842.0	1842.0	1835.0	1835.0	1850.0	1850.0	1850.0	1836.0	1836.0	1831.0	1831.0	1831.0	1862.0	1862.0	1839.0	1839.0	1839.0	1858.0	1858.0	1838.0	1838.0	1838.0	1847.0	1847.0	1822.0	1822.0	1822.0	1843.0	1843.0	1846.0	1846.0	1846.0	1827.0	1827.0	1820.0	1820.0	1820.0	1861.0	1861.0	1846.0	1846.0	1846.0	1841.0	1841.0	1835.0	1835.0	1835.0	1848.0	1848.0	1864.0	1864.0	1864.0	1857.0	1857.0	1848.0	1848.0	1848.0	1829.0	1829.0	1838.0	1838.0	1838.0	1850.0	1850.0	1813.0	1813.0	1813.0	1851.0	1851.0	1860.0	1860.0	1860.0	1871.0	1871.0	1878.0	1878.0	1878.0	1864.0	1864.0	1885.0	1885.0	1885.0	1857.0	1857.0	1866.0	1866.0	1866.0	1917.0	1917.0	1889.0	1889.0	1889.0	1897.0	1897.0	1900.0	1900.0	1900.0	1896.0	1896.0	1910.0	1910.0	1910.0	1916.0	1916.0	1941.0	1941.0	1941.0	1976.0	1976.0	1947.0	1947.0	1947.0	1973.0	1973.0	2007.0	2007.0	2007.0	2019.0	2019.0	2017.0	2017.0	2017.0	2060.0	2060.0	2056.0	2056.0	2056.0	2035.0	2035.0	2069.0	2069.0	2069.0	2099.0	2099.0	2087.0	2087.0	2087.0	2077.0	2077.0	2096.0	2096.0	2096.0	2150.0	2150.0	2127.0	2127.0	2127.0	2132.0	2132.0	2175.0	2175.0	2175.0	2173.0	2173.0	2152.0	2152.0	2152.0	2182.0	2182.0	2221.0	2221.0	2221.0	2222.0	2222.0	2196.0	2196.0	2196.0	2223.0	2223.0	2234.0	2234.0	2234.0	2245.0	2245.0	2269.0	2269.0	2231.0	2231.0	2231.0	2287.0	2287.0	2239.0	2239.0	2239.0	2267.0	2267.0	2288.0	2288.0	2288.0	2257.0	2257.0	2297.0	2297.0	2297.0	2316.0	2316.0	2309.0	2309.0	2309.0	2285.0	2285.0	2332.0	2332.0	2332.0	2337.0	2337.0	2319.0	2319.0	2319.0	2324.0	2324.0	2331.0	2331.0	2331.0	2347.0	2347.0	2315.0	2315.0	2315.0	2330.0	2330.0	2312.0	2312.0	2312.0	2354.0	2354.0	2352.0	2352.0	2352.0	2371.0	2371.0	2350.0	2350.0	2350.0	2358.0	2358.0	2361.0	2361.0	2361.0	2336.0	2336.0	2362.0	2362.0	2362.0	2383.0	2383.0	2386.0	2386.0	2386.0	2353.0	2353.0	2364.0	2364.0	2364.0	2346.0	2346.0	2342.0	2342.0	2342.0	2358.0	2358.0	2363.0	2363.0	2363.0	2364.0	2364.0	2370.0	2370.0	2370.0	2394.0	2394.0	2380.0	2380.0	2380.0	2367.0	2367.0	2376.0	2376.0	2376.0	2360.0	2360.0	2377.0	2377.0	2377.0	2391.0	2391.0	2386.0	2386.0	2386.0	2359.0	2359.0	2376.0	2376.0	2376.0	2395.0	2395.0	2361.0	2361.0	2361.0	2344.0	2344.0	2361.0	2361.0	2361.0	2397.0	2397.0	2349.0	2349.0	2349.0	2378.0	2378.0	2339.0	2339.0	2339.0	2400.0	2400.0	2357.0	2357.0	2357.0	2335.0	2335.0	2369.0	2369.0	2369.0	2361.0	2361.0	2351.0	2351.0	2351.0	2354.0	2354.0	2368.0	2368.0	2368.0	2352.0	2352.0	2331.0	2331.0	2331.0	2337.0	2337.0	2330.0	2330.0	2330.0	2347.0	2347.0	2311.0	2311.0	2311.0	2330.0	2330.0	2296.0	2296.0	2296.0	2336.0	2336.0	2314.0	2314.0	2314.0	2293.0	2293.0	2290.0	2290.0	2290.0	2328.0	2328.0	2312.0	2312.0	2312.0	2304.0	2304.0	2271.0	2271.0	2271.0	2314.0	2314.0	2290.0	2290.0	2290.0	2303.0	2303.0	2275.0	2275.0	2272.0	2272.0	2272.0	2266.0	2266.0	2257.0	2257.0	2257.0	2267.0	2267.0	2238.0	2238.0	2238.0	2236.0	2236.0	2226.0	2226.0	2226.0	2248.0	2248.0	2230.0	2230.0	2230.0	2202.0	2202.0	2204.0	2204.0	2204.0	2215.0	2215.0	2198.0	2198.0	2198.0	2183.0	2183.0	2196.0	2196.0	2196.0	2190.0	2190.0	2184.0	2184.0	2184.0	2173.0	2173.0	2134.0	2134.0	2134.0	2140.0	2140.0	2148.0	2148.0	2148.0	2162.0	2162.0	2151.0	2151.0	2151.0	2123.0	2123.0	2155.0	2155.0	2155.0	2105.0	2105.0	2109.0	2109.0	2109.0	2129.0	2129.0	2092.0	2092.0	2092.0	2114.0	2114.0	2109.0	2109.0	2109.0	2111.0	2111.0	2091.0	2091.0	2091.0	2091.0	2091.0	2109.0	2109.0	2109.0	2068.0	2068.0	2117.0	2117.0	2117.0	2081.0	2081.0	2048.0	2048.0	2048.0	2059.0	2059.0	2055.0	2055.0	2055.0	2089.0	2089.0	2066.0	2066.0	2066.0	2072.0	2072.0	2054.0	2054.0	2054.0	2075.0	2075.0	2038.0	2038.0	2038.0	2063.0	2063.0	2066.0	2066.0	2066.0	2040.0	2040.0	2028.0	2028.0	2028.0	2048.0	2048.0	2068.0	2068.0	2068.0	2030.0	2030.0	2059.0	2059.0	2059.0	2032.0	2032.0	2028.0	2028.0	2028.0	2019.0	2019.0	2016.0	2016.0	2016.0	2051.0	2051.0	2039.0	2039.0	2039.0	2052.0	2052.0	2006.0	2006.0	2006.0	2005.0	2005.0	1994.0	1994.0	1994.0	2031.0	2031.0	2018.0	2018.0	