2187.0	2143.0	2143.0	2126.0	2126.0	2126.0	2127.0	2127.0	2116.0	2116.0	2116.0	2110.0	2110.0	2149.0	2149.0	2149.0	2191.0	2191.0	2154.0	2154.0	2154.0	2186.0	2186.0	2190.0	2190.0	2190.0	2135.0	2135.0	2165.0	2165.0	2165.0	2161.0	2161.0	2099.0	2099.0	2099.0	2120.0	2120.0	2119.0	2119.0	2119.0	2095.0	2095.0	2163.0	2163.0	2163.0	2152.0	2152.0	2152.0	2152.0	2152.0	2166.0	2166.0	2069.0	2069.0	2069.0	2071.0	2071.0	2103.0	2103.0	2103.0	2138.0	2138.0	2088.0	2088.0	2088.0	2092.0	2092.0	2075.0	2075.0	2075.0	2105.0	2105.0	2131.0	2131.0	2131.0	2099.0	2099.0	2118.0	2118.0	2118.0	2128.0	2128.0	2119.0	2119.0	2119.0	2037.0	2037.0	2045.0	2045.0	2045.0	2041.0	2041.0	2094.0	2094.0	2094.0	2028.0	2028.0	2108.0	2108.0	2108.0	2028.0	2028.0	2091.0	2091.0	2091.0	2023.0	2023.0	2012.0	2012.0	2012.0	2098.0	2098.0	2055.0	2055.0	2055.0	2038.0	2038.0	2047.0	2047.0	2047.0	2066.0	2066.0	2014.0	2014.0	2014.0	2037.0	2037.0	2047.0	2047.0	2047.0	2009.0	2009.0	1999.0	1999.0	1999.0	2045.0	2045.0	2047.0	2047.0	2047.0	2035.0	2035.0	2082.0	2082.0	2082.0	2076.0	2076.0	1988.0	1988.0	1988.0	1988.0	1988.0	1979.0	1979.0	1979.0	2009.0	2009.0	2025.0	2025.0	2025.0	1993.0	1993.0	1974.0	1974.0	1974.0	1966.0	1966.0	2032.0	2032.0	2032.0	1980.0	1980.0	1972.0	1972.0	1972.0	1973.0	1973.0	2018.0	2018.0	2018.0	2047.0	2047.0	1958.0	1958.0	1958.0	1992.0	1992.0	1999.0	1999.0	1999.0	1964.0	1964.0	2004.0	2004.0	2004.0	2010.0	2010.0	1966.0	1966.0	1966.0	2024.0	2024.0	1969.0	1969.0	1969.0	2033.0	2033.0	2031.0	2031.0	1988.0	1988.0	1988.0	1984.0	1984.0	1942.0	1942.0	1942.0	2019.0	2019.0	1971.0	1971.0	1971.0	2014.0	2014.0	1943.0	1943.0	1943.0	1991.0	1991.0	1941.0	1941.0	1941.0	1960.0	1960.0	1948.0	1948.0	1948.0	2028.0	2028.0	1961.0	1961.0	1961.0	2019.0	2019.0	2021.0	2021.0	2021.0	1968.0	1968.0	1980.0	1980.0	1980.0	1949.0	1949.0	2019.0	2019.0	2019.0	2015.0	2015.0	1938.0	1938.0	1938.0	1978.0	1978.0	1950.0	1950.0	1950.0	2008.0	2008.0	2016.0	2016.0	2016.0	2013.0	2013.0	1974.0	1974.0	1974.0	2006.0	2006.0	1926.0	1926.0	1926.0	2010.0	2010.0	1924.0	1924.0	1924.0	1971.0	1971.0	2000.0	2000.0	2000.0	2003.0	2003.0	1942.0	1942.0	1942.0	2008.0	2008.0	1922.0	1922.0	1922.0	1924.0	1924.0	1981.0	1981.0	1981.0	1990.0	1990.0	1932.0	1932.0	1932.0	2012.0	2012.0	1971.0	1971.0	1971.0	2006.0	2006.0	2037.0	2037.0	2037.0	1986.0	1986.0	2058.0	2058.0	2058.0	2008.0	2008.0	2019.0	2019.0	2019.0	2106.0	2106.0	2091.0	2091.0	2091.0	2063.0	2063.0	2173.0	2173.0	2173.0	2116.0	2116.0	2178.0	2178.0	2178.0	2238.0	2238.0	2252.0	2252.0	2252.0	2257.0	2257.0	2228.0	2228.0	2228.0	2295.0	2295.0	2286.0	2286.0	2286.0	2350.0	2350.0	2279.0	2279.0	2279.0	2286.0	2286.0	2320.0	2320.0	2320.0	2381.0	2381.0	2429.0	2429.0	2429.0	2435.0	2435.0	2378.0	2378.0	2378.0	2408.0	2408.0	2444.0	2444.0	2444.0	2471.0	2471.0	2501.0	2501.0	2501.0	2438.0	2438.0	2458.0	2458.0	2458.0	2524.0	2524.0	2483.0	2483.0	2483.0	2534.0	2534.0	2497.0	2497.0	2497.0	2525.0	2525.0	2589.0	2589.0	2538.0	2538.0	2538.0	2622.0	2622.0	2556.0	2556.0	2556.0	2569.0	2569.0	2599.0	2599.0	2599.0	2587.0	2587.0	2622.0	2622.0	2622.0	2638.0	2638.0	2576.0	2576.0	2576.0	2645.0	2645.0	2585.0	2585.0	2585.0	2673.0	2673.0	2689.0	2689.0	2689.0	2626.0	2626.0	2622.0	2622.0	2622.0	2703.0	2703.0	2627.0	2627.0	2627.0	2714.0	2714.0	2648.0	2648.0	2648.0	2675.0	2675.0	2698.0	2698.0	2698.0	2704.0	2704.0	2658.0	2658.0	2658.0	2659.0	2659.0	2661.0	2661.0	2661.0	2663.0	2663.0	2686.0	2686.0	2686.0	2656.0	2656.0	2691.0	2691.0	2691.0	2698.0	2698.0	2708.0	2708.0	2708.0	2724.0	2724.0	2674.0	2674.0	2674.0	2667.0	2667.0	2683.0	2683.0	2683.0	2672.0	2672.0	2674.0	2674.0	2674.0	2714.0	2714.0	2692.0	2692.0	2692.0	2707.0	2707.0	2744.0	2744.0	2744.0	2693.0	2693.0	2746.0	2746.0	2746.0	2712.0	2712.0	2733.0	2733.0	2733.0	2694.0	2694.0	2713.0	2713.0	2713.0	2687.0	2687.0	2751.0	2751.0	2751.0	2658.0	2658.0	2657.0	2657.0	2657.0	2668.0	2668.0	2737.0	2737.0	2737.0	2701.0	2701.0	2726.0	2726.0	2726.0	2658.0	2658.0	2727.0	2727.0	2727.0	2671.0	2671.0	2694.0	2694.0	2694.0	2709.0	2709.0	2656.0	2656.0	2656.0	2714.0	2714.0	2696.0	2696.0	2696.0	2673.0	2673.0	2695.0	2695.0	2695.0	2614.0	2614.0	2683.0	2683.0	2683.0	2647.0	2647.0	2655.0	2655.0	2655.0	2601.0	2601.0	2603.0	2603.0	2603.0	2582.0	2582.0	2650.0	2650.0	2650.0	2568.0	2568.0	2643.0	2643.0	2643.0	2602.0	2602.0	2579.0	2579.0	2579.0	2603.0	2603.0	2624.0	2624.0	2624.0	2596.0	2596.0	2571.0	2571.0	2571.0	2535.0	2535.0	2601.0	2601.0	2585.0	2585.0	2585.0	2586.0	2586.0	2576.0	2576.0	2576.0	2550.0	2550.0	2530.0	2530.0	2530.0	2479.0	2479.0	2510.0	2510.0	2510.0	2510.0	2510.0	2485.0	2485.0	2485.0	2490.0	2490.0	2522.0	2522.0	2522.0	2458.0	2458.0	2463.0	2463.0	2463.0	2536.0	2536.0	2518.0	2518.0	2518.0	2525.0	2525.0	2515.0	2515.0	2515.0	2500.0	2500.0	2436.0	2436.0	2436.0	2436.0	2436.0	2487.0	2487.0	2487.0	2492.0	2492.0	2500.0	2500.0	2500.0	2501.0	2501.0	2407.0	2407.0	2407.0	2444.0	2444.0	2411.0	2411.0	2411.0	2490.0	2490.0	2466.0	2466.0	2466.0	2479.0	2479.0	2464.0	2464.0	2464.0	2407.0	2407.0	2461.0	2461.0	2461.0	2471.0	2471.0	2467.0	2467.0	2467.0	2468.0	2468.0	2421.0	2421.0	2421.0	2429.0	2429.0	2444.0	2444.0	2444.0	2409.0	2409.0	2375.0	2375.0	2375.0	2371.0	2371.0	2458.0	2458.0	2458.0	2457.0	2457.0	2378.0	2378.0	2378.0	2423.0	2423.0	2426.0	2426.0	2426.0	2429.0	2429.0	2403.0	2403.0	2403.0	2388.0	2388.0	2427.0	2427.0	2427.0	2389.0	2389.0	2362.0	2362.0	2362.0	2339.0	2339.0	2363.0	2363.0	2363.0	2344.0	2344.0	2336.0	2336.0	2336.0	2422.0	2422.0	2332.0	2332.0	2332.0	2382.0	2382.0	2350.0	2350.0	2350.0	2326.0	2326.0	2326.0	2326.0	2326.0	2334.0	2334.0	2368.0	2368.0	2368.0	2324.0	2324.0	2386.0	2386.0	2386.0	2364.0	2364.0	2292.0	2292.0	2292.0	2331.0	2331.0	2380.0	2380.0	2380.0	2371.0	2371.0	2292.0	2292.0	2292.0	2349.0	2349.0	2314.0	2314.0	2314.0	2351.0	2351.0	2326.0	2326.0	2326.0	2361.0	2361.0	2284.0	2284.0	2284.0	2341.0	2341.0	2262.0	2262.0	2337.0	2337.0	2337.0	2262.0	2262.0	2327.0	2327.0	2327.0	2271.0	2271.0	2264.0	2264.0	2264.0	2264.0	2264.0	2298.0	2298.0	2298.0	2240.0	2240.0	2248.0	2248.0	2248.0	2234.0	2234.0	2320.0	2320.0	2320.0	2289.0	2289.0	2223.0	2223.0	2223.0	2277.0	2277.0	2262.0	2262.0	2262.0	2267.0	2267.0	2264.0	2264.0	2264.0	2218.0	2218.0	2216.0	2216.0	2216.0	2281.0	2281.0	2286.0	2286.0	2286.0	2271.0	2271.0	2242.0	2242.0	2242.0	2200.0	2200.0	2265.0	2265.0	2265.0	2273.0	2273.0	2193.0	2193.0	2193.0	2249.0	2249.0	2271.0	2271.0	2271.0	2213.0	2213.0	2256.0	2256.0	2256.0	2231.0	2231.0	2241.0	2241.0	2241.0	2160.0	2160.0	2198.0	2198.0	2198.0	2183.0	2183.0	2164.0	2164.0	2164.0	2179.0	2179.0	2218.0	2218.0	2218.0	2147.0	2147.0	2139.0	2139.0	2139.0	2195.0	2195.0	2146.0	2146.0	2146.0	2220.0	2220.0	2217.0	2217.0	2217.0	2214.0	2214.0	2170.0	2170.0	2170.0	2122.0	2122.0	2145.0	2145.0	2145.0	2155.0	2155.0	2113.0	2113.0	2113.0	2185.0	2185.0	2174.0	2174.0	2174.0	2119.0	2119.0	2136.0	2136.0	2136.0	2180.0	2180.0	2118.0	2118.0	2118.0	2151.0	2151.0	2130.0	2130.0	2130.0	2097.0	2097.0	2166.0	2166.0	2166.0	2111.0	2111.0	2152.0	2152.0	2152.0	2092.0	2092.0	2118.0	2118.0	2118.0	2093.0	2093.0	2109.0	2109.0	2109.0	2063.0	2063.0	2079.0	2079.0	2079.0	2129.0	2129.0	2146.0	2146.0	2146.0	2095.0	2095.0	2049.0	2049.0	2049.0	2068.0	2068.0	2070.0	2070.0	2070.0	2038.0	2038.0	2057.0	2057.0	2057.0	2117.0	2117.0	2120.0	2120.0	2120.0	2061.0	2061.0	2040.0	2040.0	2086.0	2086.0	2086.0	2052.0	2052.0	2031.0	2031.0	2031.0	2083.0	2083.0	2109.0	2109.0	2109.0	2068.0	2068.0	2095.0	2095.0	2095.0	2089.0	2089.0	2085.0	2085.0	2085.0	2099.0	2099.0	2071.0	2071.0	2071.0	2014.0	2014.0	2022.0	2022.0	2022.0	2003.0	2003.0	2000.0	2000.0	2000.0	2087.0	2087.0	2007.0	2007.0	2007.0	2035.0	2035.0	2035.0	2035.0	2035.0	2059.0	2059.0	2071.0	2071.0	2071.0	2066.0	2066.0	1992.0	1992.0	1992.0	2065.0	2065.0	1984.0	1984.0	1984.0	1981.0	1981.0	1999.0	1999.0	1999.0	2057.0	2057.0	2053.0	2053.0	2053.0	1982.0	1982.0	1986.0	1986.0	1986.0	2006.0	2006.0	2010.0	2010.0	2010.0	2037.0	2037.0	1962.0	1962.0	1962.0	2014.0	2014.0	2010.0	2010.0	2010.0	1957.0	1957.0	1959.0	1959.0	1959.0	2002.0	2002.0	2024.0	2024.0	2024.0	2002.0	2002.0	1954.0	1954.0	1954.0	1942.0	1942.0	2022.0	2022.0	2022.0	2001.0	2001.0	1949.0	1949.0	1949.0	1954.0	1954.0	1983.0	1983.0	1983.0	1931.0	1931.0	1991.0	1991.0	1991.0	2023.0	2023.0	1944.0	1944.0	1944.0	1984.0	1984.0	1983.0	1983.0	1983.0	1967.0	1967.0	1996.0	1996.0	1996.0	1981.0	1981.0	1945.0	1945.0	1945.0	1996.0	1996.0	1995.0	1995.0	1995.0	1960.0	1960.0	1971.0	1971.0	1971.0	1915.0	1915.0	1930.0	1930.0	1930.0	1990.0	1990.0	1914.0	1914.0	1914.0	1933.0	1933.0	1935.0	1935.0	1935.0	1927.0	1927.0	1917.0	1917.0	1917.0	1984.0	1984.0	1915.0	1915.0	1915.0	1951.0	1951.0	1971.0	1971.0	1971.0	1964.0	1964.0	1893.0	1893.0	1893.0	1934.0	1934.0	1949.0	1949.0	1949.0	1940.0	1940.0	1883.0	1883.0	1883.0	1878.0	1878.0	1972.0	1972.0	1932.0	1932.0	1932.0	1936.0	1936.0	1959.0	1959.0	1959.0	1905.0	1905.0	1922.0	1922.0	1922.0	1880.0	1880.0	1900.0	1900.0	1900.0	1950.0	1950.0	1880.0	1880.0	1880.0	1870.0	1870.0	1940.0	1940.0	1940.0	1884.0	1884.0	1888.0	1888.0	1888.0	1906.0	1906.0	1874.0	1874.0	1874.0	1951.0	1951.0	1883.0	1883.0	1883.0	1884.0	1884.0	1930.0	1930.0	1930.0	1941.0	1941.0	1925.0	1925.0	1925.0	1950.0	1950.0	1871.0	1871.0	1871.0	1916.0	1916.0	1957.0	1957.0	1957.0	1886.0	1886.0	1891.0	1891.0	1891.0	1896.0	1896.0	1950.0	1950.0	1950.0	1874.0	1874.0	1923.0	1923.0	1923.0	1924.0	1924.0	1911.0	1911.0	1911.0	1961.0	1961.0	1925.0	1925.0	1925.0	1984.0	1984.0	1991.0	1991.0	1991.0	1958.0	1958.0	1921.0	1921.0	1921.0	1940.0	1940.0	1955.0	1955.0	1955.0	1995.0	1995.0	1990.0	1990.0	1990.0	2046.0	2046.0	2046.0	2046.0	2046.0	2042.0	2042.0	2060.0	2060.0	2060.0	2142.0	2142.0	2172.0	2172.0	2172.0	2134.0	2134.0	2181.0	2181.0	2181.0	2234.0	2234.0	2254.0	2254.0	2254.0	2215.0	2215.0	2277.0	2277.0	2277.0	2226.0	2226.0	2240.0	2240.0	2240.0	2337.0	2337.0	2271.0	2271.0	2271.0	2305.0	2305.0	2313.0	2313.0	2313.0	2379.0	2379.0	2334.0	2334.0	2334.0	2375.0	2375.0	2434.0	2434.0	2434.0	2450.0	2450.0	2457.0	2457.0	2457.0	2394.0	2394.0	2404.0	2404.0	2404.0	2500.0	2500.0	2425.0	2425.0	2425.0	2480.0	2480.0	2455.0	2455.0	2455.0	2481.0	2481.0	2539.0	2539.0	2539.0	2466.0	2466.0	2482.0	2482.0	2482.0	2507.0	2507.0	2568.0	2568.0	2568.0	2516.0	2516.0	2520.0	2520.0	2599.0	2599.0	2599.0	2541.0	2541.0	2607.0	2607.0	2607.0	2543.0	2543.0	2558.0	2558.0	2558.0	2563.0	2563.0	2569.0	2569.0	2569.0	2565.0	2565.0	2617.0	2617.0	2617.0	2572.0	2572.0	2607.0	2607.0	2607.0	2610.0	2610.0	2586.0	2586.0	2586.0	2664.0	2664.0	2645.0	2645.0	2645.0	2654.0	2654.0	2615.0	2615.0	2615.0	2632.0	2632.0	2609.0	2609.0	2609.0	2685.0	2685.0	2629.0	2629.0	2629.0	2636.0	2636.0	2638.0	2638.0	2638.0	2622.0	2622.0	2610.0	2610.0	2610.0	2655.0	2655.0	2697.0	2697.0	2697.0	2620.0	2620.0	2629.0	2629.0	2629.0	2631.0	2631.0	2682.0	2682.0	2682.0	2690.0	2690.0	2634.0	2634.0	2634.0	2691.0	2691.0	2629.0	2629.0	2629.0	2698.0	2698.0	2629.0	2629.0	2629.0	2685.0	2685.0	2630.0	2630.0	2630.0	2624.0	2624.0	2671.0	2671.0	2671.0	2692.0	2692.0	2683.0	2683.0	2683.0	2693.0	2693.0	2639.0	2639.0	2639.0	2649.0	2649.0	2667.0	2667.0	2667.0	2702.0	2702.0	2694.0	2694.0	2694.0	2694.0	2694.0	2614.0	2614.0	2614.0	2680.0	2680.0	2683.0	2683.0	2683.0	2679.0	2679.0	2631.0	2631.0	2631.0	2591.0	2591.0	2620.0	2620.0	2620.0	2601.0	2601.0	2650.0	2650.0	2650.0	2587.0	2587.0	2574.0	2574.0	2574.0	2572.0	2572.0	2591.0	2591.0	2591.0	2632.0	2632.0	2552.0	2552.0	2552.0	2550.0	2550.0	2558.0	2558.0	2558.0	2556.0	2556.0	2548.0	2548.0	2548.0	2606.0	2606.0	2547.0	2547.0	2547.0	2534.0	2534.0	2561.0	2561.0	2561.0	2517.0	2517.0	2575.0	2575.0	2575.0	2526.0	2526.0	2507.0	2507.0	2507.0	2523.0	2523.0	2516.0	2516.0	2516.0	2552.0	2552.0	2506.0	2506.0	2506.0	2543.0	2543.0	2537.0	2537.0	2535.0	2535.0	2535.0	2466.0	2466.0	2490.0	2490.0	2490.0	2450.0	2450.0	2458.0	2458.0	2458.0	2446.0	2446.0	2453.0	2453.0	2453.0	2440.0	2440.0	2421.0	2421.0	2421.0	2430.0	2430.0	2497.0	2497.0	2497.0	2423.0	2423.0	2492.0	2492.0	2492.0	2484.0	2484.0	2414.0	2414.0	2414.0	2402.0	2402.0	2402.0	2402.0	2402.0	2389.0	2389.0	2412.0	2412.0	2412.0	2387.0	2387.0	2394.0	2394.0	2394.0	2391.0	2391.0	2451.0	2451.0	2451.0	2446.0	2446.0	2417.0	2417.0	2417.0	2465.0	2465.0	2383.0	2383.0	2383.0	2400.0	2400.0	2458.0	2458.0	2458.0	2378.0	2378.0	2393.0	2393.0	2393.0	2447.0	2447.0	2446.0	2446.0	2446.0	2407.0	2407.0	2410.0	2410.0	2410.0	2398.0	2398.0	2342.0	2342.0	2342.0	2364.0	2364.0	2353.0	2353.0	2353.0	2380.0	2380.0	2345.0	2345.0	2345.0	2422.0	2422.0	2369.0	2369.0	2369.0	2360.0	2360.0	2401.0	2401.0	2401.0	2352.0	2352.0	2331.0	2331.0	2331.0	2337.0	2337.0	2339.0	2339.0	2339.0	2327.0	2327.0	2363.0	2363.0	2363.0	2318.0	2318.0	2387.0	2387.0	2387.0	2311.0	2311.0	2390.0	2390.0	2390.0	2347.0	2347.0	2388.0	2388.0	2388.0	2301.0	2301.0	2299.0	2299.0	2299.0	2355.0	2355.0	2310.0	2310.0	2310.0	2348.0	2348.0	2308.0	2308.0	2308.0	2284.0	2284.0	2358.0	2358.0	2358.0	2304.0	2304.0	2366.0	2366.0	2366.0	2299.0	2299.0	2309.0	2309.0	2309.0	2345.0	2345.0	2271.0	2271.0	2271.0	2271.0	2271.0	2280.0	2280.0	2280.0	2330.0	2330.0	2319.0	2319.0	2319.0	2274.0	2274.0	2288.0	2288.0	2288.0	2271.0	2271.0	2337.0	2337.0	2337.0	2243.0	2243.0	2268.0	2268.0	2331.0	2331.0	2331.0	2323.0	2323.0	2273.0	2273.0	2273.0	2307.0	2307.0	2314.0	2314.0	2314.0	2262.0	2262.0	2233.0	2233.0	2233.0	2246.0	2246.0	2288.0	2288.0	2288.0	2265.0	2265.0	2224.0	2224.0	2224.0	2274.0	2274.0	2287.0	2287.0	2287.0	2240.0	2240.0	2193.0	2193.0	2193.0	2215.0	2215.0	2277.0	2277.0	2277.0	2277.0	2277.0	2208.0	2208.0	2208.0	2262.0	2262.0	2246.0	2246.0	2246.0	2258.0	2258.0	2201.0	2201.0	2201.0	2212.0	2212.0	2256.0	2256.0	2256.0	2224.0	2224.0	2248.0	2248.0	2248.0	2201.0	2201.0	2184.0	2184.0	2184.0	2161.0	2161.0	2176.0	2176.0	2176.0	2201.0	2201.0	2203.0	2203.0	2203.0	2151.0	2151.0	2142.0	2142.0	2142.0	2151.0	2151.0	2190.0	2190.0	2190.0	2143.0	2143.0	2155.0	2155.0	2155.0	2148.0	2148.0	2207.0	2207.0	2207.0	2215.0	2215.0	2135.0	2135.0	2135.0	2196.0	2196.0	2123.0	2123.0	2123.0	2146.0	2146.0	2145.0	2145.0	2145.0	2126.0	2126.0	2192.0	2192.0	2192.0	2123.0	2123.0	2108.0	2108.0	2108.0	2111.0	2111.0	2193.0	2193.0	2193.0	2169.0	2169.0	2127.0	2127.0	2127.0	2103.0	2103.0	2101.0	2101.0	2101.0	2100.0	2100.0	2119.0	2119.0	2119.0	2155.0	2155.0	2150.0	2150.0	2150.0	2168.0	2168.0	2081.0	2081.0	2081.0	2155.0	2155.0	2085.0	2085.0	2085.0	2120.0	2120.0	2150.0	2150.0	2150.0	2157.0	2157.0	2146.0	2146.0	2146.0	2145.0	2145.0	2145.0	2145.0	2145.0	2065.0	2065.0	2056.0	2056.0	2056.0	2064.0	2064.0	2067.0	2067.0	2067.0	2140.0	2140.0	2125.0	2125.0	2125.0	2078.0	2078.0	2053.0	2053.0	2053.0	2084.0	2084.0	2047.0	2047.0	2092.0	2092.0	2092.0	2076.0	2076.0	2050.0	2050.0	2050.0	2098.0	2098.0	2066.0	2066.0	2066.0	2062.0	2062.0	2080.0	2080.0	2080.0	2039.0	2039.0	2083.0	2083.0	2083.0	2120.0	2120.0	2075.0	2075.0	2075.0	2100.0	2100.0	2026.0	2026.0	2026.0	2101.0	2101.0	2043.0	2043.0	2043.0	2042.0	2042.0	2021.0	2021.0	2021.0	2084.0	2084.0	2100.0	2100.0	2100.0	2103.0	2103.0	2025.0	2025.0	2025.0	2066.0	2066.0	2082.0	2082.0	