1660.0	1702.0	1702.0	1650.0	1650.0	1650.0	1712.0	1712.0	1688.0	1688.0	1688.0	1670.0	1670.0	1641.0	1641.0	1641.0	1676.0	1676.0	1675.0	1675.0	1675.0	1702.0	1702.0	1682.0	1682.0	1682.0	1706.0	1706.0	1681.0	1681.0	1681.0	1646.0	1646.0	1665.0	1665.0	1665.0	1670.0	1670.0	1659.0	1659.0	1659.0	1620.0	1620.0	1630.0	1630.0	1630.0	1612.0	1612.0	1612.0	1612.0	1612.0	1647.0	1647.0	1619.0	1619.0	1619.0	1657.0	1657.0	1611.0	1611.0	1611.0	1664.0	1664.0	1636.0	1636.0	1636.0	1635.0	1635.0	1661.0	1661.0	1661.0	1602.0	1602.0	1669.0	1669.0	1669.0	1642.0	1642.0	1607.0	1607.0	1607.0	1603.0	1603.0	1653.0	1653.0	1653.0	1601.0	1601.0	1650.0	1650.0	1650.0	1619.0	1619.0	1619.0	1619.0	1619.0	1663.0	1663.0	1663.0	1663.0	1663.0	1659.0	1659.0	1673.0	1673.0	1673.0	1658.0	1658.0	1636.0	1636.0	1636.0	1591.0	1591.0	1587.0	1587.0	1587.0	1591.0	1591.0	1620.0	1620.0	1620.0	1635.0	1635.0	1596.0	1596.0	1596.0	1633.0	1633.0	1607.0	1607.0	1607.0	1600.0	1600.0	1585.0	1585.0	1585.0	1638.0	1638.0	1586.0	1586.0	1586.0	1633.0	1633.0	1622.0	1622.0	1622.0	1577.0	1577.0	1569.0	1569.0	1569.0	1575.0	1575.0	1634.0	1634.0	1634.0	1595.0	1595.0	1574.0	1574.0	1574.0	1620.0	1620.0	1623.0	1623.0	1623.0	1626.0	1626.0	1653.0	1653.0	1653.0	1577.0	1577.0	1606.0	1606.0	1606.0	1591.0	1591.0	1575.0	1575.0	1575.0	1578.0	1578.0	1589.0	1589.0	1589.0	1575.0	1575.0	1616.0	1616.0	1616.0	1604.0	1604.0	1574.0	1574.0	1574.0	1616.0	1616.0	1588.0	1588.0	1588.0	1593.0	1593.0	1571.0	1571.0	1571.0	1589.0	1589.0	1620.0	1620.0	1628.0	1628.0	1628.0	1643.0	1643.0	1634.0	1634.0	1634.0	1633.0	1633.0	1575.0	1575.0	1575.0	1615.0	1615.0	1571.0	1571.0	1571.0	1571.0	1571.0	1569.0	1569.0	1569.0	1640.0	1640.0	1568.0	1568.0	1568.0	1584.0	1584.0	1587.0	1587.0	1587.0	1624.0	1624.0	1648.0	1648.0	1648.0	1608.0	1608.0	1605.0	1605.0	1605.0	1626.0	1626.0	1613.0	1613.0	1613.0	1638.0	1638.0	1610.0	1610.0	1610.0	1641.0	1641.0	1615.0	1615.0	1615.0	1614.0	1614.0	1586.0	1586.0	1586.0	1572.0	1572.0	1571.0	1571.0	1571.0	1643.0	1643.0	1625.0	1625.0	1625.0	1577.0	1577.0	1560.0	1560.0	1560.0	1575.0	1575.0	1565.0	1565.0	1565.0	1614.0	1614.0	1570.0	1570.0	1570.0	1570.0	1570.0	1570.0	1570.0	1570.0	1585.0	1585.0	1607.0	1607.0	1607.0	1610.0	1610.0	1587.0	1587.0	1587.0	1636.0	1636.0	1594.0	1594.0	1594.0	1576.0	1576.0	1595.0	1595.0	1595.0	1615.0	1615.0	1619.0	1619.0	1619.0	1570.0	1570.0	1619.0	1619.0	1619.0	1629.0	1629.0	1618.0	1618.0	1618.0	1563.0	1563.0	1571.0	1571.0	1571.0	1621.0	1621.0	1573.0	1573.0	1573.0	1632.0	1632.0	1559.0	1559.0	1559.0	1580.0	1580.0	1578.0	1578.0	1578.0	1574.0	1574.0	1626.0	1626.0	1626.0	1620.0	1620.0	1597.0	1597.0	1597.0	1631.0	1631.0	1585.0	1585.0	1585.0	1633.0	1633.0	1570.0	1570.0	1570.0	1607.0	1607.0	1571.0	1571.0	1571.0	1588.0	1588.0	1589.0	1589.0	1589.0	1608.0	1608.0	1700.0	1700.0	1700.0	1664.0	1664.0	1685.0	1685.0	1685.0	1689.0	1689.0	1706.0	1706.0	1706.0	1755.0	1755.0	1827.0	1827.0	1827.0	1809.0	1809.0	1809.0	1809.0	1866.0	1866.0	1866.0	1880.0	1880.0	1916.0	1916.0	1916.0	1948.0	1948.0	1976.0	1976.0	1976.0	2069.0	2069.0	2064.0	2064.0	2064.0	2100.0	2100.0	2156.0	2156.0	2156.0	2140.0	2140.0	2178.0	2178.0	2178.0	2225.0	2225.0	2261.0	2261.0	2261.0	2328.0	2328.0	2283.0	2283.0	2283.0	2366.0	2366.0	2321.0	2321.0	2321.0	2358.0	2358.0	2364.0	2364.0	2364.0	2432.0	2432.0	2474.0	2474.0	2474.0	2463.0	2463.0	2483.0	2483.0	2483.0	2447.0	2447.0	2486.0	2486.0	2486.0	2473.0	2473.0	2481.0	2481.0	2481.0	2530.0	2530.0	2499.0	2499.0	2499.0	2565.0	2565.0	2536.0	2536.0	2536.0	2593.0	2593.0	2524.0	2524.0	2524.0	2612.0	2612.0	2617.0	2617.0	2617.0	2579.0	2579.0	2554.0	2554.0	2554.0	2556.0	2556.0	2582.0	2582.0	2582.0	2626.0	2626.0	2576.0	2576.0	2576.0	2582.0	2582.0	2593.0	2593.0	2593.0	2651.0	2651.0	2658.0	2658.0	2658.0	2663.0	2663.0	2650.0	2650.0	2650.0	2605.0	2605.0	2612.0	2612.0	2612.0	2663.0	2663.0	2680.0	2680.0	2680.0	2683.0	2683.0	2620.0	2620.0	2620.0	2672.0	2672.0	2650.0	2650.0	2650.0	2671.0	2671.0	2626.0	2626.0	2626.0	2672.0	2672.0	2674.0	2674.0	2674.0	2636.0	2636.0	2694.0	2694.0	2694.0	2642.0	2642.0	2656.0	2656.0	2656.0	2663.0	2663.0	2706.0	2706.0	2706.0	2703.0	2703.0	2707.0	2707.0	2707.0	2727.0	2727.0	2711.0	2711.0	2711.0	2650.0	2650.0	2659.0	2659.0	2659.0	2720.0	2720.0	2719.0	2719.0	2719.0	2707.0	2707.0	2678.0	2678.0	2678.0	2674.0	2674.0	2675.0	2675.0	2675.0	2655.0	2655.0	2715.0	2715.0	2715.0	2664.0	2664.0	2717.0	2717.0	2717.0	2670.0	2670.0	2646.0	2646.0	2663.0	2663.0	2663.0	2693.0	2693.0	2695.0	2695.0	2695.0	2639.0	2639.0	2625.0	2625.0	2625.0	2642.0	2642.0	2676.0	2676.0	2676.0	2619.0	2619.0	2671.0	2671.0	2671.0	2667.0	2667.0	2654.0	2654.0	2654.0	2655.0	2655.0	2641.0	2641.0	2641.0	2587.0	2587.0	2570.0	2570.0	2570.0	2618.0	2618.0	2618.0	2618.0	2618.0	2564.0	2564.0	2597.0	2597.0	2597.0	2520.0	2520.0	2503.0	2503.0	2503.0	2525.0	2525.0	2466.0	2466.0	2466.0	2532.0	2532.0	2515.0	2515.0	2515.0	2494.0	2494.0	2448.0	2448.0	2448.0	2405.0	2405.0	2464.0	2464.0	2464.0	2418.0	2418.0	2430.0	2430.0	2430.0	2402.0	2402.0	2351.0	2351.0	2351.0	2382.0	2382.0	2321.0	2321.0	2321.0	2321.0	2321.0	2325.0	2325.0	2325.0	2332.0	2332.0	2284.0	2284.0	2284.0	2325.0	2325.0	2272.0	2272.0	2272.0	2280.0	2280.0	2237.0	2237.0	2237.0	2304.0	2304.0	2232.0	2232.0	2232.0	2230.0	2230.0	2269.0	2269.0	2269.0	2278.0	2278.0	2207.0	2207.0	2207.0	2247.0	2247.0	2212.0	2212.0	2212.0	2234.0	2234.0	2199.0	2199.0	2199.0	2258.0	2258.0	2253.0	2253.0	2253.0	2199.0	2199.0	2249.0	2249.0	2249.0	2196.0	2196.0	2175.0	2175.0	2175.0	2198.0	2198.0	2191.0	2191.0	2191.0	2193.0	2193.0	2237.0	2237.0	2237.0	2236.0	2236.0	2206.0	2206.0	2206.0	2162.0	2162.0	2231.0	2231.0	2231.0	2220.0	2220.0	2177.0	2177.0	2177.0	2227.0	2227.0	2157.0	2157.0	2157.0	2169.0	2169.0	2203.0	2203.0	2203.0	2209.0	2209.0	2148.0	2148.0	2148.0	2200.0	2200.0	2152.0	2152.0	2152.0	2152.0	2152.0	2151.0	2151.0	2151.0	2167.0	2167.0	2157.0	2157.0	2112.0	2112.0	2112.0	2116.0	2116.0	2091.0	2091.0	2091.0	2158.0	2158.0	2131.0	2131.0	2131.0	2076.0	2076.0	2111.0	2111.0	2111.0	2131.0	2131.0	2054.0	2054.0	2054.0	2078.0	2078.0	2116.0	2116.0	2116.0	2105.0	2105.0	2085.0	2085.0	2085.0	2040.0	2040.0	2041.0	2041.0	2041.0	2093.0	2093.0	2084.0	2084.0	2084.0	2006.0	2006.0	2030.0	2030.0	2030.0	1995.0	1995.0	1987.0	1987.0	1987.0	2053.0	2053.0	2010.0	2010.0	2010.0	1972.0	1972.0	2046.0	2046.0	2046.0	2015.0	2015.0	2028.0	2028.0	2028.0	2008.0	2008.0	1962.0	1962.0	1962.0	2003.0	2003.0	1993.0	1993.0	1993.0	1928.0	1928.0	1974.0	1974.0	1974.0	1942.0	1942.0	1963.0	1963.0	1963.0	1976.0	1976.0	1924.0	1924.0	1924.0	1972.0	1972.0	1949.0	1949.0	1949.0	1929.0	1929.0	1944.0	1944.0	1944.0	1882.0	1882.0	1872.0	1872.0	1872.0	1863.0	1863.0	1913.0	1913.0	1913.0	1931.0	1931.0	1913.0	1913.0	1913.0	1923.0	1923.0	1845.0	1845.0	1845.0	1846.0	1846.0	1854.0	1854.0	1854.0	1875.0	1875.0	1871.0	1871.0	1871.0	1835.0	1835.0	1821.0	1821.0	1821.0	1881.0	1881.0	1879.0	1879.0	1879.0	1862.0	1862.0	1831.0	1831.0	1831.0	1814.0	1814.0	1870.0	1870.0	1870.0	1793.0	1793.0	1783.0	1783.0	1783.0	1843.0	1843.0	1770.0	1770.0	1770.0	1771.0	1771.0	1824.0	1824.0	1824.0	1791.0	1791.0	1772.0	1772.0	1772.0	1762.0	1762.0	1783.0	1783.0	1783.0	1825.0	1825.0	1828.0	1828.0	1828.0	1771.0	1771.0	1824.0	1824.0	1824.0	1780.0	1780.0	1746.0	1746.0	1746.0	1769.0	1769.0	1763.0	1763.0	1763.0	1807.0	1807.0	1806.0	1806.0	1776.0	1776.0	1776.0	1790.0	1790.0	1789.0	1789.0	1789.0	1755.0	1755.0	1769.0	1769.0	1769.0	1720.0	1720.0	1713.0	1713.0	1713.0	1742.0	1742.0	1713.0	1713.0	1713.0	1730.0	1730.0	1721.0	1721.0	1721.0	1714.0	1714.0	1703.0	1703.0	1703.0	1764.0	1764.0	1768.0	1768.0	1768.0	1711.0	1711.0	1699.0	1699.0	1699.0	1761.0	1761.0	1759.0	1759.0	1759.0	1747.0	1747.0	1750.0	1750.0	1750.0	1741.0	1741.0	1712.0	1712.0	1712.0	1700.0	1700.0	1741.0	1741.0	1741.0	1685.0	1685.0	1720.0	1720.0	1720.0	1718.0	1718.0	1699.0	1699.0	1699.0	1706.0	1706.0	1663.0	1663.0	1663.0	1663.0	1663.0	1720.0	1720.0	1720.0	1678.0	1678.0	1667.0	1667.0	1667.0	1697.0	1697.0	1722.0	1722.0	1722.0	1652.0	1652.0	1708.0	1708.0	1708.0	1651.0	1651.0	1649.0	1649.0	1649.0	1696.0	1696.0	1646.0	1646.0	1646.0	1653.0	1653.0	1632.0	1632.0	1632.0	1682.0	1682.0	1625.0	1625.0	1625.0	1644.0	1644.0	1680.0	1680.0	1680.0	1657.0	1657.0	1640.0	1640.0	1640.0	1672.0	1672.0	1688.0	1688.0	1688.0	1621.0	1621.0	1657.0	1657.0	1657.0	1616.0	1616.0	1614.0	1614.0	1614.0	1617.0	1617.0	1618.0	1618.0	1618.0	1671.0	1671.0	1670.0	1670.0	1670.0	1690.0	1690.0	1688.0	1688.0	1688.0	1628.0	1628.0	1640.0	1640.0	1640.0	1604.0	1604.0	1667.0	1667.0	1667.0	1642.0	1642.0	1650.0	1650.0	1650.0	1617.0	1617.0	1597.0	1597.0	1597.0	1674.0	1674.0	1669.0	1669.0	1669.0	1658.0	1658.0	1660.0	1660.0	1660.0	1617.0	1617.0	1651.0	1651.0	1651.0	1651.0	1651.0	1602.0	1602.0	1602.0	1644.0	1644.0	1671.0	1671.0	1671.0	1616.0	1616.0	1660.0	1660.0	1595.0	1595.0	1595.0	1646.0	1646.0	1595.0	1595.0	1595.0	1652.0	1652.0	1620.0	1620.0	1620.0	1662.0	1662.0	1614.0	1614.0	1614.0	1604.0	1604.0	1639.0	1639.0	1639.0	1644.0	1644.0	1579.0	1579.0	1579.0	1647.0	1647.0	1578.0	1578.0	1578.0	1618.0	1618.0	1622.0	1622.0	1622.0	1652.0	1652.0	1653.0	1653.0	1653.0	1646.0	1646.0	1586.0	1586.0	1586.0	1597.0	1597.0	1631.0	1631.0	1631.0	1603.0	1603.0	1617.0	1617.0	1617.0	1572.0	1572.0	1581.0	1581.0	1581.0	1636.0	1636.0	1576.0	1576.0	1576.0	1600.0	1600.0	1595.0	1595.0	1595.0	1649.0	1649.0	1603.0	1603.0	1603.0	1626.0	1626.0	1565.0	1565.0	1565.0	1592.0	1592.0	1568.0	1568.0	1568.0	1600.0	1600.0	1617.0	1617.0	1617.0	1603.0	1603.0	1564.0	1564.0	1564.0	1574.0	1574.0	1635.0	1635.0	1635.0	1571.0	1571.0	1587.0	1587.0	1587.0	1622.0	1622.0	1631.0	1631.0	1631.0	1566.0	1566.0	1624.0	1624.0	1624.0	1631.0	1631.0	1567.0	1567.0	1567.0	1634.0	1634.0	1614.0	1614.0	1614.0	1577.0	1577.0	1600.0	1600.0	1600.0	1572.0	1572.0	1620.0	1620.0	1620.0	1593.0	1593.0	1634.0	1634.0	1634.0	1615.0	1615.0	1596.0	1596.0	1596.0	1629.0	1629.0	1582.0	1582.0	1582.0	1562.0	1562.0	1642.0	1642.0	1642.0	1640.0	1640.0	1638.0	1638.0	1638.0	1575.0	1575.0	1598.0	1598.0	1598.0	1627.0	1627.0	1611.0	1611.0	1611.0	1581.0	1581.0	1632.0	1632.0	1632.0	1567.0	1567.0	1579.0	1579.0	1579.0	1577.0	1577.0	1590.0	1590.0	1590.0	1598.0	1598.0	1590.0	1590.0	1590.0	1593.0	1593.0	1637.0	1637.0	1637.0	1634.0	1634.0	1630.0	1630.0	1637.0	1637.0	1637.0	1648.0	1648.0	1577.0	1577.0	1577.0	1622.0	1622.0	1569.0	1569.0	1569.0	1607.0	1607.0	1574.0	1574.0	1574.0	1570.0	1570.0	1611.0	1611.0	1611.0	1571.0	1571.0	1585.0	1585.0	1585.0	1589.0	1589.0	1633.0	1633.0	1633.0	1614.0	1614.0	1632.0	1632.0	1632.0	1639.0	1639.0	1632.0	1632.0	1632.0	1634.0	1634.0	1631.0	1631.0	1631.0	1617.0	1617.0	1588.0	1588.0	1588.0	1558.0	1558.0	1552.0	1552.0	1552.0	1620.0	1620.0	1566.0	1566.0	1566.0	1564.0	1564.0	1562.0	1562.0	1562.0	1564.0	1564.0	1605.0	1605.0	1605.0	1570.0	1570.0	1612.0	1612.0	1612.0	1590.0	1590.0	1606.0	1606.0	1606.0	1578.0	1578.0	1604.0	1604.0	1604.0	1607.0	1607.0	1635.0	1635.0	1635.0	1569.0	1569.0	1579.0	1579.0	1579.0	1600.0	1600.0	1589.0	1589.0	1589.0	1636.0	1636.0	1622.0	1622.0	1622.0	1611.0	1611.0	1622.0	1622.0	1622.0	1580.0	1580.0	1599.0	1599.0	1599.0	1614.0	1614.0	1630.0	1630.0	1630.0	1653.0	1653.0	1585.0	1585.0	1585.0	1629.0	1629.0	1602.0	1602.0	1602.0	1647.0	1647.0	1621.0	1621.0	1621.0	1715.0	1715.0	1681.0	1681.0	1681.0	1718.0	1718.0	1717.0	1717.0	1717.0	1822.0	1822.0	1841.0	1841.0	1841.0	1804.0	1804.0	1901.0	1901.0	1901.0	1920.0	1920.0	1942.0	1942.0	1942.0	1977.0	1977.0	2015.0	2015.0	2015.0	2040.0	2040.0	2031.0	2031.0	2031.0	2083.0	2083.0	2093.0	2093.0	2093.0	2179.0	2179.0	2146.0	2146.0	2146.0	2202.0	2202.0	2244.0	2244.0	2244.0	2275.0	2275.0	2303.0	2303.0	2303.0	2347.0	2347.0	2319.0	2319.0	2319.0	2371.0	2371.0	2349.0	2349.0	2396.0	2396.0	2396.0	2384.0	2384.0	2395.0	2395.0	2395.0	2447.0	2447.0	2499.0	2499.0	2499.0	2514.0	2514.0	2526.0	2526.0	2526.0	2460.0	2460.0	2514.0	2514.0	2514.0	2527.0	2527.0	2500.0	2500.0	2500.0	2524.0	2524.0	2507.0	2507.0	2507.0	2579.0	2579.0	2515.0	2515.0	2515.0	2583.0	2583.0	2544.0	2544.0	2544.0	2615.0	2615.0	2615.0	2615.0	2615.0	2543.0	2543.0	2618.0	2618.0	2618.0	2571.0	2571.0	2597.0	2597.0	2597.0	2629.0	2629.0	2619.0	2619.0	2619.0	2561.0	2561.0	2571.0	2571.0	2571.0	2563.0	2563.0	2639.0	2639.0	2639.0	2636.0	2636.0	2593.0	2593.0	2593.0	2594.0	2594.0	2623.0	2623.0	2623.0	2604.0	2604.0	2596.0	2596.0	2596.0	2624.0	2624.0	2618.0	2618.0	2618.0	2664.0	2664.0	2651.0	2651.0	2651.0	2589.0	2589.0	2624.0	2624.0	2624.0	2597.0	2597.0	2656.0	2656.0	2656.0	2645.0	2645.0	2645.0	2645.0	2645.0	2608.0	2608.0	2659.0	2659.0	2659.0	2660.0	2660.0	2606.0	2606.0	2606.0	2623.0	2623.0	2625.0	2625.0	2625.0	2645.0	2645.0	2659.0	2659.0	2659.0	2623.0	2623.0	2652.0	2652.0	2652.0	2659.0	2659.0	2618.0	2618.0	2618.0	2689.0	2689.0	2622.0	2622.0	2622.0	2608.0	2608.0	2618.0	2618.0	2618.0	2611.0	2611.0	2652.0	2652.0	2652.0	2622.0	2622.0	2663.0	2663.0	2663.0	2608.0	2608.0	2595.0	2595.0	2595.0	2590.0	2590.0	2629.0	2629.0	2629.0	2590.0	2590.0	2592.0	2592.0	2592.0	2651.0	2651.0	2621.0	2621.0	2621.0	2567.0	2567.0	2556.0	2556.0	2556.0	2627.0	2627.0	2537.0	2537.0	2537.0	2579.0	2579.0	2529.0	2529.0	2529.0	2505.0	2505.0	2511.0	2511.0	2511.0	2484.0	2484.0	2553.0	2553.0	2531.0	2531.0	2531.0	2523.0	2523.0	2468.0	2468.0	2468.0	2421.0	2421.0	2422.0	2422.0	2422.0	2427.0	2427.0	2408.0	2408.0	2408.0	2453.0	2453.0	2367.0	2367.0	2367.0	2386.0	2386.0	2401.0	2401.0	2401.0	2367.0	2367.0	2403.0	2403.0	2403.0	2323.0	2323.0	2307.0	2307.0	2307.0	2289.0	2289.0	2315.0	2315.0	2315.0	2352.0	2352.0	2340.0	2340.0	2340.0	2263.0	2263.0	2293.0	2293.0	2293.0	2311.0	2311.0	2310.0	2310.0	2310.0	2254.0	2254.0	2255.0	2255.0	2255.0	2265.0	2265.0	2230.0	2230.0	2230.0	2240.0	2240.0	2271.0	2271.0	2271.0	2234.0	2234.0	2281.0	2281.0	2281.0	2222.0	2222.0	2305.0	2305.0	2305.0	2250.0	2250.0	2252.0	2252.0	2252.0	2265.0	2265.0	2218.0	2218.0	2218.0	2252.0	2252.0	2240.0	2240.0	2240.0	2233.0	2233.0	2213.0	2213.0	2213.0	2213.0	2213.0	2283.0	2283.0	2283.0	2212.0	2212.0	2224.0	2224.0	2224.0	2269.0	2269.0	2212.0	2212.0	2212.0	2234.0	2234.0	2196.0	2196.0	2196.0	2208.0	2208.0	2220.0	2220.0	2220.0	2205.0	2205.0	2250.0	2250.0	2250.0	2254.0	2254.0	2174.0	2174.0	2174.0	2178.0	2178.0	2236.0	2236.0	2236.0	2220.0	2220.0	2210.0	2210.0	2210.0	2176.0	2176.0	2214.0	2214.0	2214.0	2143.0	2143.0	2138.0	2138.0	2138.0	2209.0	2209.0	2135.0	2135.0	2135.0	2188.0	2188.0	2195.0	2195.0	2195.0	2114.0	2114.0	2176.0	2176.0	2176.0	2100.0	2100.0	2171.0	2171.0	2171.0	2164.0	2164.0	2151.0	2151.0	2151.0	2076.0	2076.0	2078.0	2078.0	2078.0	2075.0	2075.0	2067.0	2067.0	2067.0	2067.0	2067.0	2092.0	2092.0	2092.0	2076.0	2076.0	2054.0	2054.0	2090.0	2090.0	2090.0	2020.0	2020.0	2101.0	2101.0	2101.0	2016.0	2016.0	2031.0	2031.0	2031.0	2080.0	2080.0	2000.0	2000.0	2000.0	2002.0	2002.0	1997.0	1997.0	1997.0	2056.0	2056.0	2032.0	2032.0	2032.0	2013.0	2013.0	1972.0	1972.0	1972.0	2039.0	2039.0	1963.0	1963.0	1963.0	1995.0	1995.0	1957.0	1957.0	1957.0	1989.0	1989.0	1936.0	1936.0	1936.0	1949.0	1949.0	1961.0	1961.0	1961.0	1959.0	1959.0	1980.0	1980.0	