1929.0	1919.0	1919.0	1911.0	1911.0	1911.0	1902.0	1902.0	1906.0	1906.0	1906.0	1886.0	1886.0	1893.0	1893.0	1893.0	1909.0	1909.0	1894.0	1894.0	1879.0	1879.0	1879.0	1868.0	1868.0	1894.0	1894.0	1894.0	1880.0	1880.0	1892.0	1892.0	1892.0	1907.0	1907.0	1871.0	1871.0	1871.0	1859.0	1859.0	1855.0	1855.0	1855.0	1866.0	1866.0	1884.0	1884.0	1884.0	1884.0	1884.0	1892.0	1892.0	1892.0	1843.0	1843.0	1842.0	1842.0	1842.0	1887.0	1887.0	1893.0	1893.0	1893.0	1891.0	1891.0	1850.0	1850.0	1850.0	1882.0	1882.0	1862.0	1862.0	1862.0	1838.0	1838.0	1869.0	1869.0	1869.0	1854.0	1854.0	1860.0	1860.0	1860.0	1865.0	1865.0	1861.0	1861.0	1861.0	1868.0	1868.0	1832.0	1832.0	1832.0	1838.0	1838.0	1830.0	1830.0	1830.0	1843.0	1843.0	1870.0	1870.0	1870.0	1839.0	1839.0	1848.0	1848.0	1848.0	1843.0	1843.0	1852.0	1852.0	1852.0	1844.0	1844.0	1815.0	1815.0	1815.0	1840.0	1840.0	1836.0	1836.0	1836.0	1858.0	1858.0	1842.0	1842.0	1842.0	1847.0	1847.0	1837.0	1837.0	1837.0	1850.0	1850.0	1855.0	1855.0	1855.0	1823.0	1823.0	1865.0	1865.0	1865.0	1844.0	1844.0	1844.0	1844.0	1844.0	1834.0	1834.0	1846.0	1846.0	1846.0	1821.0	1821.0	1852.0	1852.0	1852.0	1840.0	1840.0	1827.0	1827.0	1827.0	1819.0	1819.0	1834.0	1834.0	1834.0	1837.0	1837.0	1833.0	1833.0	1833.0	1829.0	1829.0	1852.0	1852.0	1852.0	1803.0	1803.0	1816.0	1816.0	1816.0	1845.0	1845.0	1836.0	1836.0	1836.0	1834.0	1834.0	1819.0	1819.0	1819.0	1795.0	1795.0	1815.0	1815.0	1815.0	1847.0	1847.0	1808.0	1808.0	1808.0	1830.0	1830.0	1807.0	1807.0	1807.0	1803.0	1803.0	1799.0	1799.0	1799.0	1806.0	1806.0	1795.0	1795.0	1795.0	1805.0	1805.0	1793.0	1793.0	1793.0	1808.0	1808.0	1801.0	1801.0	1809.0	1809.0	1809.0	1816.0	1816.0	1798.0	1798.0	1798.0	1785.0	1785.0	1784.0	1784.0	1784.0	1795.0	1795.0	1827.0	1827.0	1827.0	1818.0	1818.0	1785.0	1785.0	1785.0	1797.0	1797.0	1812.0	1812.0	1812.0	1792.0	1792.0	1803.0	1803.0	1803.0	1796.0	1796.0	1783.0	1783.0	1783.0	1783.0	1783.0	1818.0	1818.0	1818.0	1790.0	1790.0	1822.0	1822.0	1822.0	1795.0	1795.0	1787.0	1787.0	1787.0	1789.0	1789.0	1796.0	1796.0	1796.0	1783.0	1783.0	1825.0	1825.0	1825.0	1783.0	1783.0	1828.0	1828.0	1828.0	1791.0	1791.0	1785.0	1785.0	1785.0	1822.0	1822.0	1788.0	1788.0	1788.0	1802.0	1802.0	1778.0	1778.0	1778.0	1838.0	1838.0	1796.0	1796.0	1796.0	1834.0	1834.0	1816.0	1816.0	1816.0	1799.0	1799.0	1834.0	1834.0	1834.0	1781.0	1781.0	1821.0	1821.0	1821.0	1795.0	1795.0	1790.0	1790.0	1790.0	1792.0	1792.0	1816.0	1816.0	1816.0	1787.0	1787.0	1803.0	1803.0	1803.0	1823.0	1823.0	1785.0	1785.0	1785.0	1804.0	1804.0	1793.0	1793.0	1793.0	1819.0	1819.0	1785.0	1785.0	1785.0	1795.0	1795.0	1824.0	1824.0	1824.0	1806.0	1806.0	1796.0	1796.0	1796.0	1796.0	1796.0	1831.0	1831.0	1831.0	1782.0	1782.0	1798.0	1798.0	1798.0	1818.0	1818.0	1820.0	1820.0	1820.0	1793.0	1793.0	1797.0	1797.0	1797.0	1799.0	1799.0	1813.0	1813.0	1813.0	1789.0	1789.0	1794.0	1794.0	1794.0	1843.0	1843.0	1816.0	1816.0	1816.0	1784.0	1784.0	1834.0	1834.0	1834.0	1782.0	1782.0	1826.0	1826.0	1826.0	1840.0	1840.0	1780.0	1780.0	1780.0	1803.0	1803.0	1798.0	1798.0	1798.0	1830.0	1830.0	1790.0	1790.0	1807.0	1807.0	1807.0	1815.0	1815.0	1791.0	1791.0	1791.0	1792.0	1792.0	1832.0	1832.0	1832.0	1845.0	1845.0	1796.0	1796.0	1796.0	1827.0	1827.0	1796.0	1796.0	1796.0	1811.0	1811.0	1826.0	1826.0	1826.0	1843.0	1843.0	1809.0	1809.0	1809.0	1793.0	1793.0	1831.0	1831.0	1831.0	1787.0	1787.0	1798.0	1798.0	1798.0	1830.0	1830.0	1788.0	1788.0	1788.0	1780.0	1780.0	1816.0	1816.0	1816.0	1832.0	1832.0	1817.0	1817.0	1817.0	1824.0	1824.0	1786.0	1786.0	1786.0	1821.0	1821.0	1846.0	1846.0	1846.0	1786.0	1786.0	1821.0	1821.0	1821.0	1819.0	1819.0	1793.0	1793.0	1793.0	1835.0	1835.0	1801.0	1801.0	1801.0	1810.0	1810.0	1786.0	1786.0	1786.0	1812.0	1812.0	1831.0	1831.0	1831.0	1791.0	1791.0	1809.0	1809.0	1809.0	1806.0	1806.0	1785.0	1785.0	1785.0	1825.0	1825.0	1798.0	1798.0	1798.0	1840.0	1840.0	1827.0	1827.0	1827.0	1821.0	1821.0	1783.0	1783.0	1783.0	1800.0	1800.0	1785.0	1785.0	1785.0	1787.0	1787.0	1820.0	1820.0	1820.0	1789.0	1789.0	1821.0	1821.0	1821.0	1814.0	1814.0	1808.0	1808.0	1808.0	1834.0	1834.0	1827.0	1827.0	1827.0	1847.0	1847.0	1847.0	1847.0	1847.0	1835.0	1835.0	1854.0	1854.0	1854.0	1847.0	1847.0	1859.0	1859.0	1859.0	1879.0	1879.0	1878.0	1878.0	1878.0	1918.0	1918.0	1913.0	1913.0	1913.0	1929.0	1929.0	1944.0	1944.0	1944.0	1995.0	1995.0	1986.0	1986.0	1986.0	2017.0	2017.0	2019.0	2019.0	2019.0	2035.0	2035.0	2068.0	2068.0	2068.0	2099.0	2099.0	2123.0	2123.0	2123.0	2142.0	2142.0	2200.0	2200.0	2200.0	2198.0	2198.0	2214.0	2214.0	2219.0	2219.0	2219.0	2245.0	2245.0	2297.0	2297.0	2297.0	2318.0	2318.0	2316.0	2316.0	2316.0	2329.0	2329.0	2323.0	2323.0	2323.0	2394.0	2394.0	2375.0	2375.0	2375.0	2380.0	2380.0	2384.0	2384.0	2384.0	2414.0	2414.0	2442.0	2442.0	2442.0	2434.0	2434.0	2437.0	2437.0	2437.0	2465.0	2465.0	2440.0	2440.0	2440.0	2438.0	2438.0	2438.0	2438.0	2438.0	2465.0	2465.0	2479.0	2479.0	2479.0	2510.0	2510.0	2463.0	2463.0	2463.0	2494.0	2494.0	2490.0	2490.0	2490.0	2513.0	2513.0	2482.0	2482.0	2482.0	2482.0	2482.0	2507.0	2507.0	2507.0	2518.0	2518.0	2489.0	2489.0	2489.0	2523.0	2523.0	2499.0	2499.0	2499.0	2511.0	2511.0	2497.0	2497.0	2497.0	2500.0	2500.0	2483.0	2483.0	2483.0	2493.0	2493.0	2505.0	2505.0	2505.0	2502.0	2502.0	2508.0	2508.0	2508.0	2478.0	2478.0	2503.0	2503.0	2503.0	2489.0	2489.0	2488.0	2488.0	2488.0	2529.0	2529.0	2503.0	2503.0	2503.0	2506.0	2506.0	2511.0	2511.0	2511.0	2493.0	2493.0	2530.0	2530.0	2530.0	2510.0	2510.0	2510.0	2510.0	2510.0	2470.0	2470.0	2503.0	2503.0	2503.0	2502.0	2502.0	2515.0	2515.0	2515.0	2499.0	2499.0	2514.0	2514.0	2514.0	2518.0	2518.0	2502.0	2502.0	2502.0	2485.0	2485.0	2484.0	2484.0	2484.0	2519.0	2519.0	2481.0	2481.0	2481.0	2474.0	2474.0	2495.0	2495.0	2495.0	2478.0	2478.0	2492.0	2492.0	2492.0	2506.0	2506.0	2472.0	2472.0	2472.0	2486.0	2486.0	2461.0	2461.0	2461.0	2480.0	2480.0	2428.0	2428.0	2428.0	2451.0	2451.0	2451.0	2451.0	2451.0	2462.0	2462.0	2436.0	2436.0	2436.0	2455.0	2455.0	2435.0	2435.0	2435.0	2415.0	2415.0	2410.0	2410.0	2395.0	2395.0	2395.0	2388.0	2388.0	2415.0	2415.0	2415.0	2407.0	2407.0	2382.0	2382.0	2382.0	2380.0	2380.0	2374.0	2374.0	2374.0	2328.0	2328.0	2343.0	2343.0	2343.0	2352.0	2352.0	2336.0	2336.0	2336.0	2295.0	2295.0	2275.0	2275.0	2275.0	2273.0	2273.0	2259.0	2259.0	2259.0	2251.0	2251.0	2238.0	2238.0	2238.0	2230.0	2230.0	2256.0	2256.0	2256.0	2240.0	2240.0	2199.0	2199.0	2199.0	2189.0	2189.0	2211.0	2211.0	2211.0	2199.0	2199.0	2159.0	2159.0	2159.0	2183.0	2183.0	2139.0	2139.0	2139.0	2176.0	2176.0	2138.0	2138.0	2138.0	2140.0	2140.0	2171.0	2171.0	2171.0	2137.0	2137.0	2131.0	2131.0	2131.0	2123.0	2123.0	2134.0	2134.0	2134.0	2160.0	2160.0	2161.0	2161.0	2161.0	2142.0	2142.0	2121.0	2121.0	2121.0	2152.0	2152.0	2125.0	2125.0	2125.0	2131.0	2131.0	2156.0	2156.0	2156.0	2142.0	2142.0	2135.0	2135.0	2135.0	2134.0	2134.0	2130.0	2130.0	2130.0	2112.0	2112.0	2156.0	2156.0	2156.0	2108.0	2108.0	2137.0	2137.0	2137.0	2150.0	2150.0	2147.0	2147.0	2147.0	2101.0	2101.0	2139.0	2139.0	2139.0	2105.0	2105.0	2108.0	2108.0	2108.0	2137.0	2137.0	2134.0	2134.0	2134.0	2111.0	2111.0	2103.0	2103.0	2103.0	2108.0	2108.0	2089.0	2089.0	2089.0	2111.0	2111.0	2087.0	2087.0	2087.0	2069.0	2069.0	2113.0	2113.0	2113.0	2085.0	2085.0	2069.0	2069.0	2069.0	2087.0	2087.0	2063.0	2063.0	2063.0	2047.0	2047.0	2081.0	2081.0	2081.0	2055.0	2055.0	2081.0	2081.0	2081.0	2045.0	2045.0	2064.0	2064.0	2064.0	2053.0	2053.0	2036.0	2036.0	2036.0	2030.0	2030.0	2013.0	2013.0	2039.0	2039.0	2039.0	2047.0	2047.0	2031.0	2031.0	2031.0	2000.0	2000.0	2002.0	2002.0	2002.0	2002.0	2002.0	2004.0	2004.0	2004.0	2024.0	2024.0	2014.0	2014.0	2014.0	1978.0	1978.0	1969.0	1969.0	1969.0	1999.0	1999.0	2012.0	2012.0	2012.0	1995.0	1995.0	1975.0	1975.0	1975.0	1984.0	1984.0	1991.0	1991.0	1991.0	1963.0	1963.0	1950.0	1950.0	1950.0	1940.0	1940.0	1979.0	1979.0	1979.0	1952.0	1952.0	1933.0	1933.0	1933.0	1939.0	1939.0	1929.0	1929.0	1929.0	1953.0	1953.0	1936.0	1936.0	1936.0	1954.0	1954.0	1923.0	1923.0	1923.0	1934.0	1934.0	1948.0	1948.0	1948.0	1904.0	1904.0	1906.0	1906.0	1906.0	1919.0	1919.0	1906.0	1906.0	1906.0	1933.0	1933.0	1921.0	1921.0	1921.0	1903.0	1903.0	1913.0	1913.0	1913.0	1900.0	1900.0	1911.0	1911.0	1911.0	1904.0	1904.0	1894.0	1894.0	1894.0	1933.0	1933.0	1896.0	1896.0	1896.0	1933.0	1933.0	1921.0	1921.0	1921.0	1891.0	1891.0	1904.0	1904.0	1904.0	1892.0	1892.0	1887.0	1887.0	1887.0	1867.0	1867.0	1895.0	1895.0	1895.0	1913.0	1913.0	1854.0	1854.0	1854.0	1901.0	1901.0	1864.0	1864.0	1864.0	1915.0	1915.0	1913.0	1913.0	1913.0	1892.0	1892.0	1883.0	1883.0	1883.0	1865.0	1865.0	1875.0	1875.0	1875.0	1898.0	1898.0	1894.0	1894.0	1894.0	1886.0	1886.0	1891.0	1891.0	1891.0	1852.0	1852.0	1860.0	1860.0	1860.0	1881.0	1881.0	1869.0	1869.0	1869.0	1885.0	1885.0	1851.0	1851.0	1851.0	1847.0	1847.0	1839.0	1839.0	1839.0	1857.0	1857.0	1890.0	1890.0	1890.0	1863.0	1863.0	1841.0	1841.0	1841.0	1862.0	1862.0	1836.0	1836.0	1836.0	1845.0	1845.0	1862.0	1862.0	1890.0	1890.0	1890.0	1857.0	1857.0	1873.0	1873.0	1873.0	1871.0	1871.0	1857.0	1857.0	1857.0	1841.0	1841.0	1846.0	1846.0	1846.0	1871.0	1871.0	1855.0	1855.0	1855.0	1869.0	1869.0	1864.0	1864.0	1864.0	1838.0	1838.0	1823.0	1823.0	1823.0	1856.0	1856.0	1825.0	1825.0	1825.0	1864.0	1864.0	1867.0	1867.0	1867.0	1862.0	1862.0	1856.0	1856.0	1856.0	1815.0	1815.0	1862.0	1862.0	1862.0	1862.0	1862.0	1847.0	1847.0	1847.0	1816.0	1816.0	1805.0	1805.0	1805.0	1811.0	1811.0	1820.0	1820.0	1820.0	1862.0	1862.0	1838.0	1838.0	1838.0	1824.0	1824.0	1818.0	1818.0	1818.0	1810.0	1810.0	1822.0	1822.0	1822.0	1813.0	1813.0	1831.0	1831.0	1831.0	1820.0	1820.0	1853.0	1853.0	1853.0	1836.0	1836.0	1819.0	1819.0	1819.0	1807.0	1807.0	1843.0	1843.0	1843.0	1813.0	1813.0	1836.0	1836.0	1836.0	1844.0	1844.0	1850.0	1850.0	1850.0	1830.0	1830.0	1840.0	1840.0	1840.0	1806.0	1806.0	1854.0	1854.0	1854.0	1850.0	1850.0	1849.0	1849.0	1849.0	1833.0	1833.0	1862.0	1862.0	1862.0	1800.0	1800.0	1849.0	1849.0	1849.0	1847.0	1847.0	1834.0	1834.0	1834.0	1841.0	1841.0	1806.0	1806.0	1806.0	1815.0	1815.0	1843.0	1843.0	1843.0	1822.0	1822.0	1823.0	1823.0	1823.0	1817.0	1817.0	1835.0	1835.0	1835.0	1827.0	1827.0	1852.0	1852.0	1852.0	1820.0	1820.0	1821.0	1821.0	1821.0	1799.0	1799.0	1843.0	1843.0	1843.0	1858.0	1858.0	1850.0	1850.0	1850.0	1832.0	1832.0	1824.0	1824.0	1824.0	1840.0	1840.0	1803.0	1803.0	1803.0	1805.0	1805.0	1831.0	1831.0	1831.0	1801.0	1801.0	1845.0	1845.0	1844.0	1844.0	1844.0	1842.0	1842.0	1828.0	1828.0	1828.0	1835.0	1835.0	1844.0	1844.0	1844.0	1813.0	1813.0	1833.0	1833.0	1833.0	1813.0	1813.0	1828.0	1828.0	1828.0	1791.0	1791.0	1812.0	1812.0	1812.0	1806.0	1806.0	1832.0	1832.0	1832.0	1821.0	1821.0	1822.0	1822.0	1822.0	1829.0	1829.0	1807.0	1807.0	1807.0	1830.0	1830.0	1838.0	1838.0	1838.0	1795.0	1795.0	1831.0	1831.0	1831.0	1823.0	1823.0	1843.0	1843.0	1843.0	1838.0	1838.0	1815.0	1815.0	1815.0	1789.0	1789.0	1796.0	1796.0	1796.0	1806.0	1806.0	1808.0	1808.0	1808.0	1801.0	1801.0	1806.0	1806.0	1806.0	1841.0	1841.0	1839.0	1839.0	1839.0	1834.0	1834.0	1850.0	1850.0	1850.0	1807.0	1807.0	1825.0	1825.0	1825.0	1814.0	1814.0	1834.0	1834.0	1834.0	1836.0	1836.0	1848.0	1848.0	1848.0	1807.0	1807.0	1844.0	1844.0	1844.0	1846.0	1846.0	1855.0	1855.0	1855.0	1819.0	1819.0	1829.0	1829.0	1829.0	1841.0	1841.0	1803.0	1803.0	1803.0	1798.0	1798.0	1847.0	1847.0	1847.0	1844.0	1844.0	1808.0	1808.0	1808.0	1815.0	1815.0	1843.0	1843.0	1843.0	1859.0	1859.0	1811.0	1811.0	1811.0	1809.0	1809.0	1837.0	1837.0	1837.0	1827.0	1827.0	1801.0	1801.0	1801.0	1797.0	1797.0	1810.0	1810.0	1810.0	1820.0	1820.0	1831.0	1831.0	1831.0	1835.0	1835.0	1811.0	1811.0	1811.0	1829.0	1829.0	1809.0	1809.0	1809.0	1849.0	1849.0	1834.0	1834.0	1834.0	1832.0	1832.0	1791.0	1791.0	1791.0	1841.0	1841.0	1809.0	1809.0	1809.0	1807.0	1807.0	1817.0	1817.0	1817.0	1843.0	1843.0	1799.0	1799.0	1799.0	1817.0	1817.0	1787.0	1787.0	1790.0	1790.0	1790.0	1788.0	1788.0	1802.0	1802.0	1802.0	1844.0	1844.0	1811.0	1811.0	1811.0	1832.0	1832.0	1820.0	1820.0	1820.0	1840.0	1840.0	1834.0	1834.0	1834.0	1825.0	1825.0	1806.0	1806.0	1806.0	1831.0	1831.0	1800.0	1800.0	1800.0	1804.0	1804.0	1847.0	1847.0	1847.0	1807.0	1807.0	1838.0	1838.0	1838.0	1819.0	1819.0	1819.0	1819.0	1819.0	1835.0	1835.0	1844.0	1844.0	1844.0	1871.0	1871.0	1874.0	1874.0	1874.0	1866.0	1866.0	1929.0	1929.0	1929.0	1924.0	1924.0	1933.0	1933.0	1933.0	1978.0	1978.0	1951.0	1951.0	1951.0	2008.0	2008.0	1992.0	1992.0	1992.0	2028.0	2028.0	2076.0	2076.0	2076.0	2086.0	2086.0	2128.0	2128.0	2128.0	2121.0	2121.0	2144.0	2144.0	2144.0	2163.0	2163.0	2224.0	2224.0	2224.0	2237.0	2237.0	2247.0	2247.0	2247.0	2250.0	2250.0	2303.0	2303.0	2303.0	2306.0	2306.0	2318.0	2318.0	2318.0	2348.0	2348.0	2335.0	2335.0	2335.0	2355.0	2355.0	2375.0	2375.0	2375.0	2410.0	2410.0	2415.0	2415.0	2415.0	2393.0	2393.0	2414.0	2414.0	2414.0	2463.0	2463.0	2443.0	2443.0	2443.0	2461.0	2461.0	2468.0	2468.0	2468.0	2484.0	2484.0	2461.0	2461.0	2461.0	2487.0	2487.0	2488.0	2488.0	2488.0	2495.0	2495.0	2504.0	2504.0	2504.0	2508.0	2508.0	2490.0	2490.0	2490.0	2525.0	2525.0	2491.0	2491.0	2491.0	2515.0	2515.0	2509.0	2509.0	2509.0	2514.0	2514.0	2495.0	2495.0	2495.0	2523.0	2523.0	2501.0	2501.0	2501.0	2504.0	2504.0	2528.0	2528.0	2528.0	2535.0	2535.0	2503.0	2503.0	2503.0	2525.0	2525.0	2504.0	2504.0	2504.0	2504.0	2504.0	2514.0	2514.0	2514.0	2529.0	2529.0	2522.0	2522.0	2515.0	2515.0	2515.0	2509.0	2509.0	2515.0	2515.0	2515.0	2505.0	2505.0	2544.0	2544.0	2544.0	2504.0	2504.0	2532.0	2532.0	2532.0	2531.0	2531.0	2536.0	2536.0	2536.0	2518.0	2518.0	2511.0	2511.0	2511.0	2502.0	2502.0	2528.0	2528.0	2528.0	2498.0	2498.0	2532.0	2532.0	2532.0	2514.0	2514.0	2492.0	2492.0	2492.0	2496.0	2496.0	2495.0	2495.0	2495.0	2508.0	2508.0	2495.0	2495.0	2495.0	2481.0	2481.0	2483.0	2483.0	2483.0	2517.0	2517.0	2495.0	2495.0	2495.0	2483.0	2483.0	2495.0	2495.0	2495.0	2518.0	2518.0	2520.0	2520.0	2520.0	2496.0	2496.0	2481.0	2481.0	2481.0	2475.0	2475.0	2476.0	2476.0	2476.0	2470.0	2470.0	2474.0	2474.0	2474.0	2448.0	2448.0	2485.0	2485.0	2485.0	2447.0	2447.0	2432.0	2432.0	2432.0	2466.0	2466.0	2443.0	2443.0	2443.0	2399.0	2399.0	2410.0	2410.0	2410.0	2437.0	2437.0	2394.0	2394.0	2394.0	2414.0	2414.0	2402.0	2402.0	2402.0	2377.0	2377.0	2338.0	2338.0	2338.0	2375.0	2375.0	2364.0	2364.0	2364.0	2348.0	2348.0	2319.0	2319.0	2319.0	2325.0	2325.0	2283.0	2283.0	2283.0	2312.0	2312.0	2252.0	2252.0	2252.0	2261.0	2261.0	2271.0	2271.0	2271.0	2258.0	2258.0	2225.0	2225.0	2225.0	2227.0	2227.0	2213.0	2213.0	2213.0	2225.0	2225.0	2189.0	2189.0	2189.0	2195.0	2195.0	2210.0	2210.0	2210.0	2191.0	2191.0	2167.0	2167.0	2167.0	2147.0	2147.0	2178.0	2178.0	2178.0	2166.0	2166.0	2161.0	2161.0	2161.0	2143.0	2143.0	2138.0	2138.0	2138.0	2156.0	2156.0	2118.0	2118.0	2118.0	2126.0	2126.0	2124.0	2124.0	2124.0	2128.0	2128.0	2108.0	2108.0	2121.0	2121.0	2121.0	2111.0	2111.0	2131.0	2131.0	2131.0	2145.0	2145.0	2109.0	2109.0	2109.0	2131.0	2131.0	2134.0	2134.0	2134.0	2111.0	2111.0	2141.0	2141.0	2141.0	2101.0	2101.0	2154.0	2154.0	2154.0	2086.0	2086.0	2111.0	2111.0	2111.0	2125.0	2125.0	2112.0	2112.0	2112.0	2083.0	2083.0	