2515.0	2515.0	2546.0	2546.0	2489.0	2489.0	2489.0	2557.0	2557.0	2542.0	2542.0	2542.0	2486.0	2486.0	2484.0	2484.0	2484.0	2458.0	2458.0	2454.0	2454.0	2454.0	2459.0	2459.0	2420.0	2420.0	2420.0	2391.0	2391.0	2450.0	2450.0	2450.0	2369.0	2369.0	2340.0	2340.0	2340.0	2333.0	2333.0	2393.0	2393.0	2393.0	2385.0	2385.0	2374.0	2374.0	2374.0	2327.0	2327.0	2344.0	2344.0	2344.0	2333.0	2333.0	2300.0	2300.0	2300.0	2250.0	2250.0	2235.0	2235.0	2235.0	2272.0	2272.0	2288.0	2288.0	2288.0	2238.0	2238.0	2231.0	2231.0	2231.0	2243.0	2243.0	2199.0	2199.0	2199.0	2225.0	2225.0	2186.0	2186.0	2186.0	2263.0	2263.0	2233.0	2233.0	2233.0	2236.0	2236.0	2175.0	2175.0	2175.0	2178.0	2178.0	2160.0	2160.0	2160.0	2194.0	2194.0	2227.0	2227.0	2227.0	2213.0	2213.0	2199.0	2199.0	2199.0	2142.0	2142.0	2156.0	2156.0	2156.0	2177.0	2177.0	2165.0	2165.0	2165.0	2136.0	2136.0	2156.0	2156.0	2195.0	2195.0	2195.0	2115.0	2115.0	2151.0	2151.0	2151.0	2164.0	2164.0	2096.0	2096.0	2096.0	2129.0	2129.0	2080.0	2080.0	2080.0	2099.0	2099.0	2134.0	2134.0	2134.0	2052.0	2052.0	2111.0	2111.0	2111.0	2037.0	2037.0	2106.0	2106.0	2106.0	2121.0	2121.0	2107.0	2107.0	2107.0	2087.0	2087.0	2074.0	2074.0	2074.0	2093.0	2093.0	2079.0	2079.0	2079.0	2081.0	2081.0	2038.0	2038.0	2038.0	1993.0	1993.0	2011.0	2011.0	2011.0	2064.0	2064.0	2042.0	2042.0	2042.0	1993.0	1993.0	1987.0	1987.0	1987.0	2044.0	2044.0	1976.0	1976.0	1976.0	1978.0	1978.0	2008.0	2008.0	2008.0	2019.0	2019.0	2013.0	2013.0	2013.0	1962.0	1962.0	1935.0	1935.0	1935.0	1954.0	1954.0	1990.0	1990.0	1990.0	1919.0	1919.0	1928.0	1928.0	1928.0	1957.0	1957.0	1903.0	1903.0	1903.0	1973.0	1973.0	1925.0	1925.0	1925.0	1899.0	1899.0	1946.0	1946.0	1946.0	1887.0	1887.0	1910.0	1910.0	1910.0	1879.0	1879.0	1898.0	1898.0	1898.0	1875.0	1875.0	1920.0	1920.0	1920.0	1869.0	1869.0	1880.0	1880.0	1880.0	1905.0	1905.0	1929.0	1929.0	1929.0	1929.0	1929.0	1842.0	1842.0	1842.0	1828.0	1828.0	1849.0	1849.0	1849.0	1842.0	1842.0	1889.0	1889.0	1889.0	1896.0	1896.0	1887.0	1887.0	1887.0	1820.0	1820.0	1835.0	1835.0	1835.0	1814.0	1814.0	1880.0	1880.0	1880.0	1833.0	1833.0	1865.0	1865.0	1865.0	1849.0	1849.0	1874.0	1874.0	1874.0	1823.0	1823.0	1884.0	1884.0	1884.0	1876.0	1876.0	1815.0	1815.0	1815.0	1787.0	1787.0	1831.0	1831.0	1831.0	1858.0	1858.0	1832.0	1832.0	1832.0	1774.0	1774.0	1830.0	1830.0	1817.0	1817.0	1817.0	1798.0	1798.0	1778.0	1778.0	1778.0	1769.0	1769.0	1776.0	1776.0	1776.0	1771.0	1771.0	1771.0	1771.0	1771.0	1847.0	1847.0	1816.0	1816.0	1816.0	1824.0	1824.0	1834.0	1834.0	1834.0	1790.0	1790.0	1837.0	1837.0	1837.0	1797.0	1797.0	1780.0	1780.0	1780.0	1842.0	1842.0	1787.0	1787.0	1787.0	1764.0	1764.0	1764.0	1764.0	1764.0	1804.0	1804.0	1828.0	1828.0	1828.0	1743.0	1743.0	1757.0	1757.0	1757.0	1757.0	1757.0	1818.0	1818.0	1818.0	1787.0	1787.0	1747.0	1747.0	1747.0	1744.0	1744.0	1740.0	1740.0	1740.0	1776.0	1776.0	1810.0	1810.0	1810.0	1753.0	1753.0	1757.0	1757.0	1757.0	1756.0	1756.0	1756.0	1756.0	1756.0	1804.0	1804.0	1769.0	1769.0	1769.0	1738.0	1738.0	1779.0	1779.0	1779.0	1731.0	1731.0	1811.0	1811.0	1811.0	1807.0	1807.0	1815.0	1815.0	1815.0	1751.0	1751.0	1729.0	1729.0	1729.0	1761.0	1761.0	1800.0	1800.0	1800.0	1734.0	1734.0	1759.0	1759.0	1759.0	1724.0	1724.0	1804.0	1804.0	1804.0	1796.0	1796.0	1724.0	1724.0	1724.0	1782.0	1782.0	1754.0	1754.0	1754.0	1750.0	1750.0	1745.0	1745.0	1745.0	1811.0	1811.0	1774.0	1774.0	1774.0	1760.0	1760.0	1802.0	1802.0	1802.0	1739.0	1739.0	1794.0	1794.0	1794.0	1736.0	1736.0	1735.0	1735.0	1735.0	1790.0	1790.0	1756.0	1756.0	1756.0	1776.0	1776.0	1733.0	1733.0	1733.0	1792.0	1792.0	1740.0	1740.0	1740.0	1779.0	1779.0	1811.0	1811.0	1811.0	1806.0	1806.0	1717.0	1717.0	1717.0	1804.0	1804.0	1824.0	1824.0	1824.0	1791.0	1791.0	1821.0	1821.0	1821.0	1819.0	1819.0	1796.0	1796.0	1796.0	1812.0	1812.0	1806.0	1806.0	1790.0	1790.0	1790.0	1886.0	1886.0	1873.0	1873.0	1873.0	1866.0	1866.0	1895.0	1895.0	1895.0	1929.0	1929.0	1936.0	1936.0	1936.0	1922.0	1922.0	1949.0	1949.0	1949.0	2020.0	2020.0	2063.0	2063.0	2063.0	2006.0	2006.0	2039.0	2039.0	2039.0	2133.0	2133.0	2079.0	2079.0	2079.0	2112.0	2112.0	2152.0	2152.0	2152.0	2190.0	2190.0	2228.0	2228.0	2228.0	2211.0	2211.0	2270.0	2270.0	2270.0	2281.0	2281.0	2259.0	2259.0	2259.0	2368.0	2368.0	2319.0	2319.0	2319.0	2317.0	2317.0	2391.0	2391.0	2391.0	2366.0	2366.0	2402.0	2402.0	2402.0	2381.0	2381.0	2397.0	2397.0	2397.0	2436.0	2436.0	2499.0	2499.0	2499.0	2430.0	2430.0	2457.0	2457.0	2457.0	2464.0	2464.0	2469.0	2469.0	2469.0	2498.0	2498.0	2536.0	2536.0	2536.0	2535.0	2535.0	2537.0	2537.0	2537.0	2503.0	2503.0	2543.0	2543.0	2543.0	2578.0	2578.0	2556.0	2556.0	2556.0	2565.0	2565.0	2528.0	2528.0	2528.0	2598.0	2598.0	2557.0	2557.0	2557.0	2587.0	2587.0	2561.0	2561.0	2561.0	2547.0	2547.0	2581.0	2581.0	2581.0	2630.0	2630.0	2563.0	2563.0	2563.0	2594.0	2594.0	2604.0	2604.0	2604.0	2561.0	2561.0	2571.0	2571.0	2571.0	2574.0	2574.0	2616.0	2616.0	2616.0	2575.0	2575.0	2582.0	2582.0	2582.0	2615.0	2615.0	2571.0	2571.0	2571.0	2631.0	2631.0	2652.0	2652.0	2652.0	2581.0	2581.0	2640.0	2640.0	2640.0	2627.0	2627.0	2638.0	2638.0	2638.0	2619.0	2619.0	2642.0	2642.0	2642.0	2584.0	2584.0	2645.0	2645.0	2645.0	2646.0	2646.0	2587.0	2587.0	2587.0	2645.0	2645.0	2643.0	2643.0	2643.0	2584.0	2584.0	2576.0	2576.0	2608.0	2608.0	2608.0	2559.0	2559.0	2562.0	2562.0	2562.0	2629.0	2629.0	2589.0	2589.0	2589.0	2616.0	2616.0	2547.0	2547.0	2547.0	2536.0	2536.0	2590.0	2590.0	2590.0	2593.0	2593.0	2553.0	2553.0	2553.0	2508.0	2508.0	2553.0	2553.0	2553.0	2573.0	2573.0	2510.0	2510.0	2510.0	2526.0	2526.0	2489.0	2489.0	2489.0	2500.0	2500.0	2451.0	2451.0	2451.0	2420.0	2420.0	2432.0	2432.0	2432.0	2435.0	2435.0	2463.0	2463.0	2463.0	2391.0	2391.0	2446.0	2446.0	2446.0	2362.0	2362.0	2367.0	2367.0	2367.0	2342.0	2342.0	2371.0	2371.0	2371.0	2304.0	2304.0	2290.0	2290.0	2290.0	2353.0	2353.0	2287.0	2287.0	2287.0	2297.0	2297.0	2286.0	2286.0	2286.0	2301.0	2301.0	2210.0	2210.0	2210.0	2219.0	2219.0	2233.0	2233.0	2233.0	2187.0	2187.0	2175.0	2175.0	2175.0	2184.0	2184.0	2230.0	2230.0	2230.0	2201.0	2201.0	2172.0	2172.0	2172.0	2203.0	2203.0	2175.0	2175.0	2175.0	2115.0	2115.0	2164.0	2164.0	2164.0	2117.0	2117.0	2176.0	2176.0	2176.0	2122.0	2122.0	2142.0	2142.0	2142.0	2122.0	2122.0	2150.0	2150.0	2150.0	2061.0	2061.0	2064.0	2064.0	2064.0	2053.0	2053.0	2099.0	2099.0	2099.0	2123.0	2123.0	2061.0	2061.0	2061.0	2098.0	2098.0	2077.0	2077.0	2077.0	2063.0	2063.0	2095.0	2095.0	2095.0	2074.0	2074.0	2028.0	2028.0	2028.0	2038.0	2038.0	2080.0	2080.0	2080.0	2014.0	2014.0	2016.0	2016.0	2016.0	2060.0	2060.0	2003.0	2003.0	2003.0	1980.0	1980.0	1993.0	1993.0	1993.0	1954.0	1954.0	1993.0	1993.0	1993.0	1989.0	1989.0	1984.0	1984.0	1984.0	2004.0	2004.0	1937.0	1937.0	1937.0	1935.0	1935.0	1924.0	1924.0	1958.0	1958.0	1958.0	1969.0	1969.0	1895.0	1895.0	1895.0	1951.0	1951.0	1963.0	1963.0	1963.0	1931.0	1931.0	1928.0	1928.0	1928.0	1959.0	1959.0	1880.0	1880.0	1880.0	1952.0	1952.0	1894.0	1894.0	1894.0	1915.0	1915.0	1905.0	1905.0	1905.0	1865.0	1865.0	1891.0	1891.0	1891.0	1879.0	1879.0	1893.0	1893.0	1893.0	1911.0	1911.0	1835.0	1835.0	1835.0	1886.0	1886.0	1863.0	1863.0	1863.0	1877.0	1877.0	1873.0	1873.0	1873.0	1823.0	1823.0	1854.0	1854.0	1854.0	1868.0	1868.0	1790.0	1790.0	1790.0	1850.0	1850.0	1847.0	1847.0	1847.0	1854.0	1854.0	1854.0	1854.0	1854.0	1792.0	1792.0	1816.0	1816.0	1816.0	1771.0	1771.0	1753.0	1753.0	1753.0	1785.0	1785.0	1802.0	1802.0	1802.0	1752.0	1752.0	1769.0	1769.0	1769.0	1734.0	1734.0	1808.0	1808.0	1808.0	1790.0	1790.0	1801.0	1801.0	1801.0	1782.0	1782.0	1711.0	1711.0	1711.0	1778.0	1778.0	1708.0	1708.0	1708.0	1714.0	1714.0	1771.0	1771.0	1771.0	1705.0	1705.0	1777.0	1777.0	1777.0	1746.0	1746.0	1751.0	1751.0	1751.0	1753.0	1753.0	1739.0	1739.0	1739.0	1715.0	1715.0	1716.0	1716.0	1716.0	1725.0	1725.0	1696.0	1696.0	1696.0	1758.0	1758.0	1743.0	1743.0	1743.0	1682.0	1682.0	1715.0	1715.0	1715.0	1663.0	1663.0	1692.0	1692.0	1692.0	1703.0	1703.0	1650.0	1650.0	1650.0	1719.0	1719.0	1659.0	1659.0	1659.0	1647.0	1647.0	1681.0	1681.0	1681.0	1639.0	1639.0	1713.0	1713.0	1713.0	1635.0	1635.0	1713.0	1713.0	1713.0	1672.0	1672.0	1630.0	1630.0	1630.0	1650.0	1650.0	1622.0	1622.0	1622.0	1668.0	1668.0	1647.0	1647.0	1622.0	1622.0	1622.0	1653.0	1653.0	1604.0	1604.0	1604.0	1648.0	1648.0	1639.0	1639.0	1639.0	1689.0	1689.0	1643.0	1643.0	1643.0	1618.0	1618.0	1671.0	1671.0	1671.0	1611.0	1611.0	1662.0	1662.0	1662.0	1632.0	1632.0	1598.0	1598.0	1598.0	1658.0	1658.0	1601.0	1601.0	1601.0	1600.0	1600.0	1603.0	1603.0	1603.0	1644.0	1644.0	1661.0	1661.0	1661.0	1578.0	1578.0	1603.0	1603.0	1603.0	1588.0	1588.0	1593.0	1593.0	1593.0	1590.0	1590.0	1640.0	1640.0	1640.0	1648.0	1648.0	1637.0	1637.0	1637.0	1639.0	1639.0	1574.0	1574.0	1574.0	1590.0	1590.0	1625.0	1625.0	1625.0	1609.0	1609.0	1574.0	1574.0	1574.0	1603.0	1603.0	1607.0	1607.0	1607.0	1604.0	1604.0	1580.0	1580.0	1580.0	1565.0	1565.0	1636.0	1636.0	1636.0	1564.0	1564.0	1601.0	1601.0	1601.0	1575.0	1575.0	1576.0	1576.0	1576.0	1639.0	1639.0	1607.0	1607.0	1607.0	1642.0	1642.0	1594.0	1594.0	1594.0	1579.0	1579.0	1616.0	1616.0	1616.0	1627.0	1627.0	1609.0	1609.0	1609.0	1647.0	1647.0	1625.0	1625.0	1625.0	1581.0	1581.0	1602.0	1602.0	1602.0	1637.0	1637.0	1635.0	1635.0	1635.0	1628.0	1628.0	1581.0	1581.0	1581.0	1580.0	1580.0	1586.0	1586.0	1586.0	1588.0	1588.0	1625.0	1625.0	1625.0	1673.0	1673.0	1659.0	1659.0	1659.0	1638.0	1638.0	1725.0	1725.0	1725.0	1731.0	1731.0	1730.0	1730.0	1730.0	1729.0	1729.0	1733.0	1733.0	1733.0	1745.0	1745.0	1824.0	1824.0	1824.0	1876.0	1876.0	1826.0	1826.0	1826.0	1899.0	1899.0	1954.0	1954.0	1954.0	1963.0	1963.0	1944.0	1944.0	1944.0	2038.0	2038.0	2017.0	2017.0	2039.0	2039.0	2039.0	2081.0	2081.0	2103.0	2103.0	2103.0	2129.0	2129.0	2104.0	2104.0	2104.0	2139.0	2139.0	2167.0	2167.0	2167.0	2210.0	2210.0	2199.0	2199.0	2199.0	2211.0	2211.0	2285.0	2285.0	2285.0	2292.0	2292.0	2294.0	2294.0	2294.0	2262.0	2262.0	2356.0	2356.0	2356.0	2368.0	2368.0	2332.0	2332.0	2332.0	2334.0	2334.0	2334.0	2334.0	2334.0	2398.0	2398.0	2371.0	2371.0	2371.0	2404.0	2404.0	2443.0	2443.0	2443.0	2420.0	2420.0	2411.0	2411.0	2411.0	2395.0	2395.0	2468.0	2468.0	2468.0	2442.0	2442.0	2462.0	2462.0	2462.0	2417.0	2417.0	2496.0	2496.0	2496.0	2495.0	2495.0	2449.0	2449.0	2449.0	2472.0	2472.0	2503.0	2503.0	2503.0	2468.0	2468.0	2513.0	2513.0	2513.0	2507.0	2507.0	2465.0	2465.0	2465.0	2499.0	2499.0	2527.0	2527.0	2527.0	2487.0	2487.0	2558.0	2558.0	2558.0	2508.0	2508.0	2545.0	2545.0	2545.0	2547.0	2547.0	2498.0	2498.0	2498.0	2555.0	2555.0	2551.0	2551.0	2551.0	2498.0	2498.0	2499.0	2499.0	2499.0	2510.0	2510.0	2548.0	2548.0	2548.0	2508.0	2508.0	2560.0	2560.0	2560.0	2579.0	2579.0	2518.0	2518.0	2518.0	2567.0	2567.0	2501.0	2501.0	2501.0	2525.0	2525.0	2544.0	2544.0	2544.0	2552.0	2552.0	2515.0	2515.0	2515.0	2511.0	2511.0	2568.0	2568.0	2568.0	2530.0	2530.0	2487.0	2487.0	2487.0	2480.0	2480.0	2538.0	2538.0	2538.0	2487.0	2487.0	2508.0	2508.0	2508.0	2538.0	2538.0	2536.0	2536.0	2536.0	2455.0	2455.0	2446.0	2446.0	2446.0	2472.0	2472.0	2435.0	2435.0	2435.0	2478.0	2478.0	2435.0	2435.0	2435.0	2410.0	2410.0	2438.0	2438.0	2438.0	2452.0	2452.0	2443.0	2443.0	2379.0	2379.0	2379.0	2412.0	2412.0	2318.0	2318.0	2318.0	2329.0	2329.0	2299.0	2299.0	2299.0	2346.0	2346.0	2294.0	2294.0	2294.0	2315.0	2315.0	2270.0	2270.0	2270.0	2250.0	2250.0	2300.0	2300.0	2300.0	2226.0	2226.0	2234.0	2234.0	2234.0	2239.0	2239.0	2198.0	2198.0	2198.0	2229.0	2229.0	2175.0	2175.0	2175.0	2154.0	2154.0	2206.0	2206.0	2206.0	2172.0	2172.0	2150.0	2150.0	2150.0	2125.0	2125.0	2184.0	2184.0	2184.0	2170.0	2170.0	2163.0	2163.0	2163.0	2152.0	2152.0	2160.0	2160.0	2160.0	2122.0	2122.0	2117.0	2117.0	2117.0	2067.0	2067.0	2143.0	2143.0	2143.0	2084.0	2084.0	2088.0	2088.0	2088.0	2124.0	2124.0	2048.0	2048.0	2048.0	2110.0	2110.0	2039.0	2039.0	2039.0	2091.0	2091.0	2100.0	2100.0	2100.0	2102.0	2102.0	2018.0	2018.0	2018.0	2086.0	2086.0	2089.0	2089.0	2089.0	2036.0	2036.0	2082.0	2082.0	2082.0	1997.0	1997.0	2049.0	2049.0	2049.0	2048.0	2048.0	1992.0	1992.0	1992.0	1982.0	1982.0	2014.0	2014.0	2014.0	1975.0	1975.0	1971.0	1971.0	1971.0	2027.0	2027.0	1949.0	1949.0	1949.0	1996.0	1996.0	2002.0	2002.0	2002.0	1982.0	1982.0	1944.0	1944.0	1944.0	1930.0	1930.0	1929.0	1929.0	1929.0	1949.0	1949.0	1980.0	1980.0	1980.0	1910.0	1910.0	1944.0	1944.0	1944.0	1933.0	1933.0	1986.0	1986.0	1986.0	1974.0	1974.0	1930.0	1930.0	1930.0	1963.0	1963.0	1956.0	1956.0	1956.0	1882.0	1882.0	1913.0	1913.0	1913.0	1872.0	1872.0	1940.0	1940.0	1940.0	1941.0	1941.0	1925.0	1925.0	1925.0	1919.0	1919.0	1922.0	1922.0	1922.0	1842.0	1842.0	1916.0	1916.0	1890.0	1890.0	1890.0	1886.0	1886.0	1886.0	1886.0	1886.0	1845.0	1845.0	1898.0	1898.0	1898.0	1851.0	1851.0	1807.0	1807.0	1807.0	1831.0	1831.0	1867.0	1867.0	1867.0	1871.0	1871.0	1855.0	1855.0	1855.0	1804.0	1804.0	1844.0	1844.0	1844.0	1781.0	1781.0	1830.0	1830.0	1830.0	1796.0	1796.0	1842.0	1842.0	1842.0	1767.0	1767.0	1840.0	1840.0	1840.0	1794.0	1794.0	1751.0	1751.0	1751.0	1819.0	1819.0	1833.0	1833.0	1833.0	1809.0	1809.0	1748.0	1748.0	1748.0	1740.0	1740.0	1818.0	1818.0	1818.0	1820.0	1820.0	1775.0	1775.0	1775.0	1808.0	1808.0	1790.0	1790.0	1790.0	1724.0	1724.0	1733.0	1733.0	1733.0	1790.0	1790.0	1745.0	1745.0	1745.0	1712.0	1712.0	1791.0	1791.0	1791.0	1718.0	1718.0	1786.0	1786.0	1786.0	1714.0	1714.0	1699.0	1699.0	1699.0	1768.0	1768.0	1737.0	1737.0	1737.0	1774.0	1774.0	1722.0	1722.0	1722.0	1722.0	1722.0	1689.0	1689.0	1689.0	1692.0	1692.0	1756.0	1756.0	1756.0	1738.0	1738.0	1688.0	1688.0	1688.0	1764.0	1764.0	1696.0	1696.0	1696.0	1744.0	1744.0	1677.0	1677.0	1677.0	1694.0	1694.0	1695.0	1695.0	1695.0	1724.0	1724.0	1683.0	1683.0	1683.0	1721.0	1721.0	1713.0	1713.0	1713.0	1703.0	1703.0	1756.0	1756.0	1756.0	1668.0	1668.0	1702.0	1702.0	1702.0	1738.0	1738.0	1678.0	1678.0	1678.0	1661.0	1661.0	1676.0	1676.0	1676.0	1683.0	1683.0	1678.0	1678.0	1678.0	1720.0	1720.0	1674.0	1674.0	1674.0	1726.0	1726.0	1727.0	1727.0	1727.0	1719.0	1719.0	1654.0	1654.0	1654.0	1681.0	1681.0	1654.0	1654.0	1654.0	1665.0	1665.0	1726.0	1726.0	1726.0	1649.0	1649.0	1648.0	1648.0	1721.0	1721.0	1721.0	1717.0	1717.0	1662.0	1662.0	1662.0	1668.0	1668.0	1640.0	1640.0	1640.0	1695.0	1695.0	1715.0	1715.0	1715.0	1650.0	1650.0	1657.0	1657.0	1657.0	1658.0	1658.0	1655.0	1655.0	1655.0	1686.0	1686.0	1635.0	1635.0	1635.0	1633.0	1633.0	1651.0	1651.0	1651.0	1676.0	1676.0	1676.0	1676.0	1676.0	1707.0	1707.0	1702.0	1702.0	1702.0	1658.0	1658.0	1638.0	1638.0	1638.0	1671.0	1671.0	1618.0	1618.0	1618.0	1687.0	1687.0	1688.0	1688.0	1688.0	1684.0	1684.0	1626.0	1626.0	1626.0	1674.0	1674.0	1638.0	1638.0	1638.0	1633.0	1633.0	1684.0	1684.0	1684.0	1605.0	1605.0	1676.0	1676.0	1676.0	1646.0	1646.0	1609.0	1609.0	1609.0	1605.0	1605.0	1680.0	1680.0	1680.0	1681.0	1681.0	1687.0	1687.0	1687.0	1642.0	1642.0	1680.0	1680.0	1680.0	1704.0	1704.0	1645.0	1645.0	1645.0	1702.0	1702.0	1652.0	1652.0	1652.0	1722.0	1722.0	1694.0	1694.0	1694.0	1703.0	1703.0	1706.0	1706.0	1706.0	1764.0	1764.0	1780.0	1780.0	1780.0	1752.0	1752.0	1818.0	1818.0	1818.0	1827.0	1827.0	1880.0	1880.0	1880.0	1851.0	1851.0	1945.0	