1791.0	1791.0	1742.0	1742.0	1785.0	1785.0	1785.0	1803.0	1803.0	1740.0	1740.0	1740.0	1814.0	1814.0	1740.0	1740.0	1740.0	1735.0	1735.0	1752.0	1752.0	1752.0	1801.0	1801.0	1825.0	1825.0	1825.0	1772.0	1772.0	1799.0	1799.0	1799.0	1771.0	1771.0	1748.0	1748.0	1748.0	1819.0	1819.0	1740.0	1740.0	1740.0	1754.0	1754.0	1762.0	1762.0	1762.0	1773.0	1773.0	1732.0	1732.0	1732.0	1763.0	1763.0	1744.0	1744.0	1744.0	1747.0	1747.0	1739.0	1739.0	1739.0	1740.0	1740.0	1804.0	1804.0	1804.0	1811.0	1811.0	1735.0	1735.0	1735.0	1747.0	1747.0	1822.0	1822.0	1822.0	1810.0	1810.0	1780.0	1780.0	1780.0	1811.0	1811.0	1729.0	1729.0	1729.0	1749.0	1749.0	1745.0	1745.0	1745.0	1810.0	1810.0	1801.0	1801.0	1801.0	1796.0	1796.0	1728.0	1728.0	1728.0	1801.0	1801.0	1793.0	1793.0	1793.0	1739.0	1739.0	1716.0	1716.0	1716.0	1712.0	1712.0	1769.0	1769.0	1769.0	1737.0	1737.0	1759.0	1759.0	1759.0	1774.0	1774.0	1750.0	1750.0	1750.0	1756.0	1756.0	1704.0	1704.0	1704.0	1716.0	1716.0	1745.0	1745.0	1745.0	1769.0	1769.0	1728.0	1728.0	1753.0	1753.0	1753.0	1737.0	1737.0	1749.0	1749.0	1749.0	1715.0	1715.0	1725.0	1725.0	1725.0	1685.0	1685.0	1690.0	1690.0	1690.0	1658.0	1658.0	1646.0	1646.0	1646.0	1641.0	1641.0	1718.0	1718.0	1718.0	1710.0	1710.0	1707.0	1707.0	1707.0	1663.0	1663.0	1677.0	1677.0	1677.0	1642.0	1642.0	1633.0	1633.0	1633.0	1682.0	1682.0	1682.0	1682.0	1682.0	1703.0	1703.0	1723.0	1723.0	1723.0	1644.0	1644.0	1733.0	1733.0	1733.0	1663.0	1663.0	1705.0	1705.0	1705.0	1726.0	1726.0	1707.0	1707.0	1707.0	1713.0	1713.0	1815.0	1815.0	1815.0	1782.0	1782.0	1770.0	1770.0	1770.0	1804.0	1804.0	1891.0	1891.0	1891.0	1897.0	1897.0	1920.0	1920.0	1920.0	1958.0	1958.0	1978.0	1978.0	1978.0	1926.0	1926.0	1961.0	1961.0	1961.0	2017.0	2017.0	2073.0	2073.0	2073.0	2052.0	2052.0	2113.0	2113.0	2113.0	2092.0	2092.0	2079.0	2079.0	2079.0	2143.0	2143.0	2123.0	2123.0	2123.0	2199.0	2199.0	2159.0	2159.0	2159.0	2170.0	2170.0	2273.0	2273.0	2273.0	2215.0	2215.0	2243.0	2243.0	2243.0	2248.0	2248.0	2278.0	2278.0	2278.0	2274.0	2274.0	2334.0	2334.0	2334.0	2351.0	2351.0	2362.0	2362.0	2362.0	2379.0	2379.0	2403.0	2403.0	2403.0	2408.0	2408.0	2410.0	2410.0	2410.0	2354.0	2354.0	2428.0	2428.0	2428.0	2421.0	2421.0	2425.0	2425.0	2425.0	2472.0	2472.0	2466.0	2466.0	2466.0	2447.0	2447.0	2411.0	2411.0	2411.0	2459.0	2459.0	2476.0	2476.0	2476.0	2498.0	2498.0	2430.0	2430.0	2430.0	2488.0	2488.0	2434.0	2434.0	2434.0	2456.0	2456.0	2435.0	2435.0	2435.0	2508.0	2508.0	2483.0	2483.0	2483.0	2499.0	2499.0	2517.0	2517.0	2526.0	2526.0	2526.0	2497.0	2497.0	2451.0	2451.0	2451.0	2457.0	2457.0	2502.0	2502.0	2502.0	2458.0	2458.0	2522.0	2522.0	2522.0	2523.0	2523.0	2492.0	2492.0	2492.0	2451.0	2451.0	2524.0	2524.0	2524.0	2506.0	2506.0	2455.0	2455.0	2455.0	2451.0	2451.0	2442.0	2442.0	2442.0	2522.0	2522.0	2441.0	2441.0	2441.0	2468.0	2468.0	2488.0	2488.0	2488.0	2432.0	2432.0	2431.0	2431.0	2431.0	2420.0	2420.0	2437.0	2437.0	2437.0	2426.0	2426.0	2463.0	2463.0	2463.0	2489.0	2489.0	2438.0	2438.0	2438.0	2410.0	2410.0	2471.0	2471.0	2471.0	2472.0	2472.0	2452.0	2452.0	2452.0	2399.0	2399.0	2369.0	2369.0	2369.0	2375.0	2375.0	2435.0	2435.0	2435.0	2374.0	2374.0	2399.0	2399.0	2399.0	2374.0	2374.0	2366.0	2366.0	2366.0	2383.0	2383.0	2372.0	2372.0	2372.0	2358.0	2358.0	2349.0	2349.0	2349.0	2303.0	2303.0	2250.0	2250.0	2250.0	2251.0	2251.0	2238.0	2238.0	2238.0	2224.0	2224.0	2189.0	2189.0	2189.0	2216.0	2216.0	2227.0	2227.0	2227.0	2157.0	2157.0	2176.0	2176.0	2176.0	2184.0	2184.0	2098.0	2098.0	2098.0	2091.0	2091.0	2085.0	2085.0	2085.0	2077.0	2077.0	2059.0	2059.0	2059.0	2078.0	2078.0	2060.0	2060.0	2060.0	2058.0	2058.0	2080.0	2080.0	2080.0	2091.0	2091.0	1998.0	1998.0	1998.0	2057.0	2057.0	2025.0	2025.0	2025.0	1990.0	1990.0	1965.0	1965.0	1965.0	1991.0	1991.0	1956.0	1956.0	1956.0	2026.0	2026.0	2017.0	2017.0	2017.0	1944.0	1944.0	2014.0	2014.0	2014.0	1962.0	1962.0	1942.0	1942.0	1942.0	1959.0	1959.0	1938.0	1938.0	1938.0	1969.0	1969.0	1982.0	1982.0	1917.0	1917.0	1917.0	1903.0	1903.0	1928.0	1928.0	1928.0	1874.0	1874.0	1950.0	1950.0	1950.0	1887.0	1887.0	1877.0	1877.0	1877.0	1939.0	1939.0	1868.0	1868.0	1868.0	1865.0	1865.0	1908.0	1908.0	1908.0	1878.0	1878.0	1877.0	1877.0	1877.0	1830.0	1830.0	1860.0	1860.0	1860.0	1821.0	1821.0	1852.0	1852.0	1852.0	1824.0	1824.0	1828.0	1828.0	1828.0	1860.0	1860.0	1797.0	1797.0	1797.0	1819.0	1819.0	1817.0	1817.0	1817.0	1762.0	1762.0	1764.0	1764.0	1764.0	1831.0	1831.0	1798.0	1798.0	1798.0	1786.0	1786.0	1769.0	1769.0	1769.0	1804.0	1804.0	1778.0	1778.0	1778.0	1742.0	1742.0	1748.0	1748.0	1748.0	1731.0	1731.0	1719.0	1719.0	1719.0	1777.0	1777.0	1776.0	1776.0	1776.0	1737.0	1737.0	1719.0	1719.0	1719.0	1680.0	1680.0	1675.0	1675.0	1675.0	1750.0	1750.0	1674.0	1674.0	1674.0	1663.0	1663.0	1676.0	1676.0	1676.0	1649.0	1649.0	1687.0	1687.0	1687.0	1652.0	1652.0	1725.0	1725.0	1725.0	1635.0	1635.0	1665.0	1665.0	1665.0	1697.0	1697.0	1647.0	1647.0	1647.0	1650.0	1650.0	1700.0	1700.0	1700.0	1635.0	1635.0	1671.0	1671.0	1671.0	1606.0	1606.0	1599.0	1599.0	1599.0	1594.0	1594.0	1594.0	1594.0	1594.0	1667.0	1667.0	1645.0	1645.0	1645.0	1605.0	1605.0	1572.0	1572.0	1572.0	1651.0	1651.0	1615.0	1615.0	1615.0	1652.0	1652.0	1654.0	1654.0	1654.0	1597.0	1597.0	1615.0	1615.0	1615.0	1633.0	1633.0	1639.0	1639.0	1639.0	1599.0	1599.0	1641.0	1641.0	1641.0	1588.0	1588.0	1583.0	1583.0	1583.0	1571.0	1571.0	1639.0	1639.0	1639.0	1635.0	1635.0	1564.0	1564.0	1640.0	1640.0	1640.0	1599.0	1599.0	1630.0	1630.0	1630.0	1572.0	1572.0	1577.0	1577.0	1577.0	1650.0	1650.0	1655.0	1655.0	1655.0	1579.0	1579.0	1589.0	1589.0	1589.0	1622.0	1622.0	1586.0	1586.0	1586.0	1566.0	1566.0	1589.0	1589.0	1589.0	1575.0	1575.0	1560.0	1560.0	1560.0	1585.0	1585.0	1578.0	1578.0	1578.0	1644.0	1644.0	1644.0	1644.0	1644.0	1623.0	1623.0	1633.0	1633.0	1633.0	1627.0	1627.0	1565.0	1565.0	1565.0	1562.0	1562.0	1603.0	1603.0	1603.0	1571.0	1571.0	1574.0	1574.0	1574.0	1643.0	1643.0	1640.0	1640.0	1640.0	1587.0	1587.0	1577.0	1577.0	1577.0	1603.0	1603.0	1630.0	1630.0	1630.0	1619.0	1619.0	1574.0	1574.0	1574.0	1614.0	1614.0	1637.0	1637.0	1637.0	1577.0	1577.0	1604.0	1604.0	1604.0	1628.0	1628.0	1618.0	1618.0	1618.0	1553.0	1553.0	1600.0	1600.0	1600.0	1609.0	1609.0	1587.0	1587.0	1587.0	1558.0	1558.0	1581.0	1581.0	1581.0	1593.0	1593.0	1635.0	1635.0	1635.0	1592.0	1592.0	1597.0	1597.0	1597.0	1586.0	1586.0	1577.0	1577.0	1577.0	1544.0	1544.0	1560.0	1560.0	1560.0	1604.0	1604.0	1601.0	1601.0	1601.0	1548.0	1548.0	1563.0	1563.0	1563.0	1537.0	1537.0	1612.0	1612.0	1612.0	1530.0	1530.0	1564.0	1564.0	1564.0	1523.0	1523.0	1546.0	1546.0	1546.0	1558.0	1558.0	1557.0	1557.0	1557.0	1527.0	1527.0	1546.0	1546.0	1546.0	1594.0	1594.0	1571.0	1571.0	1571.0	1580.0	1580.0	1577.0	1577.0	1577.0	1594.0	1594.0	1526.0	1526.0	1526.0	1587.0	1587.0	1596.0	1596.0	1596.0	1513.0	1513.0	1518.0	1518.0	1518.0	1596.0	1596.0	1513.0	1513.0	1513.0	1550.0	1550.0	1523.0	1523.0	1595.0	1595.0	1595.0	1586.0	1586.0	1561.0	1561.0	1561.0	1612.0	1612.0	1546.0	1546.0	1546.0	1576.0	1576.0	1606.0	1606.0	1606.0	1644.0	1644.0	1588.0	1588.0	1588.0	1649.0	1649.0	1687.0	1687.0	1687.0	1624.0	1624.0	1651.0	1651.0	1651.0	1684.0	1684.0	1690.0	1690.0	1690.0	1790.0	1790.0	1822.0	1822.0	1822.0	1765.0	1765.0	1795.0	1795.0	1795.0	1859.0	1859.0	1843.0	1843.0	1843.0	1943.0	1943.0	1957.0	1957.0	1957.0	1950.0	1950.0	1929.0	1929.0	1929.0	1957.0	1957.0	2003.0	2003.0	2003.0	1998.0	1998.0	2103.0	2103.0	2103.0	2088.0	2088.0	2137.0	2137.0	2137.0	2169.0	2169.0	2121.0	2121.0	2121.0	2160.0	2160.0	2144.0	2144.0	2144.0	2203.0	2203.0	2170.0	2170.0	2170.0	2266.0	2266.0	2228.0	2228.0	2228.0	2213.0	2213.0	2300.0	2300.0	2300.0	2237.0	2237.0	2296.0	2296.0	2296.0	2267.0	2267.0	2274.0	2274.0	2274.0	2275.0	2275.0	2372.0	2372.0	2372.0	2305.0	2305.0	2315.0	2315.0	2315.0	2332.0	2332.0	2385.0	2385.0	2385.0	2362.0	2362.0	2412.0	2412.0	2412.0	2345.0	2345.0	2397.0	2397.0	2397.0	2360.0	2360.0	2363.0	2363.0	2363.0	2379.0	2379.0	2381.0	2381.0	2381.0	2440.0	2440.0	2435.0	2435.0	2435.0	2397.0	2397.0	2448.0	2448.0	2448.0	2447.0	2447.0	2408.0	2408.0	2408.0	2402.0	2402.0	2471.0	2471.0	2471.0	2417.0	2417.0	2453.0	2453.0	2453.0	2491.0	2491.0	2468.0	2468.0	2468.0	2448.0	2448.0	2425.0	2425.0	2425.0	2452.0	2452.0	2491.0	2491.0	2491.0	2480.0	2480.0	2473.0	2473.0	2473.0	2426.0	2426.0	2511.0	2511.0	2511.0	2485.0	2485.0	2469.0	2469.0	2499.0	2499.0	2499.0	2434.0	2434.0	2492.0	2492.0	2492.0	2441.0	2441.0	2446.0	2446.0	2446.0	2429.0	2429.0	2439.0	2439.0	2439.0	2437.0	2437.0	2463.0	2463.0	2463.0	2449.0	2449.0	2505.0	2505.0	2505.0	2486.0	2486.0	2478.0	2478.0	2478.0	2446.0	2446.0	2457.0	2457.0	2457.0	2477.0	2477.0	2487.0	2487.0	2487.0	2435.0	2435.0	2413.0	2413.0	2413.0	2420.0	2420.0	2428.0	2428.0	2428.0	2404.0	2404.0	2432.0	2432.0	2432.0	2382.0	2382.0	2437.0	2437.0	2437.0	2354.0	2354.0	2342.0	2342.0	2342.0	2344.0	2344.0	2332.0	2332.0	2332.0	2390.0	2390.0	2332.0	2332.0	2332.0	2349.0	2349.0	2292.0	2292.0	2292.0	2293.0	2293.0	2322.0	2322.0	2322.0	2300.0	2300.0	2279.0	2279.0	2279.0	2248.0	2248.0	2228.0	2228.0	2228.0	2220.0	2220.0	2201.0	2201.0	2201.0	2171.0	2171.0	2148.0	2148.0	2148.0	2158.0	2158.0	2123.0	2123.0	2123.0	2173.0	2173.0	2107.0	2107.0	2107.0	2115.0	2115.0	2150.0	2150.0	2150.0	2168.0	2168.0	2153.0	2153.0	2153.0	2090.0	2090.0	2077.0	2077.0	2077.0	2098.0	2098.0	2129.0	2129.0	2129.0	2067.0	2067.0	2105.0	2105.0	2105.0	2059.0	2059.0	2078.0	2078.0	2078.0	2102.0	2102.0	2028.0	2028.0	2028.0	2030.0	2030.0	2057.0	2057.0	2057.0	2011.0	2011.0	2014.0	2014.0	2014.0	2001.0	2001.0	2008.0	2008.0	2008.0	1987.0	1987.0	1994.0	1994.0	1994.0	2064.0	2064.0	1982.0	1982.0	1982.0	1966.0	1966.0	1960.0	1960.0	1960.0	2036.0	2036.0	1977.0	1977.0	1977.0	1964.0	1964.0	1952.0	1952.0	1952.0	1932.0	1932.0	1934.0	1934.0	1934.0	1929.0	1929.0	1973.0	1973.0	1973.0	1937.0	1937.0	1938.0	1938.0	1938.0	1938.0	1938.0	1912.0	1912.0	1903.0	1903.0	1903.0	1935.0	1935.0	1889.0	1889.0	1889.0	1917.0	1917.0	1951.0	1951.0	1951.0	1857.0	1857.0	1864.0	1864.0	1864.0	1858.0	1858.0	1908.0	1908.0	1908.0	1916.0	1916.0	1912.0	1912.0	1912.0	1877.0	1877.0	1861.0	1861.0	1861.0	1836.0	1836.0	1814.0	1814.0	1814.0	1823.0	1823.0	1857.0	1857.0	1857.0	1844.0	1844.0	1874.0	1874.0	1874.0	1788.0	1788.0	1842.0	1842.0	1842.0	1859.0	1859.0	1823.0	1823.0	1823.0	1769.0	1769.0	1798.0	1798.0	1798.0	1762.0	1762.0	1812.0	1812.0	1812.0	1828.0	1828.0	1749.0	1749.0	1749.0	1739.0	1739.0	1794.0	1794.0	1794.0	1730.0	1730.0	1762.0	1762.0	1762.0	1799.0	1799.0	1805.0	1805.0	1805.0	1791.0	1791.0	1769.0	1769.0	1769.0	1728.0	1728.0	1752.0	1752.0	1752.0	1699.0	1699.0	1698.0	1698.0	1698.0	1720.0	1720.0	1742.0	1742.0	1742.0	1763.0	1763.0	1686.0	1686.0	1686.0	1755.0	1755.0	1716.0	1716.0	1716.0	1706.0	1706.0	1738.0	1738.0	1738.0	1723.0	1723.0	1669.0	1669.0	1669.0	1648.0	1648.0	1679.0	1679.0	1679.0	1696.0	1696.0	1717.0	1717.0	1717.0	1660.0	1660.0	1634.0	1634.0	1634.0	1650.0	1650.0	1669.0	1669.0	1669.0	1657.0	1657.0	1645.0	1645.0	1645.0	1619.0	1619.0	1686.0	1686.0	1686.0	1676.0	1676.0	1679.0	1679.0	1679.0	1639.0	1639.0	1688.0	1688.0	1688.0	1644.0	1644.0	1682.0	1682.0	1682.0	1646.0	1646.0	1659.0	1659.0	1659.0	1596.0	1596.0	1608.0	1608.0	1608.0	1655.0	1655.0	1663.0	1663.0	1663.0	1663.0	1663.0	1614.0	1614.0	1614.0	1645.0	1645.0	1626.0	1626.0	1616.0	1616.0	1616.0	1614.0	1614.0	1698.0	1698.0	1698.0	1671.0	1671.0	1670.0	1670.0	1670.0	1649.0	1649.0	1697.0	1697.0	1697.0	1617.0	1617.0	1674.0	1674.0	1674.0	1617.0	1617.0	1619.0	1619.0	1619.0	1627.0	1627.0	1692.0	1692.0	1692.0	1624.0	1624.0	1664.0	1664.0	1664.0	1627.0	1627.0	1600.0	1600.0	1600.0	1649.0	1649.0	1660.0	1660.0	1660.0	1630.0	1630.0	1600.0	1600.0	1600.0	1684.0	1684.0	1624.0	1624.0	1624.0	1676.0	1676.0	1613.0	1613.0	1613.0	1599.0	1599.0	1610.0	1610.0	1610.0	1679.0	1679.0	1627.0	1627.0	1627.0	1673.0	1673.0	1677.0	1677.0	1677.0	1601.0	1601.0	1647.0	1647.0	1647.0	1672.0	1672.0	1608.0	1608.0	1608.0	1599.0	1599.0	1656.0	1656.0	1656.0	1648.0	1648.0	1606.0	1606.0	1606.0	1634.0	1634.0	1604.0	1604.0	1604.0	1628.0	1628.0	1618.0	1618.0	1618.0	1573.0	1573.0	1587.0	1587.0	1587.0	1568.0	1568.0	1591.0	1591.0	1591.0	1578.0	1578.0	1630.0	1630.0	1630.0	1606.0	1606.0	1645.0	1645.0	1645.0	1569.0	1569.0	1641.0	1641.0	1641.0	1565.0	1565.0	1632.0	1632.0	1632.0	1642.0	1642.0	1555.0	1555.0	1555.0	1561.0	1561.0	1557.0	1557.0	1557.0	1551.0	1551.0	1628.0	1628.0	1628.0	1548.0	1548.0	1609.0	1609.0	1609.0	1617.0	1617.0	1611.0	1611.0	1611.0	1555.0	1555.0	1568.0	1568.0	1568.0	1567.0	1567.0	1549.0	1549.0	1549.0	1574.0	1574.0	1575.0	1575.0	1575.0	1589.0	1589.0	1569.0	1569.0	1569.0	1576.0	1576.0	1598.0	1598.0	1598.0	1665.0	1665.0	1682.0	1682.0	1682.0	1667.0	1667.0	1712.0	1712.0	1712.0	1659.0	1659.0	1687.0	1687.0	1706.0	1706.0	1706.0	1791.0	1791.0	1800.0	1800.0	1800.0	1830.0	1830.0	1791.0	1791.0	1791.0	1873.0	1873.0	1906.0	1906.0	1906.0	1939.0	1939.0	1902.0	1902.0	1902.0	1978.0	1978.0	2016.0	2016.0	2016.0	1991.0	1991.0	2073.0	2073.0	2073.0	2011.0	2011.0	2058.0	2058.0	2058.0	2124.0	2124.0	2135.0	2135.0	2135.0	2120.0	2120.0	2120.0	2120.0	2120.0	2151.0	2151.0	2218.0	2218.0	2218.0	2230.0	2230.0	2248.0	2248.0	2248.0	2224.0	2224.0	2190.0	2190.0	2190.0	2221.0	2221.0	2301.0	2301.0	2301.0	2234.0	2234.0	2236.0	2236.0	2236.0	2306.0	2306.0	2271.0	2271.0	2271.0	2344.0	2344.0	2307.0	2307.0	2307.0	2308.0	2308.0	2345.0	2345.0	2345.0	2302.0	2302.0	2387.0	2387.0	2387.0	2401.0	2401.0	2331.0	2331.0	2331.0	2391.0	2391.0	2350.0	2350.0	2350.0	2384.0	2384.0	2356.0	2356.0	2356.0	2359.0	2359.0	2395.0	2395.0	2395.0	2344.0	2344.0	2369.0	2369.0	2369.0	2352.0	2352.0	2438.0	2438.0	2438.0	2401.0	2401.0	2418.0	2418.0	2418.0	2362.0	2362.0	2434.0	2434.0	2434.0	2432.0	2432.0	2381.0	2381.0	2381.0	2434.0	2434.0	2358.0	2358.0	2358.0	2369.0	2369.0	2397.0	2397.0	2397.0	2448.0	2448.0	2428.0	2428.0	2428.0	2457.0	2457.0	2408.0	2408.0	2408.0	2415.0	2415.0	2432.0	2432.0	2432.0	2449.0	2449.0	2459.0	2459.0	2459.0	2413.0	2413.0	2419.0	2419.0	2419.0	2421.0	2421.0	2416.0	2416.0	2416.0	2420.0	2420.0	2442.0	2442.0	2442.0	2449.0	2449.0	2361.0	2361.0	2361.0	2429.0	2429.0	2446.0	2446.0	2446.0	2400.0	2400.0	2355.0	2355.0	2355.0	2433.0	2433.0	2372.0	2372.0	2372.0	2349.0	2349.0	2402.0	2402.0	2407.0	2407.0	2407.0	2382.0	2382.0	2375.0	2375.0	2375.0	2326.0	2326.0	2374.0	2374.0	2374.0	2373.0	2373.0	2311.0	2311.0	2311.0	2319.0	2319.0	2249.0	2249.0	2249.0	2267.0	2267.0	2263.0	2263.0	2263.0	2237.0	2237.0	2217.0	2217.0	2217.0	2282.0	2282.0	2251.0	2251.0	2251.0	2174.0	2174.0	2181.0	2181.0	2181.0	2226.0	2226.0	2217.0	2217.0	2217.0	2127.0	2127.0	2187.0	2187.0	2187.0	2125.0	2125.0	2167.0	2167.0	2167.0	2102.0	2102.0	2091.0	2091.0	2091.0	2105.0	2105.0	2071.0	2071.0	2071.0	2128.0	2128.0	2113.0	2113.0	2113.0	2042.0	2042.0	2040.0	2040.0	2040.0	2056.0	2056.0	2042.0	2042.0	2042.0	2100.0	2100.0	2030.0	2030.0	2030.0	2069.0	2069.0	2003.0	2003.0	2003.0	2076.0	2076.0	1992.0	1992.0	1992.0	2000.0	2000.0	2002.0	2002.0	2002.0	2000.0	2000.0	2065.0	2065.0	2065.0	2022.0	2022.0	2015.0	2015.0	2015.0	2068.0	2068.0	2018.0	2018.0	2018.0	1998.0	1998.0	1990.0	