1830.0	1830.0	1830.0	1830.0	1830.0	1815.0	1815.0	1770.0	1770.0	1770.0	1768.0	1768.0	1823.0	1823.0	1823.0	1786.0	1786.0	1784.0	1784.0	1784.0	1803.0	1803.0	1765.0	1765.0	1765.0	1809.0	1809.0	1796.0	1796.0	1796.0	1783.0	1783.0	1769.0	1769.0	1769.0	1814.0	1814.0	1741.0	1741.0	1741.0	1772.0	1772.0	1748.0	1748.0	1748.0	1795.0	1795.0	1803.0	1803.0	1803.0	1802.0	1802.0	1757.0	1757.0	1757.0	1754.0	1754.0	1753.0	1753.0	1753.0	1754.0	1754.0	1788.0	1788.0	1788.0	1750.0	1750.0	1755.0	1755.0	1755.0	1805.0	1805.0	1749.0	1749.0	1749.0	1752.0	1752.0	1789.0	1789.0	1789.0	1771.0	1771.0	1772.0	1772.0	1772.0	1797.0	1797.0	1773.0	1773.0	1773.0	1750.0	1750.0	1760.0	1760.0	1760.0	1735.0	1735.0	1745.0	1745.0	1745.0	1745.0	1745.0	1741.0	1741.0	1741.0	1798.0	1798.0	1731.0	1731.0	1731.0	1762.0	1762.0	1746.0	1746.0	1746.0	1769.0	1769.0	1740.0	1740.0	1740.0	1786.0	1786.0	1763.0	1763.0	1763.0	1738.0	1738.0	1776.0	1776.0	1776.0	1733.0	1733.0	1790.0	1790.0	1790.0	1776.0	1776.0	1735.0	1735.0	1735.0	1718.0	1718.0	1739.0	1739.0	1739.0	1778.0	1778.0	1779.0	1779.0	1779.0	1733.0	1733.0	1764.0	1764.0	1764.0	1719.0	1719.0	1758.0	1758.0	1715.0	1715.0	1715.0	1727.0	1727.0	1768.0	1768.0	1768.0	1724.0	1724.0	1732.0	1732.0	1732.0	1706.0	1706.0	1757.0	1757.0	1757.0	1757.0	1757.0	1730.0	1730.0	1730.0	1746.0	1746.0	1766.0	1766.0	1766.0	1751.0	1751.0	1755.0	1755.0	1755.0	1766.0	1766.0	1770.0	1770.0	1770.0	1734.0	1734.0	1765.0	1765.0	1765.0	1792.0	1792.0	1789.0	1789.0	1789.0	1792.0	1792.0	1796.0	1796.0	1796.0	1767.0	1767.0	1783.0	1783.0	1783.0	1785.0	1785.0	1855.0	1855.0	1855.0	1825.0	1825.0	1879.0	1879.0	1879.0	1857.0	1857.0	1859.0	1859.0	1859.0	1871.0	1871.0	1917.0	1917.0	1917.0	1950.0	1950.0	1904.0	1904.0	1904.0	1925.0	1925.0	1959.0	1959.0	1959.0	1945.0	1945.0	2007.0	2007.0	2007.0	2015.0	2015.0	2001.0	2001.0	2001.0	2060.0	2060.0	2039.0	2039.0	2039.0	2043.0	2043.0	2095.0	2095.0	2095.0	2090.0	2090.0	2067.0	2067.0	2067.0	2109.0	2109.0	2076.0	2076.0	2076.0	2094.0	2094.0	2107.0	2107.0	2107.0	2125.0	2125.0	2114.0	2114.0	2114.0	2129.0	2129.0	2138.0	2138.0	2138.0	2146.0	2146.0	2186.0	2186.0	2186.0	2161.0	2161.0	2159.0	2159.0	2159.0	2186.0	2186.0	2220.0	2220.0	2220.0	2157.0	2157.0	2212.0	2212.0	2212.0	2181.0	2181.0	2218.0	2218.0	2218.0	2235.0	2235.0	2230.0	2230.0	2230.0	2197.0	2197.0	2242.0	2242.0	2242.0	2228.0	2228.0	2242.0	2242.0	2242.0	2214.0	2214.0	2255.0	2255.0	2255.0	2225.0	2225.0	2222.0	2222.0	2222.0	2243.0	2243.0	2208.0	2208.0	2208.0	2209.0	2209.0	2220.0	2220.0	2220.0	2224.0	2224.0	2254.0	2254.0	2254.0	2282.0	2282.0	2225.0	2225.0	2224.0	2224.0	2224.0	2232.0	2232.0	2281.0	2281.0	2281.0	2275.0	2275.0	2272.0	2272.0	2272.0	2234.0	2234.0	2224.0	2224.0	2224.0	2232.0	2232.0	2253.0	2253.0	2253.0	2226.0	2226.0	2227.0	2227.0	2227.0	2224.0	2224.0	2272.0	2272.0	2272.0	2241.0	2241.0	2269.0	2269.0	2269.0	2212.0	2212.0	2261.0	2261.0	2261.0	2275.0	2275.0	2236.0	2236.0	2236.0	2203.0	2203.0	2219.0	2219.0	2219.0	2235.0	2235.0	2216.0	2216.0	2216.0	2228.0	2228.0	2226.0	2226.0	2226.0	2212.0	2212.0	2223.0	2223.0	2223.0	2196.0	2196.0	2178.0	2178.0	2178.0	2172.0	2172.0	2176.0	2176.0	2176.0	2167.0	2167.0	2183.0	2183.0	2183.0	2196.0	2196.0	2194.0	2194.0	2194.0	2191.0	2191.0	2148.0	2148.0	2148.0	2154.0	2154.0	2149.0	2149.0	2149.0	2128.0	2128.0	2123.0	2123.0	2123.0	2147.0	2147.0	2141.0	2141.0	2141.0	2115.0	2115.0	2089.0	2089.0	2089.0	2097.0	2097.0	2086.0	2086.0	2086.0	2111.0	2111.0	2074.0	2074.0	2074.0	2098.0	2098.0	2050.0	2050.0	2050.0	2096.0	2096.0	2086.0	2086.0	2086.0	2090.0	2090.0	2077.0	2077.0	2077.0	2082.0	2082.0	2064.0	2064.0	2064.0	2082.0	2082.0	2039.0	2039.0	2039.0	2016.0	2016.0	2070.0	2070.0	2070.0	2046.0	2046.0	2056.0	2056.0	2056.0	2023.0	2023.0	2024.0	2024.0	2024.0	2029.0	2029.0	2058.0	2058.0	2058.0	2049.0	2049.0	2016.0	2016.0	2016.0	1997.0	1997.0	2012.0	2012.0	2012.0	2051.0	2051.0	2011.0	2011.0	2011.0	2005.0	2005.0	2000.0	2000.0	2000.0	2036.0	2036.0	2016.0	2016.0	2016.0	2038.0	2038.0	2033.0	2033.0	2033.0	2031.0	2031.0	2032.0	2032.0	2014.0	2014.0	2014.0	2030.0	2030.0	2009.0	2009.0	2009.0	2016.0	2016.0	1986.0	1986.0	1986.0	1984.0	1984.0	1978.0	1978.0	1978.0	2011.0	2011.0	2016.0	2016.0	2016.0	1974.0	1974.0	1960.0	1960.0	1960.0	1957.0	1957.0	1970.0	1970.0	1970.0	1983.0	1983.0	1943.0	1943.0	1943.0	1986.0	1986.0	1990.0	1990.0	1990.0	1950.0	1950.0	1960.0	1960.0	1960.0	1941.0	1941.0	1975.0	1975.0	1975.0	1933.0	1933.0	1940.0	1940.0	1940.0	1974.0	1974.0	1907.0	1907.0	1907.0	1912.0	1912.0	1908.0	1908.0	1908.0	1943.0	1943.0	1898.0	1898.0	1898.0	1931.0	1931.0	1923.0	1923.0	1923.0	1930.0	1930.0	1888.0	1888.0	1888.0	1881.0	1881.0	1870.0	1870.0	1870.0	1884.0	1884.0	1925.0	1925.0	1925.0	1908.0	1908.0	1902.0	1902.0	1902.0	1930.0	1930.0	1880.0	1880.0	1880.0	1879.0	1879.0	1907.0	1907.0	1907.0	1865.0	1865.0	1894.0	1894.0	1894.0	1882.0	1882.0	1875.0	1875.0	1875.0	1900.0	1900.0	1880.0	1880.0	1880.0	1893.0	1893.0	1883.0	1883.0	1883.0	1858.0	1858.0	1847.0	1847.0	1847.0	1881.0	1881.0	1852.0	1852.0	1852.0	1822.0	1822.0	1831.0	1831.0	1831.0	1829.0	1829.0	1858.0	1858.0	1858.0	1854.0	1854.0	1864.0	1864.0	1864.0	1832.0	1832.0	1867.0	1867.0	1867.0	1811.0	1811.0	1836.0	1836.0	1836.0	1835.0	1835.0	1882.0	1882.0	1882.0	1853.0	1853.0	1833.0	1833.0	1833.0	1815.0	1815.0	1805.0	1805.0	1805.0	1861.0	1861.0	1825.0	1825.0	1825.0	1809.0	1809.0	1852.0	1852.0	1852.0	1841.0	1841.0	1841.0	1841.0	1841.0	1798.0	1798.0	1843.0	1843.0	1843.0	1824.0	1824.0	1803.0	1803.0	1803.0	1847.0	1847.0	1849.0	1849.0	1790.0	1790.0	1790.0	1811.0	1811.0	1816.0	1816.0	1816.0	1801.0	1801.0	1844.0	1844.0	1844.0	1821.0	1821.0	1835.0	1835.0	1835.0	1839.0	1839.0	1781.0	1781.0	1781.0	1799.0	1799.0	1831.0	1831.0	1831.0	1785.0	1785.0	1809.0	1809.0	1809.0	1809.0	1809.0	1778.0	1778.0	1778.0	1831.0	1831.0	1781.0	1781.0	1781.0	1838.0	1838.0	1830.0	1830.0	1830.0	1831.0	1831.0	1794.0	1794.0	1794.0	1785.0	1785.0	1786.0	1786.0	1786.0	1835.0	1835.0	1800.0	1800.0	1800.0	1827.0	1827.0	1771.0	1771.0	1771.0	1781.0	1781.0	1807.0	1807.0	1807.0	1814.0	1814.0	1777.0	1777.0	1777.0	1768.0	1768.0	1830.0	1830.0	1830.0	1808.0	1808.0	1795.0	1795.0	1795.0	1812.0	1812.0	1807.0	1807.0	1807.0	1810.0	1810.0	1787.0	1787.0	1787.0	1811.0	1811.0	1770.0	1770.0	1770.0	1769.0	1769.0	1782.0	1782.0	1782.0	1795.0	1795.0	1793.0	1793.0	1793.0	1764.0	1764.0	1795.0	1795.0	1795.0	1760.0	1760.0	1801.0	1801.0	1801.0	1776.0	1776.0	1811.0	1811.0	1811.0	1802.0	1802.0	1787.0	1787.0	1787.0	1751.0	1751.0	1751.0	1751.0	1751.0	1776.0	1776.0	1784.0	1784.0	1784.0	1748.0	1748.0	1745.0	1745.0	1745.0	1765.0	1765.0	1773.0	1773.0	1773.0	1755.0	1755.0	1762.0	1762.0	1762.0	1750.0	1750.0	1765.0	1765.0	1765.0	1772.0	1772.0	1790.0	1790.0	1790.0	1792.0	1792.0	1789.0	1789.0	1789.0	1743.0	1743.0	1787.0	1787.0	1787.0	1742.0	1742.0	1801.0	1801.0	1801.0	1796.0	1796.0	1787.0	1787.0	1787.0	1814.0	1814.0	1803.0	1803.0	1803.0	1803.0	1803.0	1821.0	1821.0	1821.0	1836.0	1836.0	1804.0	1804.0	1806.0	1806.0	1806.0	1821.0	1821.0	1836.0	1836.0	1836.0	1862.0	1862.0	1908.0	1908.0	1908.0	1870.0	1870.0	1920.0	1920.0	1920.0	1895.0	1895.0	1904.0	1904.0	1904.0	1916.0	1916.0	1944.0	1944.0	1944.0	1969.0	1969.0	1978.0	1978.0	1978.0	1989.0	1989.0	1998.0	1998.0	1998.0	2007.0	2007.0	2062.0	2062.0	2062.0	2051.0	2051.0	2043.0	2043.0	2043.0	2086.0	2086.0	2075.0	2075.0	2075.0	2114.0	2114.0	2083.0	2083.0	2083.0	2142.0	2142.0	2155.0	2155.0	2155.0	2147.0	2147.0	2111.0	2111.0	2111.0	2161.0	2161.0	2146.0	2146.0	2146.0	2145.0	2145.0	2153.0	2153.0	2153.0	2169.0	2169.0	2164.0	2164.0	2164.0	2199.0	2199.0	2210.0	2210.0	2210.0	2198.0	2198.0	2182.0	2182.0	2182.0	2233.0	2233.0	2248.0	2248.0	2248.0	2205.0	2205.0	2248.0	2248.0	2248.0	2229.0	2229.0	2263.0	2263.0	2263.0	2238.0	2238.0	2236.0	2236.0	2236.0	2217.0	2217.0	2225.0	2225.0	2225.0	2240.0	2240.0	2239.0	2239.0	2239.0	2245.0	2245.0	2224.0	2224.0	2224.0	2235.0	2235.0	2220.0	2220.0	2220.0	2295.0	2295.0	2259.0	2259.0	2259.0	2245.0	2245.0	2283.0	2283.0	2283.0	2263.0	2263.0	2254.0	2254.0	2254.0	2262.0	2262.0	2268.0	2268.0	2268.0	2304.0	2304.0	2297.0	2297.0	2297.0	2263.0	2263.0	2276.0	2276.0	2276.0	2274.0	2274.0	2305.0	2305.0	2305.0	2294.0	2294.0	2261.0	2261.0	2261.0	2256.0	2256.0	2248.0	2248.0	2248.0	2299.0	2299.0	2297.0	2297.0	2297.0	2284.0	2284.0	2278.0	2278.0	2278.0	2247.0	2247.0	2275.0	2275.0	2275.0	2255.0	2255.0	2292.0	2292.0	2292.0	2232.0	2232.0	2251.0	2251.0	2242.0	2242.0	2242.0	2244.0	2244.0	2266.0	2266.0	2266.0	2207.0	2207.0	2254.0	2254.0	2254.0	2198.0	2198.0	2206.0	2206.0	2206.0	2199.0	2199.0	2222.0	2222.0	2222.0	2226.0	2226.0	2186.0	2186.0	2186.0	2187.0	2187.0	2192.0	2192.0	2192.0	2152.0	2152.0	2182.0	2182.0	2182.0	2163.0	2163.0	2130.0	2130.0	2130.0	2169.0	2169.0	2169.0	2169.0	2169.0	2104.0	2104.0	2140.0	2140.0	2140.0	2090.0	2090.0	2131.0	2131.0	2131.0	2125.0	2125.0	2095.0	2095.0	2095.0	2109.0	2109.0	2084.0	2084.0	2084.0	2083.0	2083.0	2085.0	2085.0	2085.0	2069.0	2069.0	2049.0	2049.0	2049.0	2034.0	2034.0	2029.0	2029.0	2029.0	2047.0	2047.0	2014.0	2014.0	2014.0	2006.0	2006.0	2010.0	2010.0	2010.0	1989.0	1989.0	1993.0	1993.0	1993.0	2007.0	2007.0	1974.0	1974.0	1974.0	2003.0	2003.0	2002.0	2002.0	2002.0	2031.0	2031.0	1990.0	1990.0	1990.0	2015.0	2015.0	1979.0	1979.0	1979.0	1976.0	1976.0	1987.0	1987.0	1987.0	1975.0	1975.0	2016.0	2016.0	2016.0	2030.0	2030.0	1959.0	1959.0	1959.0	2000.0	2000.0	1964.0	1964.0	1964.0	1993.0	1993.0	1971.0	1971.0	1971.0	1957.0	1957.0	2000.0	2000.0	2000.0	1994.0	1994.0	1981.0	1981.0	1981.0	1973.0	1973.0	1957.0	1957.0	1957.0	1967.0	1967.0	1997.0	1997.0	1997.0	1975.0	1975.0	1970.0	1970.0	1970.0	1979.0	1979.0	1987.0	1987.0	1987.0	1972.0	1972.0	1925.0	1925.0	1925.0	1932.0	1932.0	1927.0	1927.0	1927.0	1944.0	1944.0	1934.0	1934.0	1934.0	1968.0	1968.0	1965.0	1965.0	1965.0	1934.0	1934.0	1910.0	1910.0	1910.0	1918.0	1918.0	1924.0	1924.0	1924.0	1966.0	1966.0	1902.0	1902.0	1948.0	1948.0	1948.0	1936.0	1936.0	1909.0	1909.0	1909.0	1888.0	1888.0	1926.0	1926.0	1926.0	1894.0	1894.0	1894.0	1894.0	1894.0	1915.0	1915.0	1918.0	1918.0	1918.0	1875.0	1875.0	1876.0	1876.0	1876.0	1933.0	1933.0	1918.0	1918.0	1918.0	1887.0	1887.0	1883.0	1883.0	1883.0	1864.0	1864.0	1906.0	1906.0	1906.0	1902.0	1902.0	1876.0	1876.0	1876.0	1918.0	1918.0	1863.0	1863.0	1863.0	1900.0	1900.0	1915.0	1915.0	1915.0	1891.0	1891.0	1867.0	1867.0	1867.0	1917.0	1917.0	1876.0	1876.0	1876.0	1849.0	1849.0	1872.0	1872.0	1872.0	1853.0	1853.0	1895.0	1895.0	1895.0	1846.0	1846.0	1850.0	1850.0	1850.0	1877.0	1877.0	1900.0	1900.0	1900.0	1853.0	1853.0	1845.0	1845.0	1845.0	1843.0	1843.0	1861.0	1861.0	1861.0	1905.0	1905.0	1867.0	1867.0	1867.0	1862.0	1862.0	1856.0	1856.0	1856.0	1866.0	1866.0	1856.0	1856.0	1856.0	1859.0	1859.0	1834.0	1834.0	1834.0	1872.0	1872.0	1872.0	1872.0	1872.0	1891.0	1891.0	1883.0	1883.0	1883.0	1811.0	1811.0	1822.0	1822.0	1822.0	1864.0	1864.0	1837.0	1837.0	1837.0	1830.0	1830.0	1827.0	1827.0	1827.0	1849.0	1849.0	1878.0	1878.0	1878.0	1870.0	1870.0	1819.0	1819.0	1819.0	1807.0	1807.0	1824.0	1824.0	1824.0	1804.0	1804.0	1846.0	1846.0	1846.0	1809.0	1809.0	1846.0	1846.0	1846.0	1831.0	1831.0	1791.0	1791.0	1791.0	1834.0	1834.0	1819.0	1819.0	1819.0	1855.0	1855.0	1798.0	1798.0	1798.0	1836.0	1836.0	1803.0	1803.0	1803.0	1784.0	1784.0	1857.0	1857.0	1857.0	1842.0	1842.0	1827.0	1827.0	1827.0	1793.0	1793.0	1833.0	1833.0	1787.0	1787.0	1787.0	1795.0	1795.0	1796.0	1796.0	1796.0	1843.0	1843.0	1831.0	1831.0	1831.0	1814.0	1814.0	1801.0	1801.0	1801.0	1790.0	1790.0	1817.0	1817.0	1817.0	1823.0	1823.0	1788.0	1788.0	1788.0	1785.0	1785.0	1808.0	1808.0	1808.0	1813.0	1813.0	1830.0	1830.0	1830.0	1791.0	1791.0	1807.0	1807.0	1807.0	1790.0	1790.0	1827.0	1827.0	1827.0	1833.0	1833.0	1825.0	1825.0	1825.0	1793.0	1793.0	1797.0	1797.0	1797.0	1815.0	1815.0	1811.0	1811.0	1811.0	1793.0	1793.0	1812.0	1812.0	1812.0	1782.0	1782.0	1793.0	1793.0	1793.0	1774.0	1774.0	1817.0	1817.0	1817.0	1833.0	1833.0	1794.0	1794.0	1794.0	1817.0	1817.0	1821.0	1821.0	1821.0	1787.0	1787.0	1841.0	1841.0	1841.0	1808.0	1808.0	1823.0	1823.0	1823.0	1770.0	1770.0	1791.0	1791.0	1791.0	1798.0	1798.0	1806.0	1806.0	1806.0	1790.0	1790.0	1795.0	1795.0	1795.0	1811.0	1811.0	1771.0	1771.0	1771.0	1796.0	1796.0	1809.0	1809.0	1809.0	1784.0	1784.0	1792.0	1792.0	1792.0	1800.0	1800.0	1810.0	1810.0	1810.0	1771.0	1771.0	1794.0	1794.0	1794.0	1799.0	1799.0	1833.0	1833.0	1833.0	1787.0	1787.0	1842.0	1842.0	1842.0	1849.0	1849.0	1831.0	1831.0	1831.0	1845.0	1845.0	1829.0	1829.0	1829.0	1856.0	1856.0	1855.0	1855.0	1855.0	1902.0	1902.0	1892.0	1892.0	1892.0	1894.0	1894.0	1915.0	1915.0	1915.0	1948.0	1948.0	1988.0	1988.0	1988.0	1962.0	1962.0	1977.0	1977.0	1977.0	2028.0	2028.0	2053.0	2053.0	2053.0	2018.0	2018.0	2068.0	2068.0	2068.0	2055.0	2055.0	2038.0	2038.0	2038.0	2065.0	2065.0	2117.0	2117.0	2117.0	2109.0	2109.0	2124.0	2124.0	2119.0	2119.0	2119.0	2158.0	2158.0	2160.0	2160.0	2160.0	2131.0	2131.0	2174.0	2174.0	2174.0	2152.0	2152.0	2186.0	2186.0	2186.0	2216.0	2216.0	2194.0	2194.0	2194.0	2204.0	2204.0	2170.0	2170.0	2170.0	2209.0	2209.0	2191.0	2191.0	2191.0	2217.0	2217.0	2235.0	2235.0	2235.0	2205.0	2205.0	2247.0	2247.0	2247.0	2272.0	2272.0	2236.0	2236.0	2236.0	2231.0	2231.0	2258.0	2258.0	2258.0	2228.0	2228.0	2289.0	2289.0	2289.0	2301.0	2301.0	2280.0	2280.0	2280.0	2253.0	2253.0	2265.0	2265.0	2265.0	2298.0	2298.0	2269.0	2269.0	2269.0	2302.0	2302.0	2300.0	2300.0	2300.0	2259.0	2259.0	2311.0	2311.0	2311.0	2267.0	2267.0	2273.0	2273.0	2273.0	2280.0	2280.0	2260.0	2260.0	2260.0	2301.0	2301.0	2272.0	2272.0	2272.0	2295.0	2295.0	2288.0	2288.0	2288.0	2289.0	2289.0	2312.0	2312.0	2312.0	2296.0	2296.0	2301.0	2301.0	2301.0	2269.0	2269.0	2288.0	2288.0	2288.0	2281.0	2281.0	2257.0	2257.0	2257.0	2277.0	2277.0	2288.0	2288.0	2288.0	2268.0	2268.0	2283.0	2283.0	2283.0	2265.0	2265.0	2307.0	2307.0	2307.0	2252.0	2252.0	2264.0	2264.0	2264.0	2255.0	2255.0	2288.0	2288.0	2288.0	2247.0	2247.0	2284.0	2284.0	2284.0	2248.0	2248.0	2248.0	2248.0	2248.0	2239.0	2239.0	2278.0	2278.0	2278.0	2277.0	2277.0	2262.0	2262.0	2262.0	2261.0	2261.0	2224.0	2224.0	2224.0	2261.0	2261.0	2199.0	2199.0	2199.0	2195.0	2195.0	2193.0	2193.0	2193.0	2176.0	2176.0	2167.0	2167.0	2167.0	2170.0	2170.0	2199.0	2199.0	2199.0	2176.0	2176.0	2171.0	2171.0	2171.0	2132.0	2132.0	2135.0	2135.0	2100.0	2100.0	2100.0	2127.0	2127.0	2075.0	2075.0	2075.0	2069.0	2069.0	2114.0	2114.0	2114.0	2055.0	2055.0	2067.0	2067.0	2067.0	2027.0	2027.0	2056.0	2056.0	2056.0	2066.0	2066.0	2018.0	2018.0	2018.0	2015.0	2015.0	1990.0	1990.0	1990.0	1995.0	1995.0	2000.0	2000.0	2000.0	2015.0	2015.0	1957.0	1957.0	1957.0	1959.0	1959.0	1963.0	1963.0	1963.0	1974.0	1974.0	1939.0	1939.0	1939.0	1990.0	1990.0	1942.0	1942.0	1942.0	1977.0	1977.0	1942.0	1942.0	1942.0	1915.0	1915.0	1918.0	1918.0	1918.0	1942.0	1942.0	1942.0	1942.0	1942.0	1936.0	1936.0	1949.0	1949.0	1949.0	1941.0	1941.0	1925.0	1925.0	1925.0	1944.0	1944.0	1952.0	1952.0	1952.0	1894.0	1894.0	1918.0	1918.0	1918.0	1913.0	1913.0	1923.0	1923.0	1923.0	1942.0	1942.0	1922.0	1922.0	1922.0	1887.0	1887.0	1892.0	1892.0	1892.0	