1759.0	1841.0	1841.0	1783.0	1783.0	1817.0	1817.0	1817.0	1757.0	1757.0	1757.0	1757.0	1757.0	1838.0	1838.0	1822.0	1822.0	1822.0	1775.0	1775.0	1781.0	1781.0	1781.0	1778.0	1778.0	1799.0	1799.0	1799.0	1785.0	1785.0	1784.0	1784.0	1784.0	1793.0	1793.0	1882.0	1882.0	1882.0	1832.0	1832.0	1810.0	1810.0	1810.0	1872.0	1872.0	1852.0	1852.0	1852.0	1931.0	1931.0	1880.0	1880.0	1880.0	1964.0	1964.0	1895.0	1895.0	1895.0	1996.0	1996.0	1959.0	1959.0	1959.0	2024.0	2024.0	1977.0	1977.0	1977.0	2046.0	2046.0	2016.0	2016.0	2016.0	2105.0	2105.0	2151.0	2151.0	2151.0	2145.0	2145.0	2126.0	2126.0	2126.0	2201.0	2201.0	2161.0	2161.0	2161.0	2188.0	2188.0	2204.0	2204.0	2204.0	2229.0	2229.0	2237.0	2237.0	2237.0	2249.0	2249.0	2319.0	2319.0	2319.0	2288.0	2288.0	2356.0	2356.0	2356.0	2388.0	2388.0	2357.0	2357.0	2357.0	2410.0	2410.0	2371.0	2371.0	2371.0	2383.0	2383.0	2378.0	2378.0	2378.0	2375.0	2375.0	2461.0	2461.0	2461.0	2421.0	2421.0	2479.0	2479.0	2479.0	2466.0	2466.0	2420.0	2420.0	2420.0	2509.0	2509.0	2448.0	2448.0	2448.0	2438.0	2438.0	2457.0	2457.0	2457.0	2512.0	2512.0	2475.0	2475.0	2475.0	2497.0	2497.0	2495.0	2495.0	2495.0	2460.0	2460.0	2466.0	2466.0	2466.0	2522.0	2522.0	2478.0	2478.0	2478.0	2531.0	2531.0	2499.0	2499.0	2499.0	2533.0	2533.0	2451.0	2451.0	2451.0	2485.0	2485.0	2493.0	2493.0	2493.0	2453.0	2453.0	2521.0	2521.0	2521.0	2451.0	2451.0	2515.0	2515.0	2515.0	2514.0	2514.0	2516.0	2516.0	2516.0	2510.0	2510.0	2517.0	2517.0	2517.0	2430.0	2430.0	2436.0	2436.0	2521.0	2521.0	2521.0	2472.0	2472.0	2490.0	2490.0	2490.0	2511.0	2511.0	2514.0	2514.0	2514.0	2452.0	2452.0	2440.0	2440.0	2440.0	2469.0	2469.0	2516.0	2516.0	2516.0	2431.0	2431.0	2499.0	2499.0	2499.0	2508.0	2508.0	2455.0	2455.0	2455.0	2519.0	2519.0	2430.0	2430.0	2430.0	2491.0	2491.0	2429.0	2429.0	2429.0	2500.0	2500.0	2509.0	2509.0	2509.0	2509.0	2509.0	2451.0	2451.0	2451.0	2454.0	2454.0	2464.0	2464.0	2464.0	2501.0	2501.0	2436.0	2436.0	2436.0	2455.0	2455.0	2494.0	2494.0	2494.0	2471.0	2471.0	2460.0	2460.0	2460.0	2487.0	2487.0	2401.0	2401.0	2401.0	2431.0	2431.0	2385.0	2385.0	2385.0	2380.0	2380.0	2460.0	2460.0	2460.0	2381.0	2381.0	2435.0	2435.0	2435.0	2429.0	2429.0	2408.0	2408.0	2408.0	2362.0	2362.0	2386.0	2386.0	2386.0	2421.0	2421.0	2375.0	2375.0	2375.0	2392.0	2392.0	2380.0	2380.0	2380.0	2379.0	2379.0	2373.0	2373.0	2373.0	2368.0	2368.0	2275.0	2275.0	2275.0	2269.0	2269.0	2314.0	2314.0	2314.0	2319.0	2319.0	2263.0	2263.0	2263.0	2314.0	2314.0	2233.0	2233.0	2233.0	2229.0	2229.0	2207.0	2207.0	2207.0	2216.0	2216.0	2196.0	2196.0	2196.0	2199.0	2199.0	2181.0	2181.0	2181.0	2215.0	2215.0	2215.0	2215.0	2215.0	2182.0	2182.0	2235.0	2235.0	2235.0	2215.0	2215.0	2167.0	2167.0	2167.0	2172.0	2172.0	2158.0	2158.0	2158.0	2187.0	2187.0	2134.0	2134.0	2134.0	2155.0	2155.0	2107.0	2107.0	2107.0	2082.0	2082.0	2095.0	2095.0	2095.0	2116.0	2116.0	2083.0	2083.0	2083.0	2069.0	2069.0	2126.0	2126.0	2126.0	2139.0	2139.0	2123.0	2123.0	2043.0	2043.0	2043.0	2043.0	2043.0	2062.0	2062.0	2062.0	2109.0	2109.0	2055.0	2055.0	2055.0	2022.0	2022.0	2044.0	2044.0	2044.0	2092.0	2092.0	2040.0	2040.0	2040.0	2089.0	2089.0	1994.0	1994.0	1994.0	2080.0	2080.0	2070.0	2070.0	2070.0	2071.0	2071.0	2037.0	2037.0	2037.0	2009.0	2009.0	2037.0	2037.0	2037.0	2050.0	2050.0	2050.0	2050.0	2050.0	1993.0	1993.0	1980.0	1980.0	1980.0	1979.0	1979.0	2056.0	2056.0	2056.0	2054.0	2054.0	2015.0	2015.0	2015.0	1978.0	1978.0	1972.0	1972.0	1972.0	2028.0	2028.0	2001.0	2001.0	2001.0	1975.0	1975.0	2029.0	2029.0	2029.0	2027.0	2027.0	1997.0	1997.0	1997.0	1972.0	1972.0	1989.0	1989.0	1989.0	1993.0	1993.0	2024.0	2024.0	2024.0	1927.0	1927.0	1947.0	1947.0	1947.0	1929.0	1929.0	1925.0	1925.0	1925.0	1932.0	1932.0	1982.0	1982.0	1982.0	1914.0	1914.0	1950.0	1950.0	1950.0	1939.0	1939.0	1942.0	1942.0	1942.0	1915.0	1915.0	1928.0	1928.0	1928.0	1974.0	1974.0	1937.0	1937.0	1937.0	1903.0	1903.0	1965.0	1965.0	1965.0	1970.0	1970.0	1923.0	1923.0	1923.0	1920.0	1920.0	1958.0	1958.0	1958.0	1869.0	1869.0	1880.0	1880.0	1880.0	1881.0	1881.0	1869.0	1869.0	1869.0	1885.0	1885.0	1859.0	1859.0	1859.0	1937.0	1937.0	1864.0	1864.0	1864.0	1855.0	1855.0	1913.0	1913.0	1913.0	1906.0	1906.0	1931.0	1931.0	1931.0	1892.0	1892.0	1855.0	1855.0	1855.0	1851.0	1851.0	1876.0	1876.0	1876.0	1876.0	1876.0	1899.0	1899.0	1899.0	1871.0	1871.0	1835.0	1835.0	1835.0	1831.0	1831.0	1833.0	1833.0	1833.0	1841.0	1841.0	1862.0	1862.0	1862.0	1873.0	1873.0	1871.0	1871.0	1880.0	1880.0	1880.0	1875.0	1875.0	1881.0	1881.0	1881.0	1891.0	1891.0	1905.0	1905.0	1905.0	1817.0	1817.0	1827.0	1827.0	1827.0	1886.0	1886.0	1877.0	1877.0	1877.0	1839.0	1839.0	1859.0	1859.0	1859.0	1914.0	1914.0	1875.0	1875.0	1875.0	1875.0	1875.0	1832.0	1832.0	1832.0	1899.0	1899.0	1902.0	1902.0	1902.0	1855.0	1855.0	1876.0	1876.0	1876.0	1830.0	1830.0	1820.0	1820.0	1820.0	1900.0	1900.0	1843.0	1843.0	1843.0	1860.0	1860.0	1896.0	1896.0	1896.0	1908.0	1908.0	1816.0	1816.0	1816.0	1844.0	1844.0	1871.0	1871.0	1871.0	1819.0	1819.0	1834.0	1834.0	1834.0	1838.0	1838.0	1904.0	1904.0	1904.0	1820.0	1820.0	1876.0	1876.0	1876.0	1812.0	1812.0	1894.0	1894.0	1894.0	1819.0	1819.0	1850.0	1850.0	1850.0	1851.0	1851.0	1838.0	1838.0	1838.0	1877.0	1877.0	1815.0	1815.0	1815.0	1892.0	1892.0	1815.0	1815.0	1815.0	1830.0	1830.0	1818.0	1818.0	1818.0	1903.0	1903.0	1840.0	1840.0	1840.0	1863.0	1863.0	1839.0	1839.0	1839.0	1868.0	1868.0	1892.0	1892.0	1892.0	1866.0	1866.0	1901.0	1901.0	1901.0	1869.0	1869.0	1868.0	1868.0	1868.0	1830.0	1830.0	1855.0	1855.0	1855.0	1902.0	1902.0	1906.0	1906.0	1906.0	1901.0	1901.0	1849.0	1849.0	1849.0	1865.0	1865.0	1822.0	1822.0	1822.0	1840.0	1840.0	1914.0	1914.0	1914.0	1846.0	1846.0	1854.0	1854.0	1854.0	1850.0	1850.0	1837.0	1837.0	1837.0	1832.0	1832.0	1896.0	1896.0	1896.0	1839.0	1839.0	1907.0	1907.0	1907.0	1869.0	1869.0	1821.0	1821.0	1821.0	1846.0	1846.0	1818.0	1818.0	1818.0	1851.0	1851.0	1823.0	1823.0	1898.0	1898.0	1898.0	1852.0	1852.0	1817.0	1817.0	1817.0	1838.0	1838.0	1844.0	1844.0	1844.0	1859.0	1859.0	1822.0	1822.0	1822.0	1891.0	1891.0	1881.0	1881.0	1881.0	1854.0	1854.0	1901.0	1901.0	1901.0	1824.0	1824.0	1907.0	1907.0	1907.0	1817.0	1817.0	1819.0	1819.0	1819.0	1873.0	1873.0	1857.0	1857.0	1857.0	1854.0	1854.0	1906.0	1906.0	1906.0	1876.0	1876.0	1853.0	1853.0	1853.0	1835.0	1835.0	1831.0	1831.0	1831.0	1872.0	1872.0	1886.0	1886.0	1886.0	1875.0	1875.0	1831.0	1831.0	1831.0	1910.0	1910.0	1885.0	1885.0	1885.0	1901.0	1901.0	1896.0	1896.0	1896.0	1855.0	1855.0	1877.0	1877.0	1877.0	1817.0	1817.0	1869.0	1869.0	1869.0	1889.0	1889.0	1819.0	1819.0	1819.0	1902.0	1902.0	1898.0	1898.0	1898.0	1884.0	1884.0	1836.0	1836.0	1836.0	1820.0	1820.0	1814.0	1814.0	1814.0	1860.0	1860.0	1870.0	1870.0	1870.0	1866.0	1866.0	1900.0	1900.0	1900.0	1880.0	1880.0	1908.0	1908.0	1908.0	1908.0	1908.0	1834.0	1834.0	1834.0	1838.0	1838.0	1848.0	1848.0	1848.0	1854.0	1854.0	1930.0	1930.0	1930.0	1914.0	1914.0	1923.0	1923.0	1923.0	1970.0	1970.0	1907.0	1907.0	1907.0	1938.0	1938.0	1998.0	1998.0	1998.0	2032.0	2032.0	2044.0	2044.0	2044.0	2032.0	2032.0	2068.0	2068.0	2068.0	2085.0	2085.0	2117.0	2117.0	2117.0	2100.0	2100.0	2116.0	2116.0	2116.0	2118.0	2118.0	2153.0	2153.0	2153.0	2202.0	2202.0	2214.0	2214.0	2214.0	2261.0	2261.0	2203.0	2203.0	2203.0	2223.0	2223.0	2312.0	2312.0	2312.0	2249.0	2249.0	2313.0	2313.0	2313.0	2322.0	2322.0	2299.0	2299.0	2299.0	2321.0	2321.0	2394.0	2394.0	2342.0	2342.0	2342.0	2363.0	2363.0	2363.0	2363.0	2363.0	2444.0	2444.0	2465.0	2465.0	2465.0	2395.0	2395.0	2413.0	2413.0	2413.0	2464.0	2464.0	2428.0	2428.0	2428.0	2408.0	2408.0	2439.0	2439.0	2439.0	2496.0	2496.0	2491.0	2491.0	2491.0	2454.0	2454.0	2507.0	2507.0	2507.0	2420.0	2420.0	2432.0	2432.0	2432.0	2475.0	2475.0	2435.0	2435.0	2435.0	2425.0	2425.0	2424.0	2424.0	2424.0	2426.0	2426.0	2437.0	2437.0	2437.0	2503.0	2503.0	2481.0	2481.0	2481.0	2458.0	2458.0	2428.0	2428.0	2428.0	2419.0	2419.0	2424.0	2424.0	2424.0	2420.0	2420.0	2414.0	2414.0	2414.0	2469.0	2469.0	2417.0	2417.0	2417.0	2497.0	2497.0	2409.0	2409.0	2409.0	2493.0	2493.0	2497.0	2497.0	2497.0	2473.0	2473.0	2455.0	2455.0	2455.0	2425.0	2425.0	2488.0	2488.0	2488.0	2478.0	2478.0	2464.0	2464.0	2464.0	2495.0	2495.0	2416.0	2416.0	2416.0	2433.0	2433.0	2473.0	2473.0	2473.0	2490.0	2490.0	2487.0	2487.0	2487.0	2398.0	2398.0	2486.0	2486.0	2486.0	2481.0	2481.0	2475.0	2475.0	2475.0	2399.0	2399.0	2471.0	2471.0	2471.0	2479.0	2479.0	2394.0	2394.0	2394.0	2469.0	2469.0	2456.0	2456.0	2456.0	2422.0	2422.0	2376.0	2376.0	2376.0	2410.0	2410.0	2444.0	2444.0	2444.0	2424.0	2424.0	2436.0	2436.0	2436.0	2368.0	2368.0	2361.0	2361.0	2361.0	2361.0	2361.0	2440.0	2440.0	2440.0	2369.0	2369.0	2434.0	2434.0	2434.0	2361.0	2361.0	2353.0	2353.0	2353.0	2401.0	2401.0	2380.0	2380.0	2380.0	2339.0	2339.0	2410.0	2410.0	2410.0	2389.0	2389.0	2362.0	2362.0	2362.0	2323.0	2323.0	2369.0	2369.0	2355.0	2355.0	2355.0	2330.0	2330.0	2289.0	2289.0	2289.0	2343.0	2343.0	2311.0	2311.0	2311.0	2338.0	2338.0	2318.0	2318.0	2318.0	2261.0	2261.0	2240.0	2240.0	2240.0	2270.0	2270.0	2244.0	2244.0	2244.0	2208.0	2208.0	2275.0	2275.0	2275.0	2258.0	2258.0	2206.0	2206.0	2206.0	2253.0	2253.0	2225.0	2225.0	2225.0	2152.0	2152.0	2182.0	2182.0	2182.0	2165.0	2165.0	2204.0	2204.0	2204.0	2190.0	2190.0	2130.0	2130.0	2130.0	2114.0	2114.0	2106.0	2106.0	2106.0	2119.0	2119.0	2144.0	2144.0	2144.0	2117.0	2117.0	2136.0	2136.0	2136.0	2120.0	2120.0	2082.0	2082.0	2082.0	2091.0	2091.0	2048.0	2048.0	2048.0	2125.0	2125.0	2061.0	2061.0	2061.0	2100.0	2100.0	2022.0	2022.0	2022.0	2107.0	2107.0	2100.0	2100.0	2100.0	2099.0	2099.0	2015.0	2015.0	2015.0	2080.0	2080.0	2051.0	2051.0	2051.0	2071.0	2071.0	2076.0	2076.0	2076.0	2078.0	2078.0	2077.0	2077.0	2077.0	1987.0	1987.0	2075.0	2075.0	2075.0	2037.0	2037.0	1993.0	1993.0	1993.0	2054.0	2054.0	2059.0	2059.0	2059.0	1978.0	1978.0	1997.0	1997.0	1997.0	2032.0	2032.0	1974.0	1974.0	1974.0	1973.0	1973.0	1964.0	1964.0	1964.0	2027.0	2027.0	1965.0	1965.0	1965.0	2003.0	2003.0	1952.0	1952.0	1952.0	2002.0	2002.0	1949.0	1949.0	1949.0	2029.0	2029.0	1948.0	1948.0	1948.0	2022.0	2022.0	1933.0	1933.0	1933.0	1934.0	1934.0	1977.0	1977.0	1977.0	1927.0	1927.0	1974.0	1974.0	1974.0	1916.0	1916.0	1995.0	1995.0	1995.0	1993.0	1993.0	1996.0	1996.0	1996.0	1983.0	1983.0	1912.0	1912.0	1912.0	1976.0	1976.0	1962.0	1962.0	1884.0	1884.0	1884.0	1966.0	1966.0	1883.0	1883.0	1883.0	1912.0	1912.0	1953.0	1953.0	1953.0	1944.0	1944.0	1948.0	1948.0	1948.0	1884.0	1884.0	1943.0	1943.0	1943.0	1902.0	1902.0	1858.0	1858.0	1858.0	1901.0	1901.0	1852.0	1852.0	1852.0	1883.0	1883.0	1925.0	1925.0	1925.0	1892.0	1892.0	1837.0	1837.0	1837.0	1922.0	1922.0	1922.0	1922.0	1922.0	1877.0	1877.0	1868.0	1868.0	1868.0	1852.0	1852.0	1876.0	1876.0	1876.0	1840.0	1840.0	1820.0	1820.0	1820.0	1813.0	1813.0	1832.0	1832.0	1832.0	1892.0	1892.0	1863.0	1863.0	1863.0	1860.0	1860.0	1864.0	1864.0	1864.0	1879.0	1879.0	1855.0	1855.0	1855.0	1827.0	1827.0	1808.0	1808.0	1808.0	1820.0	1820.0	1825.0	1825.0	1825.0	1861.0	1861.0	1780.0	1780.0	1780.0	1796.0	1796.0	1841.0	1841.0	1841.0	1778.0	1778.0	1776.0	1776.0	1776.0	1789.0	1789.0	1804.0	1804.0	1804.0	1831.0	1831.0	1776.0	1776.0	1776.0	1804.0	1804.0	1768.0	1768.0	1768.0	1757.0	1757.0	1761.0	1761.0	1761.0	1839.0	1839.0	1825.0	1825.0	1825.0	1759.0	1759.0	1847.0	1847.0	1847.0	1792.0	1792.0	1810.0	1810.0	1810.0	1833.0	1833.0	1767.0	1767.0	1767.0	1780.0	1780.0	1782.0	1782.0	1782.0	1796.0	1796.0	1835.0	1835.0	1835.0	1761.0	1761.0	1800.0	1800.0	1800.0	1819.0	1819.0	1803.0	1803.0	1803.0	1816.0	1816.0	1785.0	1785.0	1785.0	1790.0	1790.0	1772.0	1772.0	1772.0	1762.0	1762.0	1811.0	1811.0	1811.0	1795.0	1795.0	1815.0	1815.0	1815.0	1792.0	1792.0	1804.0	1804.0	1804.0	1821.0	1821.0	1819.0	1819.0	1819.0	1760.0	1760.0	1761.0	1761.0	1761.0	1785.0	1785.0	1792.0	1792.0	1784.0	1784.0	1784.0	1823.0	1823.0	1780.0	1780.0	1780.0	1822.0	1822.0	1783.0	1783.0	1783.0	1757.0	1757.0	1807.0	1807.0	1807.0	1820.0	1820.0	1840.0	1840.0	1840.0	1767.0	1767.0	1759.0	1759.0	1759.0	1755.0	1755.0	1823.0	1823.0	1823.0	1757.0	1757.0	1791.0	1791.0	1791.0	1763.0	1763.0	1837.0	1837.0	1837.0	1815.0	1815.0	1782.0	1782.0	1782.0	1801.0	1801.0	1817.0	1817.0	1817.0	1820.0	1820.0	1791.0	1791.0	1791.0	1799.0	1799.0	1792.0	1792.0	1792.0	1766.0	1766.0	1790.0	1790.0	1790.0	1802.0	1802.0	1800.0	1800.0	1800.0	1770.0	1770.0	1790.0	1790.0	1790.0	1846.0	1846.0	1815.0	1815.0	1815.0	1789.0	1789.0	1780.0	1780.0	1780.0	1777.0	1777.0	1856.0	1856.0	1856.0	1799.0	1799.0	1839.0	1839.0	1839.0	1857.0	1857.0	1829.0	1829.0	1829.0	1768.0	1768.0	1837.0	1837.0	1837.0	1851.0	1851.0	1768.0	1768.0	1768.0	1796.0	1796.0	1763.0	1763.0	1763.0	1785.0	1785.0	1764.0	1764.0	1764.0	1785.0	1785.0	1846.0	1846.0	1846.0	1829.0	1829.0	1833.0	1833.0	1833.0	1784.0	1784.0	1808.0	1808.0	1808.0	1768.0	1768.0	1766.0	1766.0	1766.0	1764.0	1764.0	1761.0	1761.0	1761.0	1810.0	1810.0	1809.0	1809.0	1809.0	1809.0	1809.0	1770.0	1770.0	1770.0	1804.0	1804.0	1809.0	1809.0	1809.0	1835.0	1835.0	1845.0	1845.0	1845.0	1821.0	1821.0	1786.0	1786.0	1786.0	1788.0	1788.0	1798.0	1798.0	1798.0	1848.0	1848.0	1773.0	1773.0	1773.0	1819.0	1819.0	1836.0	1836.0	1836.0	1770.0	1770.0	1801.0	1801.0	1801.0	1771.0	1771.0	1760.0	1760.0	1760.0	1841.0	1841.0	1847.0	1847.0	1818.0	1818.0	1818.0	1760.0	1760.0	1761.0	1761.0	1761.0	1804.0	1804.0	1762.0	1762.0	1762.0	1767.0	1767.0	1832.0	1832.0	1832.0	1780.0	1780.0	1758.0	1758.0	1758.0	1766.0	1766.0	1751.0	1751.0	1751.0	1842.0	1842.0	1797.0	1797.0	1797.0	1764.0	1764.0	1772.0	1772.0	1772.0	1817.0	1817.0	1802.0	1802.0	1802.0	1798.0	1798.0	1847.0	1847.0	1847.0	1854.0	1854.0	1862.0	1862.0	1862.0	1842.0	1842.0	1776.0	1776.0	1776.0	1875.0	1875.0	1850.0	1850.0	1850.0	1800.0	1800.0	1813.0	1813.0	1813.0	1850.0	1850.0	1902.0	1902.0	1902.0	1917.0	1917.0	1848.0	1848.0	1848.0	1945.0	1945.0	1913.0	1913.0	1913.0	1890.0	1890.0	1915.0	1915.0	1915.0	1956.0	1956.0	2022.0	2022.0	2022.0	1988.0	1988.0	1983.0	1983.0	1983.0	2089.0	2089.0	2027.0	2027.0	2027.0	2106.0	2106.0	2095.0	2095.0	2095.0	2158.0	2158.0	2161.0	2161.0	2161.0	2147.0	2147.0	2148.0	2148.0	2148.0	2207.0	2207.0	2242.0	2242.0	2242.0	2204.0	2204.0	2216.0	2216.0	2216.0	2288.0	2288.0	2245.0	2245.0	2245.0	2270.0	2270.0	2357.0	2357.0	2357.0	2365.0	2365.0	2289.0	2289.0	2289.0	2307.0	2307.0	2322.0	2322.0	2322.0	2358.0	2358.0	2400.0	2400.0	2400.0	2413.0	2413.0	2335.0	2335.0	2335.0	2344.0	2344.0	2356.0	2356.0	2356.0	2355.0	2355.0	2384.0	2384.0	2384.0	2371.0	2371.0	2384.0	2384.0	2384.0	2410.0	2410.0	2358.0	2358.0	2358.0	2363.0	2363.0	2413.0	2413.0	2413.0	2372.0	2372.0	2457.0	2457.0	2457.0	2422.0	2422.0	2416.0	2416.0	2416.0	2390.0	2390.0	2372.0	2372.0	2372.0	2427.0	2427.0	2385.0	2385.0	2400.0	2400.0	2400.0	2440.0	2440.0	2370.0	2370.0	2370.0	2375.0	2375.0	2391.0	2391.0	2391.0	2420.0	2420.0	2434.0	2434.0	2434.0	2444.0	2444.0	2371.0	2371.0	2371.0	2430.0	2430.0	2397.0	2397.0	2397.0	2444.0	2444.0	2390.0	2390.0	2390.0	2427.0	2427.0	2368.0	2368.0	2368.0	2355.0	2355.0	2381.0	2381.0	2381.0	2365.0	2365.0	2365.0	2365.0	2365.0	2406.0	2406.0	2380.0	2380.0	2380.0	2365.0	2365.0	2371.0	2371.0	2371.0	2398.0	2398.0	