2051.0	2051.0	2051.0	2071.0	2071.0	2041.0	2041.0	2041.0	2085.0	2085.0	2065.0	2065.0	2065.0	2038.0	2038.0	2037.0	2037.0	2037.0	2051.0	2051.0	2032.0	2032.0	2032.0	2055.0	2055.0	2040.0	2040.0	2040.0	2015.0	2015.0	2022.0	2022.0	2022.0	2015.0	2015.0	2028.0	2028.0	2028.0	2020.0	2020.0	2020.0	2020.0	2020.0	2018.0	2018.0	2032.0	2032.0	2032.0	2020.0	2020.0	2009.0	2009.0	2009.0	1983.0	1983.0	2019.0	2019.0	2019.0	2004.0	2004.0	2004.0	2004.0	2004.0	1982.0	1982.0	1993.0	1993.0	1993.0	1972.0	1972.0	2020.0	2020.0	2020.0	2000.0	2000.0	1996.0	1996.0	1996.0	1983.0	1983.0	1977.0	1977.0	1977.0	1973.0	1973.0	1992.0	1992.0	1992.0	1989.0	1989.0	1959.0	1959.0	1959.0	1981.0	1981.0	1963.0	1963.0	1963.0	1945.0	1945.0	1990.0	1990.0	1990.0	1953.0	1953.0	1953.0	1953.0	1953.0	1947.0	1947.0	1934.0	1934.0	1934.0	1940.0	1940.0	1955.0	1955.0	1955.0	1939.0	1939.0	1919.0	1919.0	1919.0	1931.0	1931.0	1933.0	1933.0	1933.0	1939.0	1939.0	1929.0	1929.0	1929.0	1941.0	1941.0	1939.0	1939.0	1939.0	1937.0	1937.0	1916.0	1916.0	1916.0	1920.0	1920.0	1934.0	1934.0	1934.0	1938.0	1938.0	1908.0	1908.0	1908.0	1917.0	1917.0	1913.0	1913.0	1913.0	1906.0	1906.0	1933.0	1933.0	1933.0	1928.0	1928.0	1913.0	1913.0	1913.0	1912.0	1912.0	1892.0	1892.0	1892.0	1896.0	1896.0	1895.0	1895.0	1895.0	1908.0	1908.0	1916.0	1916.0	1916.0	1892.0	1892.0	1905.0	1905.0	1905.0	1904.0	1904.0	1920.0	1920.0	1920.0	1884.0	1884.0	1902.0	1902.0	1902.0	1902.0	1902.0	1872.0	1872.0	1883.0	1883.0	1883.0	1915.0	1915.0	1874.0	1874.0	1874.0	1871.0	1871.0	1887.0	1887.0	1887.0	1887.0	1887.0	1864.0	1864.0	1864.0	1865.0	1865.0	1862.0	1862.0	1862.0	1890.0	1890.0	1867.0	1867.0	1867.0	1891.0	1891.0	1865.0	1865.0	1865.0	1882.0	1882.0	1862.0	1862.0	1862.0	1852.0	1852.0	1851.0	1851.0	1851.0	1867.0	1867.0	1845.0	1845.0	1845.0	1855.0	1855.0	1861.0	1861.0	1861.0	1868.0	1868.0	1848.0	1848.0	1848.0	1836.0	1836.0	1858.0	1858.0	1858.0	1852.0	1852.0	1862.0	1862.0	1862.0	1841.0	1841.0	1831.0	1831.0	1831.0	1843.0	1843.0	1844.0	1844.0	1844.0	1848.0	1848.0	1832.0	1832.0	1832.0	1838.0	1838.0	1835.0	1835.0	1835.0	1840.0	1840.0	1850.0	1850.0	1850.0	1831.0	1831.0	1861.0	1861.0	1861.0	1833.0	1833.0	1834.0	1834.0	1834.0	1833.0	1833.0	1842.0	1842.0	1842.0	1835.0	1835.0	1830.0	1830.0	1830.0	1841.0	1841.0	1846.0	1846.0	1846.0	1822.0	1822.0	1831.0	1831.0	1831.0	1841.0	1841.0	1843.0	1843.0	1843.0	1834.0	1834.0	1822.0	1822.0	1822.0	1837.0	1837.0	1824.0	1824.0	1824.0	1827.0	1827.0	1829.0	1829.0	1829.0	1839.0	1839.0	1827.0	1827.0	1827.0	1853.0	1853.0	1852.0	1852.0	1852.0	1831.0	1831.0	1855.0	1855.0	1855.0	1841.0	1841.0	1842.0	1842.0	1842.0	1851.0	1851.0	1842.0	1842.0	1842.0	1841.0	1841.0	1835.0	1835.0	1835.0	1818.0	1818.0	1840.0	1840.0	1840.0	1839.0	1839.0	1855.0	1855.0	1855.0	1854.0	1854.0	1850.0	1850.0	1850.0	1858.0	1858.0	1840.0	1840.0	1840.0	1840.0	1840.0	1846.0	1846.0	1846.0	1833.0	1833.0	1852.0	1852.0	1821.0	1821.0	1821.0	1840.0	1840.0	1829.0	1829.0	1829.0	1853.0	1853.0	1846.0	1846.0	1846.0	1828.0	1828.0	1813.0	1813.0	1813.0	1840.0	1840.0	1844.0	1844.0	1844.0	1830.0	1830.0	1821.0	1821.0	1821.0	1839.0	1839.0	1828.0	1828.0	1828.0	1831.0	1831.0	1840.0	1840.0	1840.0	1820.0	1820.0	1814.0	1814.0	1814.0	1835.0	1835.0	1835.0	1835.0	1835.0	1831.0	1831.0	1835.0	1835.0	1835.0	1849.0	1849.0	1840.0	1840.0	1840.0	1819.0	1819.0	1843.0	1843.0	1843.0	1816.0	1816.0	1815.0	1815.0	1815.0	1838.0	1838.0	1831.0	1831.0	1831.0	1852.0	1852.0	1820.0	1820.0	1820.0	1824.0	1824.0	1849.0	1849.0	1849.0	1828.0	1828.0	1840.0	1840.0	1840.0	1839.0	1839.0	1862.0	1862.0	1862.0	1846.0	1846.0	1864.0	1864.0	1864.0	1845.0	1845.0	1854.0	1854.0	1854.0	1899.0	1899.0	1883.0	1883.0	1883.0	1888.0	1888.0	1886.0	1886.0	1886.0	1937.0	1937.0	1928.0	1928.0	1928.0	1934.0	1934.0	1962.0	1962.0	1962.0	1939.0	1939.0	1989.0	1989.0	1989.0	1991.0	1991.0	2007.0	2007.0	2007.0	2006.0	2006.0	2022.0	2022.0	2022.0	2053.0	2053.0	2078.0	2078.0	2078.0	2087.0	2087.0	2104.0	2104.0	2104.0	2108.0	2108.0	2106.0	2106.0	2106.0	2127.0	2127.0	2132.0	2132.0	2132.0	2148.0	2148.0	2169.0	2169.0	2169.0	2156.0	2156.0	2199.0	2199.0	2199.0	2186.0	2186.0	2198.0	2198.0	2198.0	2242.0	2242.0	2238.0	2238.0	2238.0	2253.0	2253.0	2254.0	2254.0	2254.0	2244.0	2244.0	2271.0	2271.0	2271.0	2276.0	2276.0	2276.0	2276.0	2276.0	2318.0	2318.0	2292.0	2292.0	2292.0	2323.0	2323.0	2311.0	2311.0	2311.0	2338.0	2338.0	2331.0	2331.0	2329.0	2329.0	2329.0	2343.0	2343.0	2329.0	2329.0	2329.0	2367.0	2367.0	2365.0	2365.0	2365.0	2346.0	2346.0	2368.0	2368.0	2368.0	2388.0	2388.0	2370.0	2370.0	2370.0	2376.0	2376.0	2382.0	2382.0	2382.0	2379.0	2379.0	2375.0	2375.0	2375.0	2385.0	2385.0	2399.0	2399.0	2399.0	2402.0	2402.0	2398.0	2398.0	2398.0	2408.0	2408.0	2384.0	2384.0	2384.0	2413.0	2413.0	2402.0	2402.0	2402.0	2402.0	2402.0	2404.0	2404.0	2404.0	2407.0	2407.0	2385.0	2385.0	2385.0	2419.0	2419.0	2410.0	2410.0	2410.0	2391.0	2391.0	2413.0	2413.0	2413.0	2408.0	2408.0	2398.0	2398.0	2398.0	2392.0	2392.0	2388.0	2388.0	2388.0	2407.0	2407.0	2398.0	2398.0	2398.0	2388.0	2388.0	2404.0	2404.0	2404.0	2389.0	2389.0	2404.0	2404.0	2404.0	2398.0	2398.0	2391.0	2391.0	2391.0	2399.0	2399.0	2381.0	2381.0	2381.0	2394.0	2394.0	2388.0	2388.0	2388.0	2395.0	2395.0	2396.0	2396.0	2396.0	2356.0	2356.0	2375.0	2375.0	2375.0	2384.0	2384.0	2363.0	2363.0	2363.0	2379.0	2379.0	2355.0	2355.0	2355.0	2354.0	2354.0	2349.0	2349.0	2349.0	2355.0	2355.0	2364.0	2364.0	2364.0	2366.0	2366.0	2361.0	2361.0	2361.0	2345.0	2345.0	2334.0	2334.0	2334.0	2339.0	2339.0	2331.0	2331.0	2331.0	2311.0	2311.0	2326.0	2326.0	2326.0	2305.0	2305.0	2297.0	2297.0	2297.0	2292.0	2292.0	2291.0	2291.0	2291.0	2263.0	2263.0	2256.0	2256.0	2256.0	2275.0	2275.0	2250.0	2250.0	2250.0	2271.0	2271.0	2248.0	2248.0	2248.0	2235.0	2235.0	2231.0	2231.0	2231.0	2218.0	2218.0	2205.0	2205.0	2205.0	2202.0	2202.0	2204.0	2204.0	2191.0	2191.0	2191.0	2179.0	2179.0	2184.0	2184.0	2184.0	2162.0	2162.0	2158.0	2158.0	2158.0	2162.0	2162.0	2152.0	2152.0	2152.0	2136.0	2136.0	2115.0	2115.0	2115.0	2147.0	2147.0	2120.0	2120.0	2120.0	2097.0	2097.0	2087.0	2087.0	2087.0	2129.0	2129.0	2086.0	2086.0	2086.0	2093.0	2093.0	2097.0	2097.0	2097.0	2071.0	2071.0	2077.0	2077.0	2077.0	2081.0	2081.0	2063.0	2063.0	2063.0	2075.0	2075.0	2067.0	2067.0	2067.0	2040.0	2040.0	2057.0	2057.0	2057.0	2058.0	2058.0	2041.0	2041.0	2041.0	2036.0	2036.0	2056.0	2056.0	2056.0	2032.0	2032.0	2030.0	2030.0	2030.0	2040.0	2040.0	2035.0	2035.0	2035.0	2034.0	2034.0	2015.0	2015.0	2015.0	2013.0	2013.0	2023.0	2023.0	2023.0	2009.0	2009.0	1999.0	1999.0	1999.0	1996.0	1996.0	2020.0	2020.0	2020.0	2009.0	2009.0	1999.0	1999.0	1999.0	1994.0	1994.0	1998.0	1998.0	1998.0	1990.0	1990.0	1996.0	1996.0	1996.0	1992.0	1992.0	1993.0	1993.0	1993.0	1999.0	1999.0	1988.0	1988.0	1988.0	1992.0	1992.0	1967.0	1967.0	1967.0	1975.0	1975.0	1993.0	1993.0	1993.0	1995.0	1995.0	1959.0	1959.0	1959.0	1985.0	1985.0	1951.0	1951.0	1951.0	1944.0	1944.0	1945.0	1945.0	1945.0	1966.0	1966.0	1962.0	1962.0	1962.0	1950.0	1950.0	1963.0	1963.0	1963.0	1955.0	1955.0	1964.0	1964.0	1964.0	1947.0	1947.0	1932.0	1932.0	1932.0	1943.0	1943.0	1930.0	1930.0	1930.0	1957.0	1957.0	1949.0	1949.0	1949.0	1938.0	1938.0	1954.0	1954.0	1954.0	1941.0	1941.0	1935.0	1935.0	1935.0	1965.0	1965.0	1929.0	1929.0	1929.0	1928.0	1928.0	1909.0	1909.0	1938.0	1938.0	1938.0	1914.0	1914.0	1896.0	1896.0	1896.0	1919.0	1919.0	1902.0	1902.0	1902.0	1906.0	1906.0	1912.0	1912.0	1912.0	1901.0	1901.0	1913.0	1913.0	1913.0	1882.0	1882.0	1916.0	1916.0	1916.0	1894.0	1894.0	1920.0	1920.0	1920.0	1898.0	1898.0	1902.0	1902.0	1902.0	1879.0	1879.0	1921.0	1921.0	1921.0	1877.0	1877.0	1877.0	1877.0	1877.0	1894.0	1894.0	1918.0	1918.0	1918.0	1901.0	1901.0	1907.0	1907.0	1907.0	1890.0	1890.0	1889.0	1889.0	1889.0	1881.0	1881.0	1875.0	1875.0	1875.0	1860.0	1860.0	1863.0	1863.0	1863.0	1887.0	1887.0	1862.0	1862.0	1862.0	1893.0	1893.0	1883.0	1883.0	1883.0	1881.0	1881.0	1864.0	1864.0	1864.0	1867.0	1867.0	1863.0	1863.0	1863.0	1861.0	1861.0	1858.0	1858.0	1858.0	1868.0	1868.0	1857.0	1857.0	1857.0	1859.0	1859.0	1856.0	1856.0	1856.0	1871.0	1871.0	1844.0	1844.0	1844.0	1852.0	1852.0	1856.0	1856.0	1856.0	1840.0	1840.0	1840.0	1840.0	1840.0	1849.0	1849.0	1837.0	1837.0	1837.0	1840.0	1840.0	1830.0	1830.0	1830.0	1851.0	1851.0	1844.0	1844.0	1844.0	1855.0	1855.0	1847.0	1847.0	1847.0	1859.0	1859.0	1847.0	1847.0	1847.0	1842.0	1842.0	1836.0	1836.0	1836.0	1824.0	1824.0	1819.0	1819.0	1819.0	1818.0	1818.0	1835.0	1835.0	1835.0	1835.0	1835.0	1821.0	1821.0	1821.0	1831.0	1831.0	1814.0	1814.0	1814.0	1820.0	1820.0	1823.0	1823.0	1823.0	1847.0	1847.0	1830.0	1830.0	1830.0	1836.0	1836.0	1815.0	1815.0	1815.0	1845.0	1845.0	1822.0	1822.0	1822.0	1807.0	1807.0	1806.0	1806.0	1806.0	1846.0	1846.0	1821.0	1821.0	1821.0	1806.0	1806.0	1819.0	1819.0	1811.0	1811.0	1811.0	1810.0	1810.0	1814.0	1814.0	1814.0	1824.0	1824.0	1817.0	1817.0	1817.0	1843.0	1843.0	1818.0	1818.0	1818.0	1807.0	1807.0	1811.0	1811.0	1811.0	1810.0	1810.0	1832.0	1832.0	1832.0	1807.0	1807.0	1813.0	1813.0	1813.0	1810.0	1810.0	1807.0	1807.0	1807.0	1807.0	1807.0	1829.0	1829.0	1829.0	1822.0	1822.0	1823.0	1823.0	1823.0	1832.0	1832.0	1801.0	1801.0	1801.0	1815.0	1815.0	1800.0	1800.0	1800.0	1825.0	1825.0	1799.0	1799.0	1799.0	1816.0	1816.0	1825.0	1825.0	1825.0	1819.0	1819.0	1810.0	1810.0	1810.0	1801.0	1801.0	1849.0	1849.0	1849.0	1812.0	1812.0	1797.0	1797.0	1797.0	1846.0	1846.0	1818.0	1818.0	1818.0	1799.0	1799.0	1804.0	1804.0	1804.0	1803.0	1803.0	1822.0	1822.0	1822.0	1815.0	1815.0	1815.0	1815.0	1815.0	1800.0	1800.0	1801.0	1801.0	1801.0	1806.0	1806.0	1800.0	1800.0	1800.0	1822.0	1822.0	1814.0	1814.0	1814.0	1810.0	1810.0	1837.0	1837.0	1837.0	1798.0	1798.0	1825.0	1825.0	1825.0	1814.0	1814.0	1832.0	1832.0	1832.0	1834.0	1834.0	1841.0	1841.0	1841.0	1833.0	1833.0	1835.0	1835.0	1835.0	1807.0	1807.0	1808.0	1808.0	1808.0	1819.0	1819.0	1831.0	1831.0	1831.0	1811.0	1811.0	1797.0	1797.0	1797.0	1835.0	1835.0	1800.0	1800.0	1800.0	1824.0	1824.0	1796.0	1796.0	1796.0	1818.0	1818.0	1801.0	1801.0	1801.0	1807.0	1807.0	1823.0	1823.0	1823.0	1801.0	1801.0	1832.0	1832.0	1832.0	1812.0	1812.0	1798.0	1798.0	1798.0	1812.0	1812.0	1817.0	1817.0	1817.0	1802.0	1802.0	1799.0	1799.0	1799.0	1810.0	1810.0	1833.0	1833.0	1819.0	1819.0	1819.0	1806.0	1806.0	1823.0	1823.0	1823.0	1827.0	1827.0	1823.0	1823.0	1823.0	1816.0	1816.0	1818.0	1818.0	1818.0	1800.0	1800.0	1807.0	1807.0	1807.0	1822.0	1822.0	1807.0	1807.0	1807.0	1805.0	1805.0	1817.0	1817.0	1817.0	1791.0	1791.0	1798.0	1798.0	1798.0	1828.0	1828.0	1813.0	1813.0	1813.0	1829.0	1829.0	1804.0	1804.0	1804.0	1801.0	1801.0	1821.0	1821.0	1821.0	1791.0	1791.0	1807.0	1807.0	1807.0	1821.0	1821.0	1823.0	1823.0	1823.0	1822.0	1822.0	1818.0	1818.0	1818.0	1815.0	1815.0	1805.0	1805.0	1805.0	1824.0	1824.0	1836.0	1836.0	1836.0	1799.0	1799.0	1808.0	1808.0	1808.0	1838.0	1838.0	1814.0	1814.0	1814.0	1820.0	1820.0	1852.0	1852.0	1852.0	1844.0	1844.0	1817.0	1817.0	1817.0	1827.0	1827.0	1852.0	1852.0	1852.0	1823.0	1823.0	1815.0	1815.0	1815.0	1844.0	1844.0	1817.0	1817.0	1817.0	1830.0	1830.0	1817.0	1817.0	1817.0	1823.0	1823.0	1841.0	1841.0	1841.0	1851.0	1851.0	1827.0	1827.0	1827.0	1833.0	1833.0	1839.0	1839.0	1839.0	1806.0	1806.0	1821.0	1821.0	1821.0	1841.0	1841.0	1818.0	1818.0	1818.0	1841.0	1841.0	1851.0	1851.0	1851.0	1813.0	1813.0	1831.0	1831.0	1831.0	1828.0	1828.0	1821.0	1821.0	1821.0	1822.0	1822.0	1839.0	1839.0	1839.0	1804.0	1804.0	1824.0	1824.0	1824.0	1848.0	1848.0	1812.0	1812.0	1812.0	1836.0	1836.0	1823.0	1823.0	1823.0	1820.0	1820.0	1827.0	1827.0	1827.0	1837.0	1837.0	1832.0	1832.0	1832.0	1817.0	1817.0	1825.0	1825.0	1825.0	1843.0	1843.0	1844.0	1844.0	1844.0	1819.0	1819.0	1863.0	1863.0	1878.0	1878.0	1878.0	1861.0	1861.0	1883.0	1883.0	1883.0	1859.0	1859.0	1874.0	1874.0	1874.0	1876.0	1876.0	1880.0	1880.0	1880.0	1906.0	1906.0	1938.0	1938.0	1938.0	1934.0	1934.0	1961.0	1961.0	1961.0	1963.0	1963.0	1975.0	1975.0	1975.0	1991.0	1991.0	2024.0	2024.0	2024.0	2004.0	2004.0	2015.0	2015.0	2015.0	2070.0	2070.0	2070.0	2070.0	2070.0	2077.0	2077.0	2079.0	2079.0	2079.0	2096.0	2096.0	2122.0	2122.0	2122.0	2143.0	2143.0	2149.0	2149.0	2149.0	2174.0	2174.0	2163.0	2163.0	2163.0	2200.0	2200.0	2200.0	2200.0	2200.0	2224.0	2224.0	2228.0	2228.0	2228.0	2244.0	2244.0	2279.0	2279.0	2279.0	2247.0	2247.0	2274.0	2274.0	2274.0	2312.0	2312.0	2310.0	2310.0	2310.0	2335.0	2335.0	2309.0	2309.0	2309.0	2333.0	2333.0	2336.0	2336.0	2336.0	2363.0	2363.0	2346.0	2346.0	2346.0	2349.0	2349.0	2375.0	2375.0	2375.0	2382.0	2382.0	2380.0	2380.0	2380.0	2418.0	2418.0	2401.0	2401.0	2401.0	2387.0	2387.0	2419.0	2419.0	2419.0	2418.0	2418.0	2417.0	2417.0	2417.0	2417.0	2417.0	2433.0	2433.0	2433.0	2437.0	2437.0	2416.0	2416.0	2416.0	2429.0	2429.0	2449.0	2449.0	2449.0	2455.0	2455.0	2455.0	2455.0	2455.0	2463.0	2463.0	2444.0	2444.0	2444.0	2457.0	2457.0	2447.0	2447.0	2447.0	2447.0	2447.0	2450.0	2450.0	2450.0	2458.0	2458.0	2462.0	2462.0	2462.0	2476.0	2476.0	2472.0	2472.0	2472.0	2452.0	2452.0	2461.0	2461.0	2461.0	2455.0	2455.0	2470.0	2470.0	2470.0	2478.0	2478.0	2462.0	2462.0	2462.0	2475.0	2475.0	2465.0	2465.0	2465.0	2460.0	2460.0	2473.0	2473.0	2473.0	2471.0	2471.0	2474.0	2474.0	2442.0	2442.0	2442.0	2465.0	2465.0	2458.0	2458.0	2458.0	2474.0	2474.0	2457.0	2457.0	2457.0	2456.0	2456.0	2442.0	2442.0	2442.0	2430.0	2430.0	2444.0	2444.0	2444.0	2436.0	2436.0	2438.0	2438.0	2438.0	2426.0	2426.0	2431.0	2431.0	2431.0	2408.0	2408.0	2416.0	2416.0	2416.0	2419.0	2419.0	2427.0	2427.0	2427.0	2429.0	2429.0	2399.0	2399.0	2399.0	2398.0	2398.0	2404.0	2404.0	2404.0	2390.0	2390.0	2391.0	2391.0	2391.0	2382.0	2382.0	2383.0	2383.0	2383.0	2378.0	2378.0	2409.0	2409.0	2409.0	2348.0	2348.0	2370.0	2370.0	2370.0	2350.0	2350.0	2339.0	2339.0	2339.0	2362.0	2362.0	2332.0	2332.0	2332.0	2337.0	2337.0	2329.0	2329.0	2329.0	2310.0	2310.0	2312.0	2312.0	2312.0	2305.0	2305.0	2296.0	2296.0	2296.0	2296.0	2296.0	2290.0	2290.0	2290.0	2264.0	2264.0	2262.0	2262.0	2262.0	2247.0	2247.0	2275.0	2275.0	2275.0	2244.0	2244.0	2233.0	2233.0	2233.0	2223.0	2223.0	2231.0	2231.0	2231.0	2225.0	2225.0	2196.0	2196.0	2196.0	2192.0	2192.0	2181.0	2181.0	2181.0	2187.0	2187.0	2164.0	2164.0	2164.0	2177.0	2177.0	2163.0	2163.0	2163.0	2144.0	2144.0	2140.0	2140.0	2140.0	2147.0	2147.0	2139.0	2139.0	2139.0	2140.0	2140.0	2135.0	2135.0	2135.0	2122.0	2122.0	2119.0	2119.0	2119.0	2119.0	2119.0	2122.0	2122.0	2122.0	2095.0	2095.0	2103.0	2103.0	2103.0	2108.0	2108.0	2094.0	2094.0	2094.0	2080.0	2080.0	2085.0	2085.0	2085.0	2078.0	2078.0	2065.0	2065.0	2065.0	2068.0	2068.0	2087.0	2087.0	2087.0	2056.0	2056.0	2060.0	2060.0	2060.0	2081.0	2081.0	2055.0	2055.0	2061.0	2061.0	2061.0	2054.0	2054.0	2062.0	2062.0	2062.0	2060.0	2060.0	2061.0	2061.0	2061.0	2027.0	2027.0	2069.0	2069.0	2069.0	2055.0	2055.0	2025.0	2025.0	2025.0	2056.0	2056.0	2031.0	2031.0	2031.0	2028.0	2028.0	2035.0	2035.0	2035.0	2030.0	2030.0	2041.0	2041.0	2041.0	2036.0	2036.0	1999.0	1999.0	1999.0	2006.0	2006.0	2032.0	2032.0	2032.0	2011.0	2011.0	2025.0	2025.0	2025.0	2004.0	2004.0	2001.0	2001.0	2001.0	2004.0	2004.0	2011.0	2011.0	2011.0	1992.0	1992.0	