1654.0	1654.0	1665.0	1665.0	1610.0	1610.0	1610.0	1660.0	1660.0	1594.0	1594.0	1618.0	1618.0	1618.0	1615.0	1615.0	1641.0	1641.0	1641.0	1641.0	1641.0	1663.0	1663.0	1663.0	1593.0	1593.0	1607.0	1607.0	1607.0	1630.0	1630.0	1639.0	1639.0	1639.0	1603.0	1603.0	1638.0	1638.0	1638.0	1652.0	1652.0	1578.0	1578.0	1578.0	1643.0	1643.0	1639.0	1639.0	1639.0	1599.0	1599.0	1577.0	1577.0	1577.0	1642.0	1642.0	1642.0	1642.0	1642.0	1630.0	1630.0	1643.0	1643.0	1643.0	1629.0	1629.0	1619.0	1619.0	1619.0	1646.0	1646.0	1597.0	1597.0	1597.0	1611.0	1611.0	1618.0	1618.0	1618.0	1587.0	1587.0	1598.0	1598.0	1598.0	1616.0	1616.0	1568.0	1568.0	1568.0	1633.0	1633.0	1573.0	1573.0	1573.0	1611.0	1611.0	1587.0	1587.0	1587.0	1621.0	1621.0	1618.0	1618.0	1618.0	1624.0	1624.0	1639.0	1639.0	1639.0	1568.0	1568.0	1566.0	1566.0	1566.0	1581.0	1581.0	1550.0	1550.0	1550.0	1556.0	1556.0	1551.0	1551.0	1551.0	1630.0	1630.0	1607.0	1607.0	1607.0	1620.0	1620.0	1563.0	1563.0	1563.0	1562.0	1562.0	1594.0	1594.0	1594.0	1583.0	1583.0	1629.0	1629.0	1629.0	1572.0	1572.0	1618.0	1618.0	1618.0	1557.0	1557.0	1569.0	1569.0	1569.0	1631.0	1631.0	1569.0	1569.0	1569.0	1599.0	1599.0	1584.0	1584.0	1584.0	1574.0	1574.0	1603.0	1603.0	1603.0	1607.0	1607.0	1624.0	1624.0	1624.0	1640.0	1640.0	1571.0	1571.0	1571.0	1623.0	1623.0	1642.0	1642.0	1642.0	1641.0	1641.0	1585.0	1585.0	1585.0	1653.0	1653.0	1586.0	1586.0	1586.0	1654.0	1654.0	1601.0	1601.0	1601.0	1640.0	1640.0	1653.0	1653.0	1653.0	1663.0	1663.0	1644.0	1644.0	1644.0	1684.0	1684.0	1697.0	1697.0	1697.0	1688.0	1688.0	1704.0	1704.0	1743.0	1743.0	1743.0	1717.0	1717.0	1739.0	1739.0	1739.0	1822.0	1822.0	1830.0	1830.0	1830.0	1856.0	1856.0	1858.0	1858.0	1858.0	1888.0	1888.0	1927.0	1927.0	1927.0	1919.0	1919.0	1957.0	1957.0	1957.0	1977.0	1977.0	1995.0	1995.0	1995.0	2009.0	2009.0	2013.0	2013.0	2013.0	2023.0	2023.0	2047.0	2047.0	2047.0	2081.0	2081.0	2104.0	2104.0	2104.0	2132.0	2132.0	2138.0	2138.0	2138.0	2143.0	2143.0	2192.0	2192.0	2192.0	2170.0	2170.0	2203.0	2203.0	2203.0	2253.0	2253.0	2274.0	2274.0	2274.0	2256.0	2256.0	2279.0	2279.0	2279.0	2258.0	2258.0	2280.0	2280.0	2280.0	2278.0	2278.0	2295.0	2295.0	2295.0	2342.0	2342.0	2342.0	2342.0	2342.0	2321.0	2321.0	2323.0	2323.0	2323.0	2335.0	2335.0	2360.0	2360.0	2360.0	2359.0	2359.0	2378.0	2378.0	2378.0	2363.0	2363.0	2418.0	2418.0	2418.0	2444.0	2444.0	2375.0	2375.0	2375.0	2383.0	2383.0	2395.0	2395.0	2395.0	2445.0	2445.0	2406.0	2406.0	2406.0	2472.0	2472.0	2408.0	2408.0	2408.0	2449.0	2449.0	2456.0	2456.0	2456.0	2442.0	2442.0	2459.0	2459.0	2459.0	2476.0	2476.0	2486.0	2486.0	2486.0	2434.0	2434.0	2494.0	2494.0	2494.0	2431.0	2431.0	2493.0	2493.0	2493.0	2496.0	2496.0	2490.0	2490.0	2490.0	2453.0	2453.0	2510.0	2510.0	2510.0	2447.0	2447.0	2447.0	2447.0	2447.0	2448.0	2448.0	2439.0	2439.0	2439.0	2519.0	2519.0	2519.0	2519.0	2519.0	2502.0	2502.0	2517.0	2517.0	2517.0	2446.0	2446.0	2461.0	2461.0	2461.0	2457.0	2457.0	2512.0	2512.0	2512.0	2467.0	2467.0	2447.0	2447.0	2447.0	2444.0	2444.0	2519.0	2519.0	2437.0	2437.0	2437.0	2489.0	2489.0	2499.0	2499.0	2499.0	2502.0	2502.0	2445.0	2445.0	2445.0	2477.0	2477.0	2436.0	2436.0	2436.0	2454.0	2454.0	2428.0	2428.0	2428.0	2427.0	2427.0	2411.0	2411.0	2411.0	2455.0	2455.0	2436.0	2436.0	2436.0	2418.0	2418.0	2414.0	2414.0	2414.0	2450.0	2450.0	2440.0	2440.0	2440.0	2390.0	2390.0	2389.0	2389.0	2389.0	2378.0	2378.0	2385.0	2385.0	2385.0	2343.0	2343.0	2352.0	2352.0	2352.0	2329.0	2329.0	2303.0	2303.0	2303.0	2300.0	2300.0	2364.0	2364.0	2364.0	2319.0	2319.0	2277.0	2277.0	2277.0	2260.0	2260.0	2303.0	2303.0	2303.0	2299.0	2299.0	2294.0	2294.0	2294.0	2269.0	2269.0	2219.0	2219.0	2219.0	2185.0	2185.0	2240.0	2240.0	2240.0	2201.0	2201.0	2222.0	2222.0	2222.0	2184.0	2184.0	2153.0	2153.0	2153.0	2125.0	2125.0	2129.0	2129.0	2129.0	2187.0	2187.0	2161.0	2161.0	2161.0	2095.0	2095.0	2103.0	2103.0	2103.0	2081.0	2081.0	2135.0	2135.0	2135.0	2120.0	2120.0	2074.0	2074.0	2074.0	2057.0	2057.0	2096.0	2096.0	2096.0	2042.0	2042.0	2080.0	2080.0	2080.0	2075.0	2075.0	1998.0	1998.0	1998.0	2019.0	2019.0	2051.0	2051.0	2051.0	2026.0	2026.0	2008.0	2008.0	2008.0	1970.0	1970.0	1959.0	1959.0	1959.0	1956.0	1956.0	1949.0	1949.0	1949.0	1943.0	1943.0	1947.0	1947.0	1947.0	1931.0	1931.0	1927.0	1927.0	1927.0	1936.0	1936.0	1969.0	1969.0	1969.0	1930.0	1930.0	1913.0	1913.0	1913.0	1931.0	1931.0	1886.0	1886.0	1886.0	1955.0	1955.0	1904.0	1904.0	1904.0	1868.0	1868.0	1909.0	1909.0	1909.0	1892.0	1892.0	1909.0	1909.0	1910.0	1910.0	1910.0	1901.0	1901.0	1895.0	1895.0	1895.0	1899.0	1899.0	1859.0	1859.0	1859.0	1847.0	1847.0	1823.0	1823.0	1823.0	1848.0	1848.0	1863.0	1863.0	1863.0	1857.0	1857.0	1806.0	1806.0	1806.0	1808.0	1808.0	1807.0	1807.0	1807.0	1849.0	1849.0	1836.0	1836.0	1836.0	1811.0	1811.0	1797.0	1797.0	1797.0	1843.0	1843.0	1843.0	1843.0	1843.0	1825.0	1825.0	1814.0	1814.0	1814.0	1823.0	1823.0	1761.0	1761.0	1761.0	1795.0	1795.0	1763.0	1763.0	1763.0	1805.0	1805.0	1818.0	1818.0	1818.0	1787.0	1787.0	1811.0	1811.0	1811.0	1797.0	1797.0	1741.0	1741.0	1741.0	1740.0	1740.0	1736.0	1736.0	1736.0	1794.0	1794.0	1731.0	1731.0	1731.0	1799.0	1799.0	1742.0	1742.0	1742.0	1743.0	1743.0	1786.0	1786.0	1786.0	1785.0	1785.0	1775.0	1775.0	1775.0	1748.0	1748.0	1757.0	1757.0	1757.0	1712.0	1712.0	1760.0	1760.0	1760.0	1707.0	1707.0	1761.0	1761.0	1761.0	1749.0	1749.0	1752.0	1752.0	1752.0	1694.0	1694.0	1731.0	1731.0	1731.0	1746.0	1746.0	1771.0	1771.0	1771.0	1764.0	1764.0	1713.0	1713.0	1713.0	1770.0	1770.0	1695.0	1695.0	1695.0	1685.0	1685.0	1705.0	1705.0	1705.0	1703.0	1703.0	1722.0	1722.0	1722.0	1720.0	1720.0	1687.0	1687.0	1687.0	1704.0	1704.0	1705.0	1705.0	1705.0	1742.0	1742.0	1685.0	1685.0	1685.0	1714.0	1714.0	1687.0	1687.0	1687.0	1695.0	1695.0	1692.0	1692.0	1692.0	1740.0	1740.0	1749.0	1749.0	1749.0	1724.0	1724.0	1720.0	1720.0	1720.0	1736.0	1736.0	1679.0	1679.0	1679.0	1716.0	1716.0	1729.0	1729.0	1729.0	1708.0	1708.0	1723.0	1723.0	1723.0	1679.0	1679.0	1747.0	1747.0	1708.0	1708.0	1708.0	1693.0	1693.0	1674.0	1674.0	1674.0	1712.0	1712.0	1706.0	1706.0	1706.0	1709.0	1709.0	1675.0	1675.0	1675.0	1735.0	1735.0	1729.0	1729.0	1729.0	1680.0	1680.0	1676.0	1676.0	1676.0	1738.0	1738.0	1681.0	1681.0	1681.0	1723.0	1723.0	1667.0	1667.0	1667.0	1681.0	1681.0	1679.0	1679.0	1679.0	1726.0	1726.0	1721.0	1721.0	1721.0	1702.0	1702.0	1743.0	1743.0	1743.0	1663.0	1663.0	1702.0	1702.0	1702.0	1680.0	1680.0	1714.0	1714.0	1714.0	1657.0	1657.0	1682.0	1682.0	1682.0	1722.0	1722.0	1700.0	1700.0	1700.0	1694.0	1694.0	1701.0	1701.0	1701.0	1675.0	1675.0	1670.0	1670.0	1670.0	1685.0	1685.0	1679.0	1679.0	1679.0	1728.0	1728.0	1730.0	1730.0	1730.0	1657.0	1657.0	1694.0	1694.0	1694.0	1677.0	1677.0	1694.0	1694.0	1694.0	1673.0	1673.0	1705.0	1705.0	1705.0	1687.0	1687.0	1666.0	1666.0	1666.0	1660.0	1660.0	1727.0	1727.0	1727.0	1718.0	1718.0	1686.0	1686.0	1686.0	1729.0	1729.0	1657.0	1657.0	1657.0	1684.0	1684.0	1658.0	1658.0	1658.0	1716.0	1716.0	1714.0	1714.0	1714.0	1706.0	1706.0	1730.0	1730.0	1730.0	1696.0	1696.0	1698.0	1698.0	1698.0	1659.0	1659.0	1679.0	1679.0	1679.0	1722.0	1722.0	1687.0	1687.0	1687.0	1706.0	1706.0	1657.0	1657.0	1657.0	1733.0	1733.0	1691.0	1691.0	1691.0	1696.0	1696.0	1674.0	1674.0	1674.0	1727.0	1727.0	1671.0	1671.0	1671.0	1706.0	1706.0	1689.0	1689.0	1689.0	1714.0	1714.0	1668.0	1668.0	1668.0	1714.0	1714.0	1695.0	1695.0	1695.0	1728.0	1728.0	1717.0	1717.0	1717.0	1727.0	1727.0	1692.0	1692.0	1647.0	1647.0	1647.0	1723.0	1723.0	1723.0	1723.0	1723.0	1688.0	1688.0	1714.0	1714.0	1714.0	1663.0	1663.0	1678.0	1678.0	1678.0	1720.0	1720.0	1659.0	1659.0	1659.0	1651.0	1651.0	1679.0	1679.0	1679.0	1701.0	1701.0	1658.0	1658.0	1658.0	1696.0	1696.0	1646.0	1646.0	1646.0	1649.0	1649.0	1654.0	1654.0	1654.0	1677.0	1677.0	1669.0	1669.0	1669.0	1719.0	1719.0	1724.0	1724.0	1724.0	1712.0	1712.0	1732.0	1732.0	1732.0	1693.0	1693.0	1737.0	1737.0	1737.0	1767.0	1767.0	1764.0	1764.0	1764.0	1751.0	1751.0	1771.0	1771.0	1771.0	1801.0	1801.0	1753.0	1753.0	1753.0	1791.0	1791.0	1776.0	1776.0	1776.0	1812.0	1812.0	1825.0	1825.0	1825.0	1831.0	1831.0	1893.0	1893.0	1893.0	1944.0	1944.0	1896.0	1896.0	1896.0	1919.0	1919.0	1931.0	1931.0	1931.0	2009.0	2009.0	2033.0	2033.0	2033.0	2008.0	2008.0	2035.0	2035.0	2035.0	2107.0	2107.0	2133.0	2133.0	2133.0	2123.0	2123.0	2148.0	2148.0	2148.0	2139.0	2139.0	2151.0	2151.0	2151.0	2165.0	2165.0	2228.0	2228.0	2228.0	2270.0	2270.0	2234.0	2234.0	2234.0	2303.0	2303.0	2307.0	2307.0	2307.0	2289.0	2289.0	2293.0	2293.0	2293.0	2332.0	2332.0	2321.0	2321.0	2321.0	2346.0	2346.0	2338.0	2338.0	2338.0	2343.0	2343.0	2366.0	2366.0	2366.0	2411.0	2411.0	2386.0	2386.0	2386.0	2409.0	2409.0	2400.0	2400.0	2400.0	2423.0	2423.0	2461.0	2461.0	2461.0	2425.0	2425.0	2499.0	2499.0	2499.0	2466.0	2466.0	2445.0	2445.0	2445.0	2459.0	2459.0	2468.0	2468.0	2468.0	2466.0	2466.0	2533.0	2533.0	2533.0	2476.0	2476.0	2523.0	2523.0	2523.0	2537.0	2537.0	2493.0	2493.0	2541.0	2541.0	2541.0	2502.0	2502.0	2568.0	2568.0	2568.0	2569.0	2569.0	2578.0	2578.0	2578.0	2550.0	2550.0	2517.0	2517.0	2517.0	2566.0	2566.0	2524.0	2524.0	2524.0	2520.0	2520.0	2567.0	2567.0	2567.0	2531.0	2531.0	2532.0	2532.0	2532.0	2530.0	2530.0	2577.0	2577.0	2577.0	2596.0	2596.0	2561.0	2561.0	2561.0	2576.0	2576.0	2566.0	2566.0	2566.0	2575.0	2575.0	2538.0	2538.0	2538.0	2552.0	2552.0	2605.0	2605.0	2605.0	2581.0	2581.0	2556.0	2556.0	2556.0	2575.0	2575.0	2584.0	2584.0	2584.0	2594.0	2594.0	2551.0	2551.0	2551.0	2572.0	2572.0	2564.0	2564.0	2564.0	2594.0	2594.0	2588.0	2588.0	2588.0	2538.0	2538.0	2535.0	2535.0	2535.0	2566.0	2566.0	2556.0	2556.0	2556.0	2575.0	2575.0	2521.0	2521.0	2521.0	2558.0	2558.0	2542.0	2542.0	2542.0	2551.0	2551.0	2510.0	2510.0	2510.0	2501.0	2501.0	2495.0	2495.0	2495.0	2501.0	2501.0	2488.0	2488.0	2488.0	2509.0	2509.0	2470.0	2470.0	2470.0	2481.0	2481.0	2452.0	2452.0	2452.0	2496.0	2496.0	2438.0	2438.0	2438.0	2477.0	2477.0	2470.0	2470.0	2470.0	2416.0	2416.0	2437.0	2437.0	2437.0	2456.0	2456.0	2448.0	2448.0	2448.0	2412.0	2412.0	2408.0	2408.0	2408.0	2411.0	2411.0	2422.0	2422.0	2422.0	2393.0	2393.0	2340.0	2340.0	2340.0	2328.0	2328.0	2384.0	2384.0	2384.0	2359.0	2359.0	2363.0	2363.0	2363.0	2307.0	2307.0	2302.0	2302.0	2302.0	2350.0	2350.0	2332.0	2332.0	2332.0	2274.0	2274.0	2268.0	2268.0	2268.0	2267.0	2267.0	2302.0	2302.0	2302.0	2296.0	2296.0	2267.0	2267.0	2267.0	2231.0	2231.0	2243.0	2243.0	2278.0	2278.0	2278.0	2277.0	2277.0	2217.0	2217.0	2217.0	2191.0	2191.0	2205.0	2205.0	2205.0	2195.0	2195.0	2252.0	2252.0	2252.0	2176.0	2176.0	2177.0	2177.0	2177.0	2176.0	2176.0	2165.0	2165.0	2165.0	2218.0	2218.0	2156.0	2156.0	2156.0	2179.0	2179.0	2151.0	2151.0	2151.0	2207.0	2207.0	2193.0	2193.0	2193.0	2134.0	2134.0	2132.0	2132.0	2132.0	2131.0	2131.0	2163.0	2163.0	2163.0	2186.0	2186.0	2184.0	2184.0	2184.0	2106.0	2106.0	2109.0	2109.0	2109.0	2108.0	2108.0	2099.0	2099.0	2099.0	2163.0	2163.0	2109.0	2109.0	2109.0	2115.0	2115.0	2153.0	2153.0	2153.0	2077.0	2077.0	2155.0	2155.0	2155.0	2071.0	2071.0	2106.0	2106.0	2106.0	2100.0	2100.0	2096.0	2096.0	2096.0	2137.0	2137.0	2051.0	2051.0	2051.0	2054.0	2054.0	2036.0	2036.0	2036.0	2105.0	2105.0	2045.0	2045.0	2045.0	2088.0	2088.0	2094.0	2094.0	2094.0	2049.0	2049.0	2086.0	2086.0	2086.0	2030.0	2030.0	2019.0	2019.0	2019.0	2008.0	2008.0	2042.0	2042.0	2042.0	2078.0	2078.0	2000.0	2000.0	2000.0	2004.0	2004.0	1993.0	1993.0	1993.0	1997.0	1997.0	2040.0	2040.0	2040.0	1992.0	1992.0	2010.0	2010.0	2010.0	1984.0	1984.0	2007.0	2007.0	2007.0	1996.0	1996.0	2015.0	2015.0	2015.0	2035.0	2035.0	2026.0	2026.0	2026.0	1967.0	1967.0	1973.0	1973.0	1973.0	1964.0	1964.0	2019.0	2019.0	2019.0	1957.0	1957.0	1970.0	1970.0	1970.0	1951.0	1951.0	1950.0	1950.0	1950.0	1954.0	1954.0	1936.0	1936.0	1936.0	1932.0	1932.0	1996.0	1996.0	1996.0	1969.0	1969.0	1990.0	1990.0	1990.0	1987.0	1987.0	1932.0	1932.0	1926.0	1926.0	1926.0	1981.0	1981.0	1912.0	1912.0	1912.0	1916.0	1916.0	1940.0	1940.0	1940.0	1971.0	1971.0	1975.0	1975.0	1975.0	1966.0	1966.0	1949.0	1949.0	1949.0	1892.0	1892.0	1928.0	1928.0	1928.0	1952.0	1952.0	1959.0	1959.0	1959.0	1900.0	1900.0	1898.0	1898.0	1898.0	1913.0	1913.0	1886.0	1886.0	1886.0	1924.0	1924.0	1924.0	1924.0	1924.0	1904.0	1904.0	1878.0	1878.0	1878.0	1909.0	1909.0	1854.0	1854.0	1854.0	1933.0	1933.0	1867.0	1867.0	1867.0	1894.0	1894.0	1919.0	1919.0	1919.0	1884.0	1884.0	1840.0	1840.0	1840.0	1837.0	1837.0	1897.0	1897.0	1897.0	1875.0	1875.0	1837.0	1837.0	1837.0	1880.0	1880.0	1834.0	1834.0	1834.0	1827.0	1827.0	1895.0	1895.0	1895.0	1848.0	1848.0	1873.0	1873.0	1873.0	1883.0	1883.0	1875.0	1875.0	1875.0	1882.0	1882.0	1803.0	1803.0	1803.0	1830.0	1830.0	1846.0	1846.0	1846.0	1827.0	1827.0	1798.0	1798.0	1798.0	1832.0	1832.0	1858.0	1858.0	1858.0	1791.0	1791.0	1824.0	1824.0	1824.0	1859.0	1859.0	1814.0	1814.0	1814.0	1802.0	1802.0	1855.0	1855.0	1855.0	1819.0	1819.0	1840.0	1840.0	1840.0	1789.0	1789.0	1803.0	1803.0	1803.0	1849.0	1849.0	1839.0	1839.0	1839.0	1835.0	1835.0	1812.0	1812.0	1812.0	1774.0	1774.0	1780.0	1780.0	1780.0	1812.0	1812.0	1767.0	1767.0	1767.0	1818.0	1818.0	1828.0	1828.0	1828.0	1783.0	1783.0	1813.0	1813.0	1813.0	1800.0	1800.0	1771.0	1771.0	1771.0	1790.0	1790.0	1817.0	1817.0	1817.0	1752.0	1752.0	1795.0	1795.0	1795.0	1758.0	1758.0	1762.0	1762.0	1762.0	1800.0	1800.0	1793.0	1793.0	1793.0	1799.0	1799.0	1786.0	1786.0	1763.0	1763.0	1763.0	1801.0	1801.0	1764.0	1764.0	1764.0	1742.0	1742.0	1775.0	1775.0	1775.0	1748.0	1748.0	1728.0	1728.0	1728.0	1755.0	1755.0	1780.0	1780.0	1780.0	1730.0	1730.0	1744.0	1744.0	1744.0	1763.0	1763.0	1791.0	1791.0	1791.0	1805.0	1805.0	1778.0	1778.0	1778.0	1727.0	1727.0	1743.0	1743.0	1743.0	1758.0	1758.0	1740.0	1740.0	1740.0	1767.0	1767.0	1760.0	1760.0	1760.0	1760.0	1760.0	1706.0	1706.0	1706.0	1731.0	1731.0	1786.0	1786.0	1786.0	1734.0	1734.0	1767.0	1767.0	1767.0	1726.0	1726.0	1779.0	1779.0	1779.0	1739.0	1739.0	1766.0	1766.0	1766.0	1707.0	1707.0	1754.0	1754.0	1754.0	1727.0	1727.0	1772.0	1772.0	1772.0	1776.0	1776.0	1782.0	1782.0	1782.0	1719.0	1719.0	1726.0	1726.0	1726.0	1787.0	1787.0	1741.0	1741.0	1741.0	1756.0	1756.0	1789.0	1789.0	1789.0	1792.0	1792.0	1803.0	1803.0	1803.0	1737.0	1737.0	1748.0	1748.0	1748.0	1771.0	1771.0	1775.0	1775.0	1775.0	1834.0	1834.0	1852.0	1852.0	1852.0	1871.0	1871.0	1813.0	1813.0	1813.0	1898.0	1898.0	1917.0	1917.0	1917.0	1861.0	1861.0	1943.0	1943.0	1943.0	1897.0	1897.0	1908.0	1908.0	1908.0	2000.0	2000.0	1950.0	1950.0	1950.0	2039.0	2039.0	2049.0	2049.0	2049.0	2015.0	2015.0	2021.0	2021.0	2021.0	2050.0	2050.0	2086.0	2086.0	2086.0	2099.0	2099.0	2128.0	2128.0	2128.0	2117.0	2117.0	2135.0	2135.0	2135.0	2210.0	2210.0	2184.0	2184.0	2184.0	2211.0	2211.0	2205.0	2205.0	2205.0	2235.0	2235.0	2225.0	2225.0	2225.0	2241.0	2241.0	2250.0	2250.0	2250.0	2267.0	2267.0	2271.0	2271.0	2298.0	2298.0	2298.0	2295.0	2295.0	2349.0	2349.0	2349.0	2374.0	2374.0	2317.0	2317.0	2317.0	2342.0	2342.0	2398.0	2398.0	2398.0	2384.0	2384.0	2356.0	2356.0	2356.0	2411.0	2411.0	2399.0	2399.0	2399.0	2427.0	2427.0	2420.0	2420.0	2420.0	2405.0	2405.0	2439.0	2439.0	2439.0	2443.0	2443.0	2439.0	2439.0	2439.0	2459.0	2459.0	2410.0	2410.0	2410.0	2460.0	