1722.0	1722.0	1641.0	1641.0	1713.0	1713.0	1713.0	1716.0	1716.0	1667.0	1667.0	1667.0	1720.0	1720.0	1652.0	1652.0	1652.0	1646.0	1646.0	1678.0	1678.0	1678.0	1641.0	1641.0	1718.0	1718.0	1718.0	1661.0	1661.0	1639.0	1639.0	1639.0	1721.0	1721.0	1720.0	1720.0	1720.0	1695.0	1695.0	1703.0	1703.0	1703.0	1655.0	1655.0	1662.0	1662.0	1662.0	1652.0	1652.0	1719.0	1719.0	1719.0	1654.0	1654.0	1703.0	1703.0	1703.0	1681.0	1681.0	1696.0	1696.0	1696.0	1650.0	1650.0	1667.0	1667.0	1667.0	1707.0	1707.0	1679.0	1679.0	1679.0	1720.0	1720.0	1640.0	1640.0	1640.0	1641.0	1641.0	1657.0	1657.0	1657.0	1716.0	1716.0	1643.0	1643.0	1643.0	1708.0	1708.0	1724.0	1724.0	1724.0	1643.0	1643.0	1699.0	1699.0	1699.0	1695.0	1695.0	1695.0	1695.0	1695.0	1653.0	1653.0	1686.0	1686.0	1686.0	1644.0	1644.0	1695.0	1695.0	1695.0	1638.0	1638.0	1632.0	1632.0	1632.0	1605.0	1605.0	1603.0	1603.0	1603.0	1636.0	1636.0	1624.0	1624.0	1624.0	1598.0	1598.0	1609.0	1609.0	1609.0	1645.0	1645.0	1591.0	1591.0	1591.0	1667.0	1667.0	1651.0	1651.0	1651.0	1665.0	1665.0	1663.0	1663.0	1663.0	1594.0	1594.0	1626.0	1626.0	1665.0	1665.0	1665.0	1691.0	1691.0	1621.0	1621.0	1621.0	1629.0	1629.0	1649.0	1649.0	1649.0	1663.0	1663.0	1753.0	1753.0	1753.0	1761.0	1761.0	1753.0	1753.0	1753.0	1732.0	1732.0	1752.0	1752.0	1752.0	1770.0	1770.0	1803.0	1803.0	1803.0	1847.0	1847.0	1929.0	1929.0	1929.0	1906.0	1906.0	1949.0	1949.0	1949.0	1984.0	1984.0	1995.0	1995.0	1995.0	1981.0	1981.0	2044.0	2044.0	2044.0	2039.0	2039.0	2076.0	2076.0	2076.0	2123.0	2123.0	2176.0	2176.0	2176.0	2207.0	2207.0	2158.0	2158.0	2158.0	2235.0	2235.0	2227.0	2227.0	2227.0	2276.0	2276.0	2287.0	2287.0	2287.0	2335.0	2335.0	2293.0	2293.0	2293.0	2380.0	2380.0	2352.0	2352.0	2352.0	2355.0	2355.0	2348.0	2348.0	2348.0	2355.0	2355.0	2396.0	2396.0	2396.0	2438.0	2438.0	2437.0	2437.0	2437.0	2423.0	2423.0	2450.0	2450.0	2450.0	2482.0	2482.0	2428.0	2428.0	2428.0	2506.0	2506.0	2438.0	2438.0	2438.0	2468.0	2468.0	2491.0	2491.0	2491.0	2455.0	2455.0	2498.0	2498.0	2498.0	2451.0	2451.0	2470.0	2470.0	2470.0	2496.0	2496.0	2472.0	2472.0	2472.0	2536.0	2536.0	2540.0	2540.0	2540.0	2504.0	2504.0	2500.0	2500.0	2500.0	2508.0	2508.0	2465.0	2465.0	2465.0	2508.0	2508.0	2473.0	2473.0	2473.0	2486.0	2486.0	2517.0	2517.0	2517.0	2501.0	2501.0	2505.0	2505.0	2505.0	2459.0	2459.0	2518.0	2518.0	2518.0	2475.0	2475.0	2526.0	2526.0	2526.0	2455.0	2455.0	2466.0	2466.0	2466.0	2455.0	2455.0	2532.0	2532.0	2532.0	2466.0	2466.0	2456.0	2456.0	2456.0	2524.0	2524.0	2454.0	2454.0	2454.0	2463.0	2463.0	2502.0	2502.0	2482.0	2482.0	2482.0	2474.0	2474.0	2486.0	2486.0	2486.0	2461.0	2461.0	2506.0	2506.0	2506.0	2464.0	2464.0	2478.0	2478.0	2478.0	2455.0	2455.0	2504.0	2504.0	2504.0	2472.0	2472.0	2460.0	2460.0	2460.0	2512.0	2512.0	2475.0	2475.0	2475.0	2506.0	2506.0	2445.0	2445.0	2445.0	2482.0	2482.0	2440.0	2440.0	2440.0	2446.0	2446.0	2482.0	2482.0	2482.0	2480.0	2480.0	2397.0	2397.0	2397.0	2393.0	2393.0	2391.0	2391.0	2391.0	2441.0	2441.0	2365.0	2365.0	2365.0	2359.0	2359.0	2379.0	2379.0	2379.0	2363.0	2363.0	2333.0	2333.0	2333.0	2361.0	2361.0	2356.0	2356.0	2356.0	2276.0	2276.0	2266.0	2266.0	2266.0	2321.0	2321.0	2239.0	2239.0	2239.0	2244.0	2244.0	2254.0	2254.0	2254.0	2218.0	2218.0	2205.0	2205.0	2205.0	2256.0	2256.0	2185.0	2185.0	2185.0	2169.0	2169.0	2150.0	2150.0	2150.0	2215.0	2215.0	2215.0	2215.0	2215.0	2146.0	2146.0	2121.0	2121.0	2121.0	2122.0	2122.0	2174.0	2174.0	2174.0	2101.0	2101.0	2136.0	2136.0	2136.0	2103.0	2103.0	2168.0	2168.0	2168.0	2127.0	2127.0	2082.0	2082.0	2082.0	2112.0	2112.0	2103.0	2103.0	2103.0	2069.0	2069.0	2090.0	2090.0	2090.0	2058.0	2058.0	2094.0	2094.0	2094.0	2075.0	2075.0	2136.0	2136.0	2136.0	2094.0	2094.0	2102.0	2102.0	2102.0	2051.0	2051.0	2062.0	2062.0	2062.0	2049.0	2049.0	2034.0	2034.0	2034.0	2022.0	2022.0	2037.0	2037.0	2037.0	2047.0	2047.0	2080.0	2080.0	2080.0	2079.0	2079.0	2070.0	2070.0	2070.0	2073.0	2073.0	2070.0	2070.0	2070.0	2006.0	2006.0	2079.0	2079.0	2079.0	2039.0	2039.0	2011.0	2011.0	1999.0	1999.0	1999.0	2052.0	2052.0	2036.0	2036.0	2036.0	2056.0	2056.0	2048.0	2048.0	2048.0	2030.0	2030.0	2009.0	2009.0	2009.0	1961.0	1961.0	1984.0	1984.0	1984.0	2018.0	2018.0	1951.0	1951.0	1951.0	1992.0	1992.0	1962.0	1962.0	1962.0	1936.0	1936.0	1940.0	1940.0	1940.0	1965.0	1965.0	1992.0	1992.0	1992.0	1995.0	1995.0	1995.0	1995.0	1995.0	1916.0	1916.0	1909.0	1909.0	1909.0	1959.0	1959.0	1967.0	1967.0	1967.0	1911.0	1911.0	1891.0	1891.0	1891.0	1916.0	1916.0	1897.0	1897.0	1897.0	1887.0	1887.0	1914.0	1914.0	1914.0	1882.0	1882.0	1880.0	1880.0	1880.0	1856.0	1856.0	1926.0	1926.0	1926.0	1856.0	1856.0	1914.0	1914.0	1914.0	1904.0	1904.0	1842.0	1842.0	1842.0	1858.0	1858.0	1863.0	1863.0	1863.0	1849.0	1849.0	1836.0	1836.0	1836.0	1823.0	1823.0	1882.0	1882.0	1882.0	1809.0	1809.0	1825.0	1825.0	1825.0	1837.0	1837.0	1826.0	1826.0	1826.0	1810.0	1810.0	1836.0	1836.0	1836.0	1848.0	1848.0	1844.0	1844.0	1844.0	1786.0	1786.0	1843.0	1843.0	1843.0	1762.0	1762.0	1792.0	1792.0	1792.0	1754.0	1754.0	1769.0	1769.0	1769.0	1782.0	1782.0	1821.0	1821.0	1821.0	1759.0	1759.0	1736.0	1736.0	1736.0	1773.0	1773.0	1780.0	1780.0	1780.0	1777.0	1777.0	1728.0	1728.0	1728.0	1787.0	1787.0	1798.0	1798.0	1798.0	1774.0	1774.0	1734.0	1734.0	1734.0	1767.0	1767.0	1716.0	1716.0	1716.0	1777.0	1777.0	1794.0	1794.0	1794.0	1739.0	1739.0	1751.0	1751.0	1751.0	1738.0	1738.0	1779.0	1779.0	1779.0	1739.0	1739.0	1790.0	1790.0	1790.0	1770.0	1770.0	1713.0	1713.0	1713.0	1786.0	1786.0	1790.0	1790.0	1706.0	1706.0	1706.0	1776.0	1776.0	1750.0	1750.0	1750.0	1713.0	1713.0	1764.0	1764.0	1764.0	1766.0	1766.0	1761.0	1761.0	1761.0	1742.0	1742.0	1740.0	1740.0	1740.0	1701.0	1701.0	1764.0	1764.0	1764.0	1740.0	1740.0	1706.0	1706.0	1706.0	1780.0	1780.0	1750.0	1750.0	1750.0	1709.0	1709.0	1722.0	1722.0	1722.0	1755.0	1755.0	1704.0	1704.0	1704.0	1772.0	1772.0	1788.0	1788.0	1788.0	1746.0	1746.0	1751.0	1751.0	1751.0	1700.0	1700.0	1762.0	1762.0	1762.0	1761.0	1761.0	1761.0	1761.0	1761.0	1699.0	1699.0	1710.0	1710.0	1710.0	1769.0	1769.0	1694.0	1694.0	1694.0	1747.0	1747.0	1765.0	1765.0	1765.0	1767.0	1767.0	1751.0	1751.0	1751.0	1696.0	1696.0	1690.0	1690.0	1690.0	1768.0	1768.0	1761.0	1761.0	1761.0	1772.0	1772.0	1714.0	1714.0	1714.0	1754.0	1754.0	1711.0	1711.0	1711.0	1734.0	1734.0	1760.0	1760.0	1760.0	1700.0	1700.0	1687.0	1687.0	1687.0	1744.0	1744.0	1753.0	1753.0	1753.0	1752.0	1752.0	1747.0	1747.0	1747.0	1676.0	1676.0	1744.0	1744.0	1744.0	1682.0	1682.0	1669.0	1669.0	1669.0	1720.0	1720.0	1706.0	1706.0	1706.0	1680.0	1680.0	1750.0	1750.0	1750.0	1725.0	1725.0	1686.0	1686.0	1686.0	1670.0	1670.0	1744.0	1744.0	1744.0	1724.0	1724.0	1727.0	1727.0	1727.0	1680.0	1680.0	1734.0	1734.0	1734.0	1669.0	1669.0	1665.0	1665.0	1665.0	1733.0	1733.0	1664.0	1664.0	1664.0	1662.0	1662.0	1670.0	1670.0	1670.0	1732.0	1732.0	1668.0	1668.0	1668.0	1658.0	1658.0	1646.0	1646.0	1646.0	1655.0	1655.0	1731.0	1731.0	1731.0	1726.0	1726.0	1671.0	1671.0	1648.0	1648.0	1648.0	1680.0	1680.0	1698.0	1698.0	1698.0	1662.0	1662.0	1732.0	1732.0	1732.0	1682.0	1682.0	1665.0	1665.0	1665.0	1688.0	1688.0	1730.0	1730.0	1730.0	1720.0	1720.0	1680.0	1680.0	1680.0	1722.0	1722.0	1673.0	1673.0	1673.0	1731.0	1731.0	1734.0	1734.0	1734.0	1756.0	1756.0	1784.0	1784.0	1784.0	1718.0	1718.0	1754.0	1754.0	1754.0	1799.0	1799.0	1777.0	1777.0	1777.0	1784.0	1784.0	1863.0	1863.0	1863.0	1827.0	1827.0	1899.0	1899.0	1899.0	1858.0	1858.0	1930.0	1930.0	1930.0	1972.0	1972.0	1971.0	1971.0	1971.0	1999.0	1999.0	2042.0	2042.0	2042.0	2058.0	2058.0	2096.0	2096.0	2096.0	2111.0	2111.0	2121.0	2121.0	2121.0	2123.0	2123.0	2131.0	2131.0	2131.0	2158.0	2158.0	2168.0	2168.0	2168.0	2195.0	2195.0	2292.0	2292.0	2292.0	2246.0	2246.0	2339.0	2339.0	2339.0	2353.0	2353.0	2361.0	2361.0	2361.0	2314.0	2314.0	2349.0	2349.0	2349.0	2377.0	2377.0	2365.0	2365.0	2365.0	2448.0	2448.0	2417.0	2417.0	2417.0	2473.0	2473.0	2424.0	2424.0	2424.0	2499.0	2499.0	2506.0	2506.0	2506.0	2488.0	2488.0	2538.0	2538.0	2538.0	2470.0	2470.0	2471.0	2471.0	2471.0	2534.0	2534.0	2513.0	2513.0	2513.0	2491.0	2491.0	2532.0	2532.0	2532.0	2512.0	2512.0	2571.0	2571.0	2571.0	2561.0	2561.0	2573.0	2573.0	2573.0	2514.0	2514.0	2521.0	2521.0	2521.0	2587.0	2587.0	2506.0	2506.0	2506.0	2575.0	2575.0	2514.0	2514.0	2514.0	2510.0	2510.0	2497.0	2497.0	2497.0	2507.0	2507.0	2538.0	2538.0	2538.0	2523.0	2523.0	2546.0	2546.0	2546.0	2545.0	2545.0	2507.0	2507.0	2507.0	2546.0	2546.0	2502.0	2502.0	2500.0	2500.0	2500.0	2554.0	2554.0	2559.0	2559.0	2559.0	2525.0	2525.0	2550.0	2550.0	2550.0	2489.0	2489.0	2498.0	2498.0	2498.0	2510.0	2510.0	2559.0	2559.0	2559.0	2554.0	2554.0	2475.0	2475.0	2475.0	2481.0	2481.0	2467.0	2467.0	2467.0	2537.0	2537.0	2474.0	2474.0	2474.0	2475.0	2475.0	2461.0	2461.0	2461.0	2497.0	2497.0	2452.0	2452.0	2452.0	2466.0	2466.0	2447.0	2447.0	2447.0	2454.0	2454.0	2425.0	2425.0	2425.0	2491.0	2491.0	2430.0	2430.0	2430.0	2411.0	2411.0	2421.0	2421.0	2421.0	2463.0	2463.0	2461.0	2461.0	2461.0	2367.0	2367.0	2367.0	2367.0	2367.0	2403.0	2403.0	2346.0	2346.0	2346.0	2335.0	2335.0	2339.0	2339.0	2339.0	2335.0	2335.0	2334.0	2334.0	2334.0	2303.0	2303.0	2313.0	2313.0	2313.0	2285.0	2285.0	2297.0	2297.0	2297.0	2332.0	2332.0	2293.0	2293.0	2293.0	2252.0	2252.0	2226.0	2226.0	2226.0	2271.0	2271.0	2207.0	2207.0	2207.0	2232.0	2232.0	2190.0	2190.0	2190.0	2253.0	2253.0	2216.0	2216.0	2216.0	2216.0	2216.0	2143.0	2143.0	2143.0	2211.0	2211.0	2118.0	2118.0	2118.0	2119.0	2119.0	2169.0	2169.0	2169.0	2121.0	2121.0	2090.0	2090.0	2090.0	2085.0	2085.0	2095.0	2095.0	2095.0	2078.0	2078.0	2124.0	2124.0	2124.0	2120.0	2120.0	2123.0	2123.0	2123.0	2079.0	2079.0	2070.0	2070.0	2070.0	2118.0	2118.0	2091.0	2091.0	2091.0	2034.0	2034.0	2023.0	2023.0	2023.0	2023.0	2023.0	2070.0	2070.0	2070.0	2009.0	2009.0	2086.0	2086.0	2086.0	2011.0	2011.0	2055.0	2055.0	2055.0	2012.0	2012.0	2005.0	2005.0	2005.0	1995.0	1995.0	1997.0	1997.0	2003.0	2003.0	2003.0	1985.0	1985.0	2015.0	2015.0	2015.0	1967.0	1967.0	1984.0	1984.0	1984.0	2001.0	2001.0	1985.0	1985.0	1985.0	2007.0	2007.0	2030.0	2030.0	2030.0	1977.0	1977.0	1960.0	1960.0	1960.0	1941.0	1941.0	2018.0	2018.0	2018.0	1945.0	1945.0	1984.0	1984.0	1984.0	1980.0	1980.0	2006.0	2006.0	2006.0	1953.0	1953.0	1974.0	1974.0	1974.0	1970.0	1970.0	1971.0	1971.0	1971.0	1922.0	1922.0	1980.0	1980.0	1980.0	1926.0	1926.0	1911.0	1911.0	1911.0	1905.0	1905.0	1971.0	1971.0	1971.0	1948.0	1948.0	1905.0	1905.0	1905.0	1914.0	1914.0	1900.0	1900.0	1900.0	1877.0	1877.0	1883.0	1883.0	1883.0	1946.0	1946.0	1861.0	1861.0	1861.0	1936.0	1936.0	1931.0	1931.0	1931.0	1902.0	1902.0	1868.0	1868.0	1868.0	1919.0	1919.0	1836.0	1836.0	1836.0	1905.0	1905.0	1851.0	1851.0	1851.0	1838.0	1838.0	1903.0	1903.0	1903.0	1864.0	1864.0	1827.0	1827.0	1827.0	1829.0	1829.0	1883.0	1883.0	1883.0	1891.0	1891.0	1887.0	1887.0	1887.0	1876.0	1876.0	1874.0	1874.0	1874.0	1815.0	1815.0	1806.0	1806.0	1806.0	1792.0	1792.0	1844.0	1844.0	1844.0	1800.0	1800.0	1826.0	1826.0	1826.0	1861.0	1861.0	1780.0	1780.0	1780.0	1778.0	1778.0	1783.0	1783.0	1783.0	1808.0	1808.0	1807.0	1807.0	1807.0	1796.0	1796.0	1811.0	1811.0	1811.0	1820.0	1820.0	1805.0	1805.0	1805.0	1818.0	1818.0	1807.0	1807.0	1807.0	1815.0	1815.0	1814.0	1814.0	1814.0	1765.0	1765.0	1735.0	1735.0	1735.0	1784.0	1784.0	1736.0	1736.0	1736.0	1724.0	1724.0	1732.0	1732.0	1732.0	1796.0	1796.0	1780.0	1780.0	1749.0	1749.0	1749.0	1786.0	1786.0	1711.0	1711.0	1711.0	1775.0	1775.0	1742.0	1742.0	1742.0	1700.0	1700.0	1714.0	1714.0	1714.0	1739.0	1739.0	1766.0	1766.0	1766.0	1700.0	1700.0	1768.0	1768.0	1768.0	1734.0	1734.0	1710.0	1710.0	1710.0	1738.0	1738.0	1705.0	1705.0	1705.0	1703.0	1703.0	1734.0	1734.0	1734.0	1703.0	1703.0	1703.0	1703.0	1703.0	1718.0	1718.0	1683.0	1683.0	1683.0	1751.0	1751.0	1718.0	1718.0	1718.0	1715.0	1715.0	1683.0	1683.0	1683.0	1673.0	1673.0	1694.0	1694.0	1694.0	1710.0	1710.0	1669.0	1669.0	1669.0	1724.0	1724.0	1667.0	1667.0	1667.0	1674.0	1674.0	1656.0	1656.0	1656.0	1712.0	1712.0	1678.0	1678.0	1678.0	1712.0	1712.0	1695.0	1695.0	1695.0	1727.0	1727.0	1683.0	1683.0	1683.0	1724.0	1724.0	1676.0	1676.0	1676.0	1650.0	1650.0	1648.0	1648.0	1648.0	1671.0	1671.0	1703.0	1703.0	1703.0	1692.0	1692.0	1721.0	1721.0	1721.0	1725.0	1725.0	1724.0	1724.0	1724.0	1703.0	1703.0	1661.0	1661.0	1661.0	1664.0	1664.0	1645.0	1645.0	1645.0	1692.0	1692.0	1711.0	1711.0	1711.0	1691.0	1691.0	1676.0	1676.0	1676.0	1720.0	1720.0	1729.0	1729.0	1729.0	1656.0	1656.0	1715.0	1715.0	1715.0	1648.0	1648.0	1680.0	1680.0	1680.0	1725.0	1725.0	1657.0	1657.0	1657.0	1647.0	1647.0	1664.0	1664.0	1664.0	1708.0	1708.0	1687.0	1687.0	1687.0	1711.0	1711.0	1707.0	1707.0	1707.0	1678.0	1678.0	1707.0	1707.0	1707.0	1656.0	1656.0	1658.0	1658.0	1658.0	1658.0	1658.0	1703.0	1703.0	1703.0	1662.0	1662.0	1715.0	1715.0	1715.0	1701.0	1701.0	1660.0	1660.0	1660.0	1724.0	1724.0	1708.0	1708.0	1696.0	1696.0	1696.0	1686.0	1686.0	1661.0	1661.0	1661.0	1668.0	1668.0	1737.0	1737.0	1737.0	1653.0	1653.0	1674.0	1674.0	1674.0	1693.0	1693.0	1644.0	1644.0	1644.0	1720.0	1720.0	1691.0	1691.0	1691.0	1709.0	1709.0	1687.0	1687.0	1687.0	1653.0	1653.0	1654.0	1654.0	1654.0	1672.0	1672.0	1629.0	1629.0	1629.0	1633.0	1633.0	1695.0	1695.0	1695.0	1648.0	1648.0	1646.0	1646.0	1646.0	1622.0	1622.0	1673.0	1673.0	1673.0	1652.0	1652.0	1698.0	1698.0	1698.0	1710.0	1710.0	1679.0	1679.0	1679.0	1646.0	1646.0	1677.0	1677.0	1677.0	1671.0	1671.0	1661.0	1661.0	1661.0	1745.0	1745.0	1700.0	1700.0	1700.0	1741.0	1741.0	1746.0	1746.0	1746.0	1780.0	1780.0	1781.0	1781.0	1781.0	1833.0	1833.0	1812.0	1812.0	1812.0	1848.0	1848.0	1858.0	1858.0	1858.0	1845.0	1845.0	1888.0	1888.0	1888.0	1946.0	1946.0	1915.0	1915.0	1915.0	1941.0	1941.0	1967.0	1967.0	1967.0	2048.0	2048.0	2070.0	2070.0	2070.0	2049.0	2049.0	2110.0	2110.0	2110.0	2118.0	2118.0	2136.0	2136.0	2136.0	2228.0	2228.0	2213.0	2213.0	2213.0	2239.0	2239.0	2312.0	2312.0	2312.0	2308.0	2308.0	2296.0	2296.0	2296.0	2310.0	2310.0	2363.0	2363.0	2363.0	2339.0	2339.0	2359.0	2359.0	2359.0	2369.0	2369.0	2429.0	2429.0	2429.0	2394.0	2394.0	2438.0	2438.0	2438.0	2460.0	2460.0	2441.0	2441.0	2441.0	2476.0	2476.0	2522.0	2522.0	2522.0	2515.0	2515.0	2525.0	2525.0	2525.0	2473.0	2473.0	2557.0	2557.0	2557.0	2507.0	2507.0	2537.0	2537.0	2537.0	2581.0	2581.0	2513.0	2513.0	2513.0	2510.0	2510.0	2579.0	2579.0	2519.0	2519.0	2519.0	2509.0	2509.0	2536.0	2536.0	2536.0	2579.0	2579.0	2546.0	2546.0	2546.0	2559.0	2559.0	2591.0	2591.0	2591.0	2577.0	2577.0	2511.0	2511.0	2511.0	2592.0	2592.0	2546.0	2546.0	2546.0	2561.0	2561.0	2558.0	2558.0	2558.0	2498.0	2498.0	2516.0	2516.0	2516.0	2509.0	2509.0	2553.0	2553.0	2553.0	2559.0	2559.0	2515.0	2515.0	2515.0	2547.0	2547.0	2552.0	2552.0	2552.0	2516.0	2516.0	2535.0	2535.0	2535.0	2510.0	2510.0	2553.0	2553.0	2553.0	2494.0	2494.0	2556.0	2556.0	2556.0	2520.0	2520.0	2507.0	2507.0	2507.0	2533.0	2533.0	2530.0	2530.0	2530.0	2474.0	2474.0	2452.0	2452.0	2452.0	2495.0	2495.0	2468.0	2468.0	2468.0	2518.0	2518.0	2503.0	2503.0	2503.0	2486.0	2486.0	2448.0	2448.0	2448.0	2446.0	2446.0	2458.0	2458.0	2458.0	2468.0	2468.0	2430.0	2430.0	2430.0	2444.0	2444.0	2472.0	2472.0	2472.0	2410.0	2410.0	2476.0	