2677.0	2666.0	2666.0	2602.0	2602.0	2602.0	2602.0	2602.0	2640.0	2640.0	2640.0	2665.0	2665.0	2606.0	2606.0	2606.0	2645.0	2645.0	2639.0	2639.0	2639.0	2642.0	2642.0	2647.0	2647.0	2647.0	2648.0	2648.0	2605.0	2605.0	2605.0	2626.0	2626.0	2643.0	2643.0	2643.0	2638.0	2638.0	2554.0	2554.0	2554.0	2581.0	2581.0	2547.0	2547.0	2547.0	2540.0	2540.0	2569.0	2569.0	2569.0	2523.0	2523.0	2539.0	2539.0	2539.0	2573.0	2573.0	2527.0	2527.0	2527.0	2491.0	2491.0	2488.0	2488.0	2488.0	2533.0	2533.0	2479.0	2479.0	2479.0	2466.0	2466.0	2433.0	2433.0	2433.0	2508.0	2508.0	2415.0	2415.0	2415.0	2448.0	2448.0	2392.0	2392.0	2392.0	2379.0	2379.0	2386.0	2386.0	2386.0	2359.0	2359.0	2383.0	2383.0	2383.0	2336.0	2336.0	2324.0	2324.0	2324.0	2365.0	2365.0	2359.0	2359.0	2359.0	2319.0	2319.0	2294.0	2294.0	2294.0	2307.0	2307.0	2297.0	2297.0	2297.0	2241.0	2241.0	2288.0	2288.0	2288.0	2220.0	2220.0	2271.0	2271.0	2200.0	2200.0	2200.0	2194.0	2194.0	2230.0	2230.0	2230.0	2159.0	2159.0	2151.0	2151.0	2151.0	2197.0	2197.0	2184.0	2184.0	2184.0	2198.0	2198.0	2115.0	2115.0	2115.0	2117.0	2117.0	2166.0	2166.0	2166.0	2153.0	2153.0	2111.0	2111.0	2111.0	2087.0	2087.0	2133.0	2133.0	2133.0	2072.0	2072.0	2091.0	2091.0	2091.0	2077.0	2077.0	2055.0	2055.0	2055.0	2042.0	2042.0	2072.0	2072.0	2072.0	2099.0	2099.0	2105.0	2105.0	2105.0	2036.0	2036.0	2076.0	2076.0	2076.0	2023.0	2023.0	2072.0	2072.0	2072.0	2079.0	2079.0	2004.0	2004.0	2004.0	2000.0	2000.0	2017.0	2017.0	2017.0	2019.0	2019.0	2026.0	2026.0	2026.0	2014.0	2014.0	2033.0	2033.0	2033.0	2046.0	2046.0	2022.0	2022.0	2022.0	1991.0	1991.0	2022.0	2022.0	2022.0	2020.0	2020.0	2007.0	2007.0	2007.0	1940.0	1940.0	1984.0	1984.0	1984.0	1986.0	1986.0	1995.0	1995.0	1995.0	2000.0	2000.0	1935.0	1935.0	1935.0	1945.0	1945.0	1931.0	1931.0	1931.0	1891.0	1891.0	1912.0	1912.0	1912.0	1952.0	1952.0	1926.0	1926.0	1926.0	1957.0	1957.0	1877.0	1877.0	1877.0	1942.0	1942.0	1906.0	1906.0	1906.0	1866.0	1866.0	1855.0	1855.0	1855.0	1924.0	1924.0	1875.0	1875.0	1875.0	1854.0	1854.0	1847.0	1847.0	1847.0	1831.0	1831.0	1892.0	1892.0	1892.0	1872.0	1872.0	1903.0	1903.0	1903.0	1813.0	1813.0	1887.0	1887.0	1887.0	1811.0	1811.0	1817.0	1817.0	1817.0	1860.0	1860.0	1794.0	1794.0	1794.0	1858.0	1858.0	1804.0	1804.0	1804.0	1850.0	1850.0	1783.0	1783.0	1783.0	1777.0	1777.0	1790.0	1790.0	1790.0	1756.0	1756.0	1801.0	1801.0	1830.0	1830.0	1830.0	1764.0	1764.0	1825.0	1825.0	1825.0	1806.0	1806.0	1772.0	1772.0	1772.0	1788.0	1788.0	1784.0	1784.0	1784.0	1725.0	1725.0	1723.0	1723.0	1723.0	1783.0	1783.0	1755.0	1755.0	1755.0	1755.0	1755.0	1778.0	1778.0	1778.0	1722.0	1722.0	1767.0	1767.0	1767.0	1723.0	1723.0	1742.0	1742.0	1742.0	1713.0	1713.0	1753.0	1753.0	1753.0	1691.0	1691.0	1687.0	1687.0	1687.0	1712.0	1712.0	1680.0	1680.0	1680.0	1681.0	1681.0	1680.0	1680.0	1680.0	1727.0	1727.0	1668.0	1668.0	1668.0	1704.0	1704.0	1708.0	1708.0	1708.0	1651.0	1651.0	1647.0	1647.0	1647.0	1650.0	1650.0	1649.0	1649.0	1649.0	1647.0	1647.0	1704.0	1704.0	1704.0	1675.0	1675.0	1669.0	1669.0	1669.0	1657.0	1657.0	1692.0	1692.0	1692.0	1693.0	1693.0	1644.0	1644.0	1644.0	1614.0	1614.0	1647.0	1647.0	1647.0	1634.0	1634.0	1691.0	1691.0	1691.0	1680.0	1680.0	1645.0	1645.0	1645.0	1621.0	1621.0	1600.0	1600.0	1600.0	1662.0	1662.0	1664.0	1664.0	1664.0	1599.0	1599.0	1605.0	1605.0	1605.0	1624.0	1624.0	1634.0	1634.0	1634.0	1657.0	1657.0	1654.0	1654.0	1654.0	1661.0	1661.0	1604.0	1604.0	1604.0	1582.0	1582.0	1586.0	1586.0	1586.0	1572.0	1572.0	1639.0	1639.0	1639.0	1647.0	1647.0	1608.0	1608.0	1608.0	1614.0	1614.0	1595.0	1595.0	1595.0	1585.0	1585.0	1636.0	1636.0	1636.0	1587.0	1587.0	1609.0	1609.0	1609.0	1572.0	1572.0	1629.0	1629.0	1629.0	1547.0	1547.0	1551.0	1551.0	1551.0	1553.0	1553.0	1622.0	1622.0	1622.0	1624.0	1624.0	1575.0	1575.0	1575.0	1552.0	1552.0	1578.0	1578.0	1584.0	1584.0	1584.0	1593.0	1593.0	1610.0	1610.0	1610.0	1544.0	1544.0	1543.0	1543.0	1543.0	1579.0	1579.0	1543.0	1543.0	1543.0	1563.0	1563.0	1619.0	1619.0	1619.0	1587.0	1587.0	1540.0	1540.0	1540.0	1587.0	1587.0	1542.0	1542.0	1542.0	1582.0	1582.0	1540.0	1540.0	1540.0	1564.0	1564.0	1532.0	1532.0	1532.0	1548.0	1548.0	1548.0	1548.0	1548.0	1559.0	1559.0	1551.0	1551.0	1551.0	1570.0	1570.0	1583.0	1583.0	1583.0	1595.0	1595.0	1565.0	1565.0	1565.0	1585.0	1585.0	1567.0	1567.0	1567.0	1605.0	1605.0	1545.0	1545.0	1545.0	1602.0	1602.0	1562.0	1562.0	1562.0	1634.0	1634.0	1613.0	1613.0	1613.0	1650.0	1650.0	1610.0	1610.0	1610.0	1607.0	1607.0	1665.0	1665.0	1665.0	1644.0	1644.0	1720.0	1720.0	1720.0	1728.0	1728.0	1688.0	1688.0	1688.0	1790.0	1790.0	1791.0	1791.0	1791.0	1840.0	1840.0	1782.0	1782.0	1782.0	1839.0	1839.0	1919.0	1919.0	1919.0	1942.0	1942.0	1953.0	1953.0	1953.0	1990.0	1990.0	1965.0	1965.0	1965.0	1990.0	1990.0	2082.0	2082.0	2082.0	2039.0	2039.0	2088.0	2088.0	2088.0	2130.0	2130.0	2125.0	2125.0	2125.0	2152.0	2152.0	2240.0	2240.0	2240.0	2197.0	2197.0	2261.0	2261.0	2261.0	2317.0	2317.0	2265.0	2265.0	2265.0	2345.0	2345.0	2360.0	2360.0	2360.0	2398.0	2398.0	2352.0	2352.0	2352.0	2423.0	2423.0	2418.0	2418.0	2418.0	2395.0	2395.0	2435.0	2435.0	2435.0	2433.0	2433.0	2430.0	2430.0	2430.0	2461.0	2461.0	2509.0	2509.0	2509.0	2483.0	2483.0	2488.0	2488.0	2488.0	2488.0	2488.0	2539.0	2539.0	2539.0	2519.0	2519.0	2560.0	2560.0	2560.0	2566.0	2566.0	2558.0	2558.0	2550.0	2550.0	2550.0	2562.0	2562.0	2539.0	2539.0	2539.0	2537.0	2537.0	2599.0	2599.0	2599.0	2572.0	2572.0	2568.0	2568.0	2568.0	2594.0	2594.0	2593.0	2593.0	2593.0	2612.0	2612.0	2538.0	2538.0	2538.0	2619.0	2619.0	2579.0	2579.0	2579.0	2539.0	2539.0	2572.0	2572.0	2572.0	2551.0	2551.0	2552.0	2552.0	2552.0	2593.0	2593.0	2608.0	2608.0	2608.0	2590.0	2590.0	2554.0	2554.0	2554.0	2592.0	2592.0	2586.0	2586.0	2586.0	2546.0	2546.0	2526.0	2526.0	2526.0	2587.0	2587.0	2543.0	2543.0	2543.0	2552.0	2552.0	2535.0	2535.0	2535.0	2516.0	2516.0	2510.0	2510.0	2510.0	2523.0	2523.0	2586.0	2586.0	2586.0	2552.0	2552.0	2543.0	2543.0	2543.0	2563.0	2563.0	2491.0	2491.0	2491.0	2544.0	2544.0	2500.0	2500.0	2500.0	2489.0	2489.0	2502.0	2502.0	2502.0	2474.0	2474.0	2491.0	2491.0	2491.0	2471.0	2471.0	2501.0	2501.0	2501.0	2463.0	2463.0	2508.0	2508.0	2508.0	2499.0	2499.0	2447.0	2447.0	2447.0	2433.0	2433.0	2449.0	2449.0	2449.0	2454.0	2454.0	2459.0	2459.0	2459.0	2370.0	2370.0	2366.0	2366.0	2366.0	2398.0	2398.0	2348.0	2348.0	2348.0	2357.0	2357.0	2377.0	2377.0	2377.0	2315.0	2315.0	2304.0	2304.0	2304.0	2352.0	2352.0	2346.0	2346.0	2346.0	2271.0	2271.0	2248.0	2248.0	2248.0	2233.0	2233.0	2272.0	2272.0	2272.0	2229.0	2229.0	2211.0	2211.0	2211.0	2246.0	2246.0	2186.0	2186.0	2186.0	2228.0	2228.0	2240.0	2240.0	2240.0	2236.0	2236.0	2198.0	2198.0	2198.0	2202.0	2202.0	2135.0	2135.0	2135.0	2126.0	2126.0	2165.0	2165.0	2165.0	2110.0	2110.0	2102.0	2102.0	2108.0	2108.0	2108.0	2097.0	2097.0	2118.0	2118.0	2118.0	2145.0	2145.0	2121.0	2121.0	2121.0	2139.0	2139.0	2144.0	2144.0	2144.0	2133.0	2133.0	2060.0	2060.0	2060.0	2086.0	2086.0	2109.0	2109.0	2109.0	2051.0	2051.0	2057.0	2057.0	2057.0	2077.0	2077.0	2074.0	2074.0	2074.0	2043.0	2043.0	2086.0	2086.0	2086.0	2024.0	2024.0	2071.0	2071.0	2071.0	2053.0	2053.0	2030.0	2030.0	2030.0	2035.0	2035.0	2059.0	2059.0	2059.0	2013.0	2013.0	2021.0	2021.0	2021.0	1989.0	1989.0	2007.0	2007.0	2007.0	2019.0	2019.0	2056.0	2056.0	2056.0	1971.0	1971.0	2008.0	2008.0	2008.0	2033.0	2033.0	2022.0	2022.0	2022.0	1990.0	1990.0	1957.0	1957.0	1957.0	1973.0	1973.0	1984.0	1984.0	1984.0	1999.0	1999.0	1929.0	1929.0	1929.0	1979.0	1979.0	1934.0	1934.0	1934.0	1968.0	1968.0	1932.0	1932.0	1932.0	1947.0	1947.0	1987.0	1987.0	1987.0	1950.0	1950.0	1966.0	1966.0	1966.0	1962.0	1962.0	1949.0	1949.0	1949.0	1894.0	1894.0	1878.0	1878.0	1878.0	1863.0	1863.0	1920.0	1920.0	1920.0	1935.0	1935.0	1906.0	1906.0	1906.0	1925.0	1925.0	1867.0	1867.0	1867.0	1838.0	1838.0	1898.0	1898.0	1898.0	1882.0	1882.0	1846.0	1846.0	1846.0	1846.0	1846.0	1807.0	1807.0	1807.0	1819.0	1819.0	1820.0	1820.0	1820.0	1863.0	1863.0	1788.0	1788.0	1788.0	1820.0	1820.0	1788.0	1788.0	1788.0	1780.0	1780.0	1832.0	1832.0	1832.0	1834.0	1834.0	1795.0	1795.0	1795.0	1756.0	1756.0	1796.0	1796.0	1796.0	1803.0	1803.0	1824.0	1824.0	1824.0	1786.0	1786.0	1793.0	1793.0	1793.0	1733.0	1733.0	1796.0	1796.0	1751.0	1751.0	1751.0	1760.0	1760.0	1766.0	1766.0	1766.0	1723.0	1723.0	1752.0	1752.0	1752.0	1718.0	1718.0	1717.0	1717.0	1717.0	1716.0	1716.0	1768.0	1768.0	1768.0	1698.0	1698.0	1723.0	1723.0	1723.0	1742.0	1742.0	1738.0	1738.0	1738.0	1721.0	1721.0	1718.0	1718.0	1718.0	1692.0	1692.0	1718.0	1718.0	1718.0	1734.0	1734.0	1734.0	1734.0	1734.0	1694.0	1694.0	1727.0	1727.0	1727.0	1667.0	1667.0	1669.0	1669.0	1669.0	1734.0	1734.0	1720.0	1720.0	1720.0	1724.0	1724.0	1723.0	1723.0	1723.0	1702.0	1702.0	1685.0	1685.0	1685.0	1649.0	1649.0	1649.0	1649.0	1649.0	1638.0	1638.0	1651.0	1651.0	1651.0	1638.0	1638.0	1686.0	1686.0	1686.0	1661.0	1661.0	1653.0	1653.0	1653.0	1687.0	1687.0	1678.0	1678.0	1678.0	1672.0	1672.0	1666.0	1666.0	1666.0	1663.0	1663.0	1648.0	1648.0	1648.0	1626.0	1626.0	1659.0	1659.0	1659.0	1618.0	1618.0	1679.0	1679.0	1679.0	1685.0	1685.0	1594.0	1594.0	1594.0	1679.0	1679.0	1602.0	1602.0	1602.0	1603.0	1603.0	1659.0	1659.0	1659.0	1599.0	1599.0	1600.0	1600.0	1600.0	1624.0	1624.0	1652.0	1652.0	1652.0	1637.0	1637.0	1645.0	1645.0	1645.0	1578.0	1578.0	1609.0	1609.0	1609.0	1647.0	1647.0	1621.0	1621.0	1621.0	1593.0	1593.0	1642.0	1642.0	1642.0	1571.0	1571.0	1636.0	1636.0	1636.0	1588.0	1588.0	1598.0	1598.0	1598.0	1625.0	1625.0	1641.0	1641.0	1641.0	1560.0	1560.0	1564.0	1564.0	1564.0	1603.0	1603.0	1634.0	1634.0	1634.0	1636.0	1636.0	1571.0	1571.0	1571.0	1633.0	1633.0	1615.0	1615.0	1615.0	1611.0	1611.0	1615.0	1615.0	1615.0	1612.0	1612.0	1551.0	1551.0	1558.0	1558.0	1558.0	1612.0	1612.0	1610.0	1610.0	1610.0	1624.0	1624.0	1605.0	1605.0	1605.0	1540.0	1540.0	1569.0	1569.0	1569.0	1564.0	1564.0	1559.0	1559.0	1559.0	1595.0	1595.0	1615.0	1615.0	1615.0	1598.0	1598.0	1532.0	1532.0	1532.0	1600.0	1600.0	1548.0	1548.0	1548.0	1598.0	1598.0	1590.0	1590.0	1590.0	1556.0	1556.0	1607.0	1607.0	1607.0	1603.0	1603.0	1565.0	1565.0	1565.0	1560.0	1560.0	1582.0	1582.0	1582.0	1628.0	1628.0	1639.0	1639.0	1639.0	1649.0	1649.0	1617.0	1617.0	1617.0	1701.0	1701.0	1720.0	1720.0	1720.0	1742.0	1742.0	1698.0	1698.0	1698.0	1717.0	1717.0	1753.0	1753.0	1753.0	1831.0	1831.0	1852.0	1852.0	1852.0	1813.0	1813.0	1844.0	1844.0	1844.0	1871.0	1871.0	1933.0	1933.0	1933.0	1970.0	1970.0	1949.0	1949.0	1949.0	2056.0	2056.0	2076.0	2076.0	2076.0	2080.0	2080.0	2133.0	2133.0	2133.0	2156.0	2156.0	2132.0	2132.0	2132.0	2145.0	2145.0	2232.0	2232.0	2232.0	2240.0	2240.0	2209.0	2209.0	2209.0	2230.0	2230.0	2293.0	2293.0	2293.0	2288.0	2288.0	2351.0	2351.0	2351.0	2344.0	2344.0	2343.0	2343.0	2343.0	2349.0	2349.0	2352.0	2352.0	2352.0	2372.0	2372.0	2437.0	2437.0	2437.0	2420.0	2420.0	2470.0	2470.0	2470.0	2425.0	2425.0	2497.0	2497.0	2497.0	2506.0	2506.0	2507.0	2507.0	2507.0	2450.0	2450.0	2468.0	2468.0	2468.0	2466.0	2466.0	2494.0	2494.0	2494.0	2479.0	2479.0	2531.0	2531.0	2531.0	2551.0	2551.0	2486.0	2486.0	2486.0	2556.0	2556.0	2529.0	2529.0	2529.0	2571.0	2571.0	2573.0	2573.0	2573.0	2503.0	2503.0	2511.0	2511.0	2569.0	2569.0	2569.0	2499.0	2499.0	2567.0	2567.0	2567.0	2571.0	2571.0	2563.0	2563.0	2563.0	2585.0	2585.0	2519.0	2519.0	2519.0	2526.0	2526.0	2571.0	2571.0	2571.0	2524.0	2524.0	2509.0	2509.0	2509.0	2521.0	2521.0	2542.0	2542.0	2542.0	2523.0	2523.0	2585.0	2585.0	2585.0	2520.0	2520.0	2522.0	2522.0	2522.0	2577.0	2577.0	2560.0	2560.0	2560.0	2575.0	2575.0	2503.0	2503.0	2503.0	2546.0	2546.0	2539.0	2539.0	2539.0	2500.0	2500.0	2523.0	2523.0	2523.0	2557.0	2557.0	2525.0	2525.0	2525.0	2482.0	2482.0	2492.0	2492.0	2492.0	2509.0	2509.0	2476.0	2476.0	2476.0	2463.0	2463.0	2531.0	2531.0	2531.0	2458.0	2458.0	2527.0	2527.0	2527.0	2516.0	2516.0	2462.0	2462.0	2462.0	2506.0	2506.0	2471.0	2471.0	2471.0	2457.0	2457.0	2460.0	2460.0	2460.0	2424.0	2424.0	2399.0	2399.0	2399.0	2469.0	2469.0	2430.0	2430.0	2430.0	2427.0	2427.0	2357.0	2357.0	2357.0	2363.0	2363.0	2345.0	2345.0	2345.0	2383.0	2383.0	2365.0	2365.0	2365.0	2303.0	2303.0	2366.0	2366.0	2366.0	2337.0	2337.0	2337.0	2337.0	2337.0	2250.0	2250.0	2243.0	2243.0	2243.0	2219.0	2219.0	2257.0	2257.0	2257.0	2265.0	2265.0	2256.0	2256.0	2256.0	2249.0	2249.0	2216.0	2216.0	2216.0	2162.0	2162.0	2214.0	2214.0	2214.0	2191.0	2191.0	2134.0	2134.0	2134.0	2191.0	2191.0	2174.0	2174.0	2174.0	2151.0	2151.0	2171.0	2171.0	2171.0	2164.0	2164.0	2148.0	2148.0	2148.0	2094.0	2094.0	2129.0	2129.0	2129.0	2134.0	2134.0	2098.0	2098.0	2098.0	2044.0	2044.0	2090.0	2090.0	2090.0	2113.0	2113.0	2035.0	2035.0	2035.0	2046.0	2046.0	2090.0	2090.0	2027.0	2027.0	2027.0	2011.0	2011.0	2061.0	2061.0	2061.0	2053.0	2053.0	2006.0	2006.0	2006.0	2054.0	2054.0	2019.0	2019.0	2019.0	2054.0	2054.0	2030.0	2030.0	2030.0	1999.0	1999.0	2013.0	2013.0	2013.0	1968.0	1968.0	1997.0	1997.0	1997.0	1983.0	1983.0	1971.0	1971.0	1971.0	1954.0	1954.0	1966.0	1966.0	1966.0	2011.0	2011.0	2015.0	2015.0	2015.0	2004.0	2004.0	1996.0	1996.0	1996.0	1963.0	1963.0	1954.0	1954.0	1954.0	1950.0	1950.0	1951.0	1951.0	1951.0	1997.0	1997.0	1978.0	1978.0	1978.0	1986.0	1986.0	1922.0	1922.0	1922.0	1963.0	1963.0	1902.0	1902.0	1902.0	1925.0	1925.0	1920.0	1920.0	1920.0	1936.0	1936.0	1899.0	1899.0	1899.0	1890.0	1890.0	1942.0	1942.0	1942.0	1925.0	1925.0	1927.0	1927.0	1927.0	1840.0	1840.0	1864.0	1864.0	1864.0	1911.0	1911.0	1835.0	1835.0	1835.0	1863.0	1863.0	1867.0	1867.0	1867.0	1840.0	1840.0	1885.0	1885.0	1885.0	1825.0	1825.0	1804.0	1804.0	1804.0	1840.0	1840.0	1878.0	1878.0	1878.0	1788.0	1788.0	1788.0	1788.0	1788.0	1817.0	1817.0	1809.0	1809.0	1809.0	1845.0	1845.0	1776.0	1776.0	1776.0	1797.0	1797.0	1810.0	1810.0	1810.0	1772.0	1772.0	1749.0	1749.0	1749.0	1761.0	1761.0	1778.0	1778.0	1778.0	1744.0	1744.0	1730.0	1730.0	1730.0	1794.0	1794.0	1763.0	1763.0	1763.0	1744.0	1744.0	1725.0	1725.0	1725.0	1756.0	1756.0	1697.0	1697.0	1697.0	1712.0	1712.0	1689.0	1689.0	1689.0	1753.0	1753.0	1739.0	1739.0	1739.0	1691.0	1691.0	1724.0	1724.0	1724.0	1663.0	1663.0	1699.0	1699.0	1699.0	1724.0	1724.0	1727.0	1727.0	1673.0	1673.0	1673.0	1688.0	1688.0	1713.0	1713.0	1713.0	1692.0	1692.0	1644.0	1644.0	1644.0	1702.0	1702.0	1654.0	1654.0	1654.0	1711.0	1711.0	1651.0	1651.0	1651.0	1631.0	1631.0	1659.0	1659.0	1659.0	1681.0	1681.0	1684.0	1684.0	1684.0	1686.0	1686.0	1625.0	1625.0	1625.0	1693.0	1693.0	1686.0	1686.0	1686.0	1675.0	1675.0	1675.0	1675.0	1675.0	1678.0	1678.0	1620.0	1620.0	1620.0	1614.0	1614.0	1664.0	1664.0	1664.0	1673.0	1673.0	1610.0	1610.0	1610.0	1662.0	1662.0	1596.0	1596.0	1596.0	1664.0	1664.0	1661.0	1661.0	1661.0	1628.0	1628.0	1578.0	1578.0	1578.0	1659.0	1659.0	1608.0	1608.0	1608.0	1573.0	1573.0	1651.0	1651.0	1651.0	1580.0	1580.0	1573.0	1573.0	1573.0	1619.0	1619.0	1639.0	1639.0	1639.0	1645.0	1645.0	1631.0	1631.0	1631.0	1616.0	1616.0	1602.0	1602.0	1602.0	1596.0	1596.0	1563.0	1563.0	1563.0	1566.0	1566.0	1563.0	1563.0	1563.0	1595.0	1595.0	1575.0	1575.0	1575.0	1568.0	1568.0	1597.0	1597.0	1597.0	1618.0	1618.0	1564.0	1564.0	1564.0	1566.0	1566.0	1558.0	1558.0	1558.0	1604.0	1604.0	1558.0	1558.0	