1791.0	1856.0	1856.0	1821.0	1821.0	1821.0	1867.0	1867.0	1871.0	1871.0	1871.0	1829.0	1829.0	1780.0	1780.0	1780.0	1822.0	1822.0	1828.0	1828.0	1828.0	1855.0	1855.0	1777.0	1777.0	1777.0	1816.0	1816.0	1800.0	1800.0	1800.0	1854.0	1854.0	1773.0	1773.0	1773.0	1827.0	1827.0	1840.0	1840.0	1840.0	1770.0	1770.0	1792.0	1792.0	1792.0	1797.0	1797.0	1797.0	1797.0	1797.0	1781.0	1781.0	1835.0	1835.0	1835.0	1833.0	1833.0	1853.0	1853.0	1853.0	1771.0	1771.0	1808.0	1808.0	1808.0	1814.0	1814.0	1771.0	1771.0	1771.0	1850.0	1850.0	1792.0	1792.0	1792.0	1857.0	1857.0	1837.0	1837.0	1837.0	1816.0	1816.0	1776.0	1776.0	1776.0	1818.0	1818.0	1821.0	1821.0	1821.0	1767.0	1767.0	1785.0	1785.0	1785.0	1784.0	1784.0	1855.0	1855.0	1855.0	1818.0	1818.0	1822.0	1822.0	1822.0	1813.0	1813.0	1774.0	1774.0	1774.0	1805.0	1805.0	1855.0	1855.0	1855.0	1789.0	1789.0	1852.0	1852.0	1852.0	1825.0	1825.0	1771.0	1771.0	1771.0	1847.0	1847.0	1775.0	1775.0	1775.0	1808.0	1808.0	1818.0	1818.0	1818.0	1766.0	1766.0	1859.0	1859.0	1859.0	1769.0	1769.0	1849.0	1849.0	1849.0	1856.0	1856.0	1854.0	1854.0	1854.0	1817.0	1817.0	1766.0	1766.0	1766.0	1807.0	1807.0	1851.0	1851.0	1851.0	1792.0	1792.0	1829.0	1829.0	1829.0	1793.0	1793.0	1768.0	1768.0	1768.0	1822.0	1822.0	1859.0	1859.0	1859.0	1787.0	1787.0	1755.0	1755.0	1755.0	1850.0	1850.0	1835.0	1835.0	1835.0	1806.0	1806.0	1851.0	1851.0	1851.0	1779.0	1779.0	1793.0	1793.0	1793.0	1822.0	1822.0	1843.0	1843.0	1843.0	1830.0	1830.0	1816.0	1816.0	1816.0	1780.0	1780.0	1816.0	1816.0	1775.0	1775.0	1775.0	1774.0	1774.0	1786.0	1786.0	1786.0	1771.0	1771.0	1848.0	1848.0	1848.0	1843.0	1843.0	1826.0	1826.0	1826.0	1770.0	1770.0	1775.0	1775.0	1775.0	1847.0	1847.0	1833.0	1833.0	1833.0	1791.0	1791.0	1804.0	1804.0	1804.0	1841.0	1841.0	1837.0	1837.0	1837.0	1844.0	1844.0	1842.0	1842.0	1842.0	1759.0	1759.0	1752.0	1752.0	1752.0	1794.0	1794.0	1775.0	1775.0	1775.0	1763.0	1763.0	1825.0	1825.0	1825.0	1816.0	1816.0	1795.0	1795.0	1795.0	1826.0	1826.0	1746.0	1746.0	1746.0	1766.0	1766.0	1823.0	1823.0	1823.0	1770.0	1770.0	1748.0	1748.0	1748.0	1799.0	1799.0	1796.0	1796.0	1796.0	1754.0	1754.0	1751.0	1751.0	1751.0	1753.0	1753.0	1835.0	1835.0	1835.0	1837.0	1837.0	1846.0	1846.0	1846.0	1787.0	1787.0	1818.0	1818.0	1818.0	1765.0	1765.0	1849.0	1849.0	1849.0	1776.0	1776.0	1783.0	1783.0	1783.0	1780.0	1780.0	1803.0	1803.0	1803.0	1810.0	1810.0	1882.0	1882.0	1882.0	1874.0	1874.0	1828.0	1828.0	1828.0	1877.0	1877.0	1923.0	1923.0	1923.0	1861.0	1861.0	1882.0	1882.0	1882.0	1980.0	1980.0	1903.0	1903.0	1903.0	1920.0	1920.0	1997.0	1997.0	1997.0	1984.0	1984.0	2063.0	2063.0	2063.0	2025.0	2025.0	2031.0	2031.0	2031.0	2103.0	2103.0	2055.0	2055.0	2055.0	2066.0	2066.0	2166.0	2166.0	2166.0	2165.0	2165.0	2156.0	2156.0	2156.0	2157.0	2157.0	2210.0	2210.0	2210.0	2171.0	2171.0	2200.0	2200.0	2200.0	2260.0	2260.0	2287.0	2287.0	2287.0	2240.0	2240.0	2273.0	2273.0	2273.0	2249.0	2249.0	2334.0	2334.0	2334.0	2295.0	2295.0	2347.0	2347.0	2317.0	2317.0	2317.0	2355.0	2355.0	2315.0	2315.0	2315.0	2347.0	2347.0	2355.0	2355.0	2355.0	2328.0	2328.0	2411.0	2411.0	2411.0	2399.0	2399.0	2379.0	2379.0	2379.0	2425.0	2425.0	2401.0	2401.0	2401.0	2345.0	2345.0	2391.0	2391.0	2391.0	2378.0	2378.0	2380.0	2380.0	2380.0	2366.0	2366.0	2424.0	2424.0	2424.0	2359.0	2359.0	2446.0	2446.0	2446.0	2435.0	2435.0	2359.0	2359.0	2359.0	2376.0	2376.0	2387.0	2387.0	2387.0	2375.0	2375.0	2343.0	2343.0	2343.0	2338.0	2338.0	2361.0	2361.0	2361.0	2348.0	2348.0	2383.0	2383.0	2383.0	2353.0	2353.0	2371.0	2371.0	2371.0	2420.0	2420.0	2327.0	2327.0	2327.0	2394.0	2394.0	2351.0	2351.0	2351.0	2398.0	2398.0	2367.0	2367.0	2367.0	2327.0	2327.0	2359.0	2359.0	2359.0	2387.0	2387.0	2311.0	2311.0	2311.0	2349.0	2349.0	2313.0	2313.0	2313.0	2303.0	2303.0	2297.0	2297.0	2297.0	2320.0	2320.0	2379.0	2379.0	2379.0	2355.0	2355.0	2315.0	2315.0	2315.0	2346.0	2346.0	2291.0	2291.0	2291.0	2286.0	2286.0	2344.0	2344.0	2344.0	2340.0	2340.0	2264.0	2264.0	2264.0	2279.0	2279.0	2306.0	2306.0	2306.0	2260.0	2260.0	2297.0	2297.0	2297.0	2283.0	2283.0	2259.0	2259.0	2259.0	2226.0	2226.0	2283.0	2283.0	2283.0	2275.0	2275.0	2209.0	2209.0	2209.0	2282.0	2282.0	2249.0	2249.0	2249.0	2255.0	2255.0	2193.0	2193.0	2193.0	2166.0	2166.0	2169.0	2169.0	2169.0	2230.0	2230.0	2146.0	2146.0	2146.0	2220.0	2220.0	2189.0	2189.0	2189.0	2144.0	2144.0	2187.0	2187.0	2187.0	2173.0	2173.0	2129.0	2129.0	2129.0	2144.0	2144.0	2145.0	2145.0	2145.0	2157.0	2157.0	2077.0	2077.0	2148.0	2148.0	2148.0	2099.0	2099.0	2080.0	2080.0	2080.0	2068.0	2068.0	2124.0	2124.0	2124.0	2094.0	2094.0	2075.0	2075.0	2075.0	2105.0	2105.0	2116.0	2116.0	2116.0	2104.0	2104.0	2107.0	2107.0	2107.0	2034.0	2034.0	2064.0	2064.0	2064.0	2101.0	2101.0	2080.0	2080.0	2080.0	2099.0	2099.0	2099.0	2099.0	2099.0	2077.0	2077.0	2116.0	2116.0	2116.0	2062.0	2062.0	2033.0	2033.0	2033.0	2055.0	2055.0	2051.0	2051.0	2051.0	2068.0	2068.0	2103.0	2103.0	2103.0	2095.0	2095.0	2132.0	2132.0	2132.0	2075.0	2075.0	2049.0	2049.0	2049.0	2114.0	2114.0	2132.0	2132.0	2132.0	2044.0	2044.0	2127.0	2127.0	2127.0	2111.0	2111.0	2102.0	2102.0	2102.0	2040.0	2040.0	2118.0	2118.0	2118.0	2115.0	2115.0	2043.0	2043.0	2043.0	2075.0	2075.0	2071.0	2071.0	2071.0	2065.0	2065.0	2111.0	2111.0	2111.0	2049.0	2049.0	2120.0	2120.0	2120.0	2048.0	2048.0	2084.0	2084.0	2084.0	2071.0	2071.0	2064.0	2064.0	2064.0	2124.0	2124.0	2040.0	2040.0	2040.0	2047.0	2047.0	2069.0	2069.0	2069.0	2046.0	2046.0	2104.0	2104.0	2104.0	2022.0	2022.0	2113.0	2113.0	2113.0	2045.0	2045.0	2026.0	2026.0	2026.0	2039.0	2039.0	2012.0	2012.0	2012.0	2015.0	2015.0	2013.0	2013.0	2013.0	2062.0	2062.0	2015.0	2015.0	2015.0	2074.0	2074.0	2007.0	2007.0	2007.0	2013.0	2013.0	2080.0	2080.0	2080.0	2011.0	2011.0	2077.0	2077.0	2077.0	1986.0	1986.0	2006.0	2006.0	2006.0	1984.0	1984.0	2016.0	2016.0	2016.0	1973.0	1973.0	1965.0	1965.0	1965.0	2020.0	2020.0	1984.0	1984.0	1984.0	1955.0	1955.0	2023.0	2023.0	2041.0	2041.0	2041.0	1957.0	1957.0	1955.0	1955.0	1955.0	2030.0	2030.0	1947.0	1947.0	1947.0	1967.0	1967.0	2015.0	2015.0	2015.0	1947.0	1947.0	1936.0	1936.0	1936.0	1927.0	1927.0	1927.0	1927.0	1927.0	1942.0	1942.0	1917.0	1917.0	1917.0	1950.0	1950.0	1942.0	1942.0	1942.0	1926.0	1926.0	2003.0	2003.0	2003.0	1911.0	1911.0	1902.0	1902.0	1902.0	1922.0	1922.0	1954.0	1954.0	1954.0	1983.0	1983.0	1979.0	1979.0	1979.0	1967.0	1967.0	1916.0	1916.0	1916.0	1928.0	1928.0	1923.0	1923.0	1923.0	1966.0	1966.0	1900.0	1900.0	1900.0	1933.0	1933.0	1933.0	1933.0	1933.0	1925.0	1925.0	1876.0	1876.0	1876.0	1868.0	1868.0	1958.0	1958.0	1958.0	1913.0	1913.0	1948.0	1948.0	1948.0	1883.0	1883.0	1915.0	1915.0	1915.0	1927.0	1927.0	1933.0	1933.0	1933.0	1932.0	1932.0	1857.0	1857.0	1857.0	1878.0	1878.0	1921.0	1921.0	1921.0	1865.0	1865.0	1939.0	1939.0	1939.0	1850.0	1850.0	1890.0	1890.0	1890.0	1872.0	1872.0	1933.0	1933.0	1933.0	1853.0	1853.0	1845.0	1845.0	1845.0	1917.0	1917.0	1889.0	1889.0	1889.0	1858.0	1858.0	1849.0	1849.0	1849.0	1935.0	1935.0	1840.0	1840.0	1840.0	1907.0	1907.0	1849.0	1849.0	1849.0	1898.0	1898.0	1847.0	1847.0	1847.0	1840.0	1840.0	1840.0	1840.0	1840.0	1882.0	1882.0	1898.0	1898.0	1898.0	1852.0	1852.0	1904.0	1904.0	1904.0	1900.0	1900.0	1899.0	1899.0	1899.0	1886.0	1886.0	1833.0	1833.0	1833.0	1823.0	1823.0	1824.0	1824.0	1824.0	1871.0	1871.0	1812.0	1812.0	1812.0	1872.0	1872.0	1912.0	1912.0	1912.0	1901.0	1901.0	1840.0	1840.0	1814.0	1814.0	1814.0	1816.0	1816.0	1842.0	1842.0	1842.0	1897.0	1897.0	1816.0	1816.0	1816.0	1906.0	1906.0	1880.0	1880.0	1880.0	1887.0	1887.0	1859.0	1859.0	1859.0	1889.0	1889.0	1907.0	1907.0	1907.0	1850.0	1850.0	1840.0	1840.0	1840.0	1819.0	1819.0	1881.0	1881.0	1881.0	1816.0	1816.0	1805.0	1805.0	1805.0	1859.0	1859.0	1815.0	1815.0	1815.0	1832.0	1832.0	1879.0	1879.0	1879.0	1804.0	1804.0	1828.0	1828.0	1828.0	1820.0	1820.0	1810.0	1810.0	1810.0	1834.0	1834.0	1848.0	1848.0	1848.0	1818.0	1818.0	1872.0	1872.0	1872.0	1837.0	1837.0	1837.0	1837.0	1837.0	1840.0	1840.0	1890.0	1890.0	1890.0	1814.0	1814.0	1802.0	1802.0	1802.0	1804.0	1804.0	1839.0	1839.0	1839.0	1870.0	1870.0	1839.0	1839.0	1839.0	1837.0	1837.0	1880.0	1880.0	1880.0	1880.0	1880.0	1830.0	1830.0	1830.0	1791.0	1791.0	1830.0	1830.0	1830.0	1875.0	1875.0	1792.0	1792.0	1792.0	1886.0	1886.0	1795.0	1795.0	1795.0	1799.0	1799.0	1819.0	1819.0	1819.0	1884.0	1884.0	1810.0	1810.0	1810.0	1805.0	1805.0	1881.0	1881.0	1881.0	1790.0	1790.0	1791.0	1791.0	1791.0	1843.0	1843.0	1861.0	1861.0	1861.0	1831.0	1831.0	1857.0	1857.0	1857.0	1867.0	1867.0	1856.0	1856.0	1856.0	1797.0	1797.0	1865.0	1865.0	1865.0	1842.0	1842.0	1814.0	1814.0	1814.0	1772.0	1772.0	1804.0	1804.0	1804.0	1832.0	1832.0	1854.0	1854.0	1854.0	1821.0	1821.0	1847.0	1847.0	1847.0	1848.0	1848.0	1770.0	1770.0	1770.0	1776.0	1776.0	1779.0	1779.0	1779.0	1782.0	1782.0	1839.0	1839.0	1839.0	1849.0	1849.0	1768.0	1768.0	1768.0	1769.0	1769.0	1774.0	1774.0	1771.0	1771.0	1771.0	1784.0	1784.0	1827.0	1827.0	1827.0	1804.0	1804.0	1849.0	1849.0	1849.0	1808.0	1808.0	1781.0	1781.0	1781.0	1811.0	1811.0	1825.0	1825.0	1825.0	1809.0	1809.0	1864.0	1864.0	1864.0	1775.0	1775.0	1766.0	1766.0	1766.0	1794.0	1794.0	1856.0	1856.0	1856.0	1776.0	1776.0	1797.0	1797.0	1797.0	1854.0	1854.0	1804.0	1804.0	1804.0	1821.0	1821.0	1857.0	1857.0	1857.0	1784.0	1784.0	1862.0	1862.0	1862.0	1800.0	1800.0	1791.0	1791.0	1791.0	1807.0	1807.0	1782.0	1782.0	1782.0	1851.0	1851.0	1819.0	1819.0	1819.0	1813.0	1813.0	1762.0	1762.0	1762.0	1831.0	1831.0	1864.0	1864.0	1864.0	1819.0	1819.0	1845.0	1845.0	1845.0	1809.0	1809.0	1769.0	1769.0	1769.0	1775.0	1775.0	1838.0	1838.0	1838.0	1771.0	1771.0	1794.0	1794.0	1794.0	1848.0	1848.0	1791.0	1791.0	1791.0	1856.0	1856.0	1790.0	1790.0	1790.0	1772.0	1772.0	1769.0	1769.0	1769.0	1832.0	1832.0	1782.0	1782.0	1782.0	1826.0	1826.0	1806.0	1806.0	1806.0	1759.0	1759.0	1798.0	1798.0	1798.0	1783.0	1783.0	1779.0	1779.0	1779.0	1796.0	1796.0	1766.0	1766.0	1766.0	1859.0	1859.0	1768.0	1768.0	1768.0	1765.0	1765.0	1835.0	1835.0	1835.0	1854.0	1854.0	1771.0	1771.0	1771.0	1801.0	1801.0	1804.0	1804.0	1804.0	1795.0	1795.0	1833.0	1833.0	1833.0	1768.0	1768.0	1776.0	1776.0	1776.0	1794.0	1794.0	1775.0	1775.0	1775.0	1820.0	1820.0	1844.0	1844.0	1844.0	1797.0	1797.0	1776.0	1776.0	1776.0	1852.0	1852.0	1759.0	1759.0	1759.0	1848.0	1848.0	1819.0	1819.0	1819.0	1837.0	1837.0	1766.0	1766.0	1837.0	1837.0	1837.0	1772.0	1772.0	1763.0	1763.0	1763.0	1836.0	1836.0	1820.0	1820.0	1820.0	1764.0	1764.0	1801.0	1801.0	1801.0	1814.0	1814.0	1843.0	1843.0	1843.0	1828.0	1828.0	1819.0	1819.0	1819.0	1751.0	1751.0	1842.0	1842.0	1842.0	1842.0	1842.0	1819.0	1819.0	1819.0	1826.0	1826.0	1817.0	1817.0	1817.0	1750.0	1750.0	1752.0	1752.0	1752.0	1771.0	1771.0	1761.0	1761.0	1761.0	1845.0	1845.0	1824.0	1824.0	1824.0	1793.0	1793.0	1853.0	1853.0	1853.0	1863.0	1863.0	1870.0	1870.0	1870.0	1873.0	1873.0	1817.0	1817.0	1817.0	1805.0	1805.0	1866.0	1866.0	1866.0	1913.0	1913.0	1890.0	1890.0	1890.0	1859.0	1859.0	1917.0	1917.0	1917.0	1921.0	1921.0	1976.0	1976.0	1976.0	1990.0	1990.0	1987.0	1987.0	1987.0	2020.0	2020.0	1969.0	1969.0	1969.0	2028.0	2028.0	2012.0	2012.0	2012.0	2115.0	2115.0	2044.0	2044.0	2044.0	2122.0	2122.0	2167.0	2167.0	2167.0	2109.0	2109.0	2157.0	2157.0	2157.0	2169.0	2169.0	2149.0	2149.0	2149.0	2216.0	2216.0	2247.0	2247.0	2247.0	2200.0	2200.0	2207.0	2207.0	2207.0	2252.0	2252.0	2294.0	2294.0	2294.0	2233.0	2233.0	2249.0	2249.0	2249.0	2290.0	2290.0	2311.0	2311.0	2311.0	2303.0	2303.0	2281.0	2281.0	2281.0	2287.0	2287.0	2368.0	2368.0	2368.0	2393.0	2393.0	2363.0	2363.0	2363.0	2321.0	2321.0	2346.0	2346.0	2346.0	2417.0	2417.0	2364.0	2364.0	2364.0	2400.0	2400.0	2410.0	2410.0	2410.0	2375.0	2375.0	2434.0	2434.0	2434.0	2419.0	2419.0	2429.0	2429.0	2429.0	2451.0	2451.0	2411.0	2411.0	2411.0	2383.0	2383.0	2455.0	2455.0	2388.0	2388.0	2388.0	2400.0	2400.0	2437.0	2437.0	2437.0	2472.0	2472.0	2457.0	2457.0	2457.0	2433.0	2433.0	2420.0	2420.0	2420.0	2458.0	2458.0	2471.0	2471.0	2471.0	2485.0	2485.0	2493.0	2493.0	2493.0	2436.0	2436.0	2394.0	2394.0	2394.0	2464.0	2464.0	2400.0	2400.0	2400.0	2447.0	2447.0	2428.0	2428.0	2428.0	2435.0	2435.0	2435.0	2435.0	2435.0	2468.0	2468.0	2467.0	2467.0	2467.0	2452.0	2452.0	2447.0	2447.0	2447.0	2445.0	2445.0	2453.0	2453.0	2453.0	2383.0	2383.0	2378.0	2378.0	2378.0	2468.0	2468.0	2466.0	2466.0	2466.0	2377.0	2377.0	2469.0	2469.0	2469.0	2459.0	2459.0	2460.0	2460.0	2460.0	2371.0	2371.0	2439.0	2439.0	2439.0	2404.0	2404.0	2381.0	2381.0	2381.0	2435.0	2435.0	2359.0	2359.0	2359.0	2392.0	2392.0	2406.0	2406.0	2406.0	2424.0	2424.0	2345.0	2345.0	2345.0	2413.0	2413.0	2394.0	2394.0	2394.0	2410.0	2410.0	2357.0	2357.0	2357.0	2398.0	2398.0	2327.0	2327.0	2327.0	2308.0	2308.0	2358.0	2358.0	2358.0	2343.0	2343.0	2299.0	2299.0	2299.0	2284.0	2284.0	2298.0	2298.0	2298.0	2305.0	2305.0	2271.0	2271.0	2271.0	2247.0	2247.0	2255.0	2255.0	2255.0	2224.0	2224.0	2270.0	2270.0	2270.0	2236.0	2236.0	2225.0	2225.0	2225.0	2166.0	2166.0	2158.0	2158.0	2158.0	2147.0	2147.0	2168.0	2168.0	2168.0	2134.0	2134.0	2145.0	2145.0	2145.0	2123.0	2123.0	2160.0	2160.0	2160.0	2175.0	2175.0	2182.0	2182.0	2182.0	2085.0	2085.0	2170.0	2170.0	2170.0	2100.0	2100.0	2127.0	2127.0	2127.0	2119.0	2119.0	2095.0	2095.0	2095.0	2147.0	2147.0	2087.0	2087.0	2087.0	2054.0	2054.0	2135.0	2135.0	2063.0	2063.0	2063.0	2136.0	2136.0	2057.0	2057.0	2057.0	2048.0	2048.0	2062.0	2062.0	2062.0	2064.0	2064.0	2130.0	2130.0	2130.0	2068.0	2068.0	2083.0	2083.0	2083.0	2051.0	2051.0	2058.0	2058.0	2058.0	2052.0	2052.0	2051.0	2051.0	2051.0	2139.0	2139.0	2104.0	2104.0	2104.0	2112.0	2112.0	2075.0	2075.0	2075.0	2129.0	2129.0	2144.0	2144.0	2144.0	2062.0	2062.0	2053.0	2053.0	2053.0	2054.0	2054.0	2117.0	2117.0	2117.0	2147.0	2147.0	2060.0	2060.0	2060.0	2143.0	2143.0	2103.0	2103.0	2103.0	2071.0	2071.0	2127.0	2127.0	2127.0	2091.0	2091.0	2054.0	2054.0	2054.0	2113.0	2113.0	2090.0	2090.0	2090.0	2073.0	2073.0	2059.0	2059.0	2059.0	2047.0	2047.0	2116.0	2116.0	2116.0	2126.0	2126.0	2129.0	2129.0	2129.0	2084.0	2084.0	2089.0	2089.0	2089.0	2128.0	2128.0	2096.0	2096.0	2096.0	2084.0	2084.0	2033.0	2033.0	2033.0	2081.0	2081.0	2096.0	2096.0	2096.0	2051.0	2051.0	2081.0	2081.0	2081.0	2026.0	2026.0	2097.0	2097.0	2097.0	2072.0	2072.0	2081.0	2081.0	2081.0	2092.0	2092.0	2005.0	2005.0	2005.0	2071.0	2071.0	2005.0	2005.0	2005.0	2031.0	2031.0	2031.0	2031.0	2031.0	2064.0	2064.0	2005.0	2005.0	2005.0	2028.0	2028.0	1972.0	1972.0	1972.0	2031.0	2031.0	1984.0	1984.0	1984.0	2030.0	2030.0	2044.0	2044.0	2044.0	2008.0	2008.0	1944.0	1944.0	1944.0	1957.0	1957.0	2009.0	2009.0	2009.0	1971.0	1971.0	2002.0	2002.0	2002.0	2002.0	2002.0	1992.0	1992.0	1992.0	1920.0	1920.0	1970.0	1970.0	1970.0	1982.0	1982.0	1996.0	1996.0	1996.0	1924.0	1924.0	1944.0	1944.0	1902.0	1902.0	1902.0	1974.0	1974.0	1960.0	1960.0	1960.0	1896.0	1896.0	1919.0	1919.0	1919.0	1877.0	1877.0	1884.0	1884.0	1884.0	1945.0	1945.0	1949.0	1949.0	1949.0	1937.0	1937.0	1935.0	1935.0	1935.0	1896.0	1896.0	1932.0	1932.0	1932.0	1879.0	1879.0	1888.0	1888.0	1888.0	1850.0	1850.0	1871.0	1871.0	1871.0	1879.0	1879.0	1861.0	1861.0	1861.0	1923.0	1923.0	1924.0	1924.0	1924.0	1851.0	1851.0	1840.0	1840.0	