2051.0	2051.0	2036.0	2036.0	2036.0	2028.0	2028.0	2050.0	2050.0	2050.0	2006.0	2006.0	2018.0	2018.0	2018.0	1999.0	1999.0	2022.0	2022.0	2022.0	1980.0	1980.0	1987.0	1987.0	1987.0	1963.0	1963.0	1981.0	1981.0	1981.0	1996.0	1996.0	1946.0	1946.0	1946.0	1963.0	1963.0	1973.0	1973.0	1973.0	1940.0	1940.0	1927.0	1927.0	1927.0	1958.0	1958.0	1924.0	1924.0	1924.0	1950.0	1950.0	1901.0	1901.0	1901.0	1939.0	1939.0	1933.0	1933.0	1933.0	1923.0	1923.0	1919.0	1919.0	1919.0	1916.0	1916.0	1910.0	1910.0	1910.0	1914.0	1914.0	1899.0	1899.0	1899.0	1905.0	1905.0	1894.0	1894.0	1894.0	1889.0	1889.0	1863.0	1863.0	1863.0	1853.0	1853.0	1868.0	1868.0	1868.0	1886.0	1886.0	1853.0	1853.0	1853.0	1835.0	1835.0	1840.0	1840.0	1840.0	1821.0	1821.0	1840.0	1840.0	1840.0	1817.0	1817.0	1847.0	1847.0	1847.0	1806.0	1806.0	1799.0	1799.0	1799.0	1834.0	1834.0	1830.0	1830.0	1830.0	1799.0	1799.0	1818.0	1818.0	1818.0	1808.0	1808.0	1790.0	1790.0	1790.0	1801.0	1801.0	1815.0	1815.0	1815.0	1779.0	1779.0	1781.0	1781.0	1781.0	1790.0	1790.0	1781.0	1781.0	1781.0	1769.0	1769.0	1811.0	1811.0	1811.0	1796.0	1796.0	1782.0	1782.0	1782.0	1774.0	1774.0	1769.0	1769.0	1769.0	1766.0	1766.0	1764.0	1764.0	1764.0	1763.0	1763.0	1774.0	1774.0	1774.0	1747.0	1747.0	1787.0	1787.0	1787.0	1741.0	1741.0	1742.0	1742.0	1742.0	1736.0	1736.0	1742.0	1742.0	1742.0	1784.0	1784.0	1740.0	1740.0	1740.0	1761.0	1761.0	1765.0	1765.0	1765.0	1712.0	1712.0	1722.0	1722.0	1722.0	1724.0	1724.0	1762.0	1762.0	1762.0	1730.0	1730.0	1727.0	1727.0	1741.0	1741.0	1741.0	1753.0	1753.0	1744.0	1744.0	1744.0	1717.0	1717.0	1748.0	1748.0	1748.0	1746.0	1746.0	1725.0	1725.0	1725.0	1720.0	1720.0	1732.0	1732.0	1732.0	1717.0	1717.0	1736.0	1736.0	1736.0	1712.0	1712.0	1736.0	1736.0	1736.0	1696.0	1696.0	1712.0	1712.0	1712.0	1731.0	1731.0	1731.0	1731.0	1731.0	1694.0	1694.0	1715.0	1715.0	1715.0	1720.0	1720.0	1674.0	1674.0	1674.0	1688.0	1688.0	1680.0	1680.0	1680.0	1685.0	1685.0	1682.0	1682.0	1682.0	1672.0	1672.0	1692.0	1692.0	1692.0	1686.0	1686.0	1708.0	1708.0	1708.0	1677.0	1677.0	1692.0	1692.0	1692.0	1659.0	1659.0	1696.0	1696.0	1696.0	1707.0	1707.0	1676.0	1676.0	1676.0	1681.0	1681.0	1696.0	1696.0	1696.0	1703.0	1703.0	1669.0	1669.0	1669.0	1685.0	1685.0	1665.0	1665.0	1665.0	1679.0	1679.0	1666.0	1666.0	1666.0	1655.0	1655.0	1698.0	1698.0	1698.0	1685.0	1685.0	1662.0	1662.0	1662.0	1673.0	1673.0	1688.0	1688.0	1688.0	1691.0	1691.0	1649.0	1649.0	1649.0	1646.0	1646.0	1680.0	1680.0	1680.0	1680.0	1680.0	1661.0	1661.0	1661.0	1647.0	1647.0	1662.0	1662.0	1662.0	1665.0	1665.0	1670.0	1670.0	1670.0	1655.0	1655.0	1641.0	1641.0	1641.0	1684.0	1684.0	1658.0	1658.0	1658.0	1634.0	1634.0	1664.0	1664.0	1664.0	1639.0	1639.0	1635.0	1635.0	1635.0	1625.0	1625.0	1651.0	1651.0	1651.0	1656.0	1656.0	1657.0	1657.0	1657.0	1655.0	1655.0	1650.0	1650.0	1650.0	1636.0	1636.0	1622.0	1622.0	1622.0	1621.0	1621.0	1651.0	1651.0	1651.0	1626.0	1626.0	1661.0	1661.0	1661.0	1652.0	1652.0	1666.0	1666.0	1622.0	1622.0	1622.0	1626.0	1626.0	1632.0	1632.0	1632.0	1614.0	1614.0	1638.0	1638.0	1638.0	1621.0	1621.0	1654.0	1654.0	1654.0	1653.0	1653.0	1614.0	1614.0	1614.0	1653.0	1653.0	1649.0	1649.0	1649.0	1662.0	1662.0	1617.0	1617.0	1617.0	1646.0	1646.0	1612.0	1612.0	1612.0	1660.0	1660.0	1665.0	1665.0	1665.0	1662.0	1662.0	1633.0	1633.0	1633.0	1631.0	1631.0	1662.0	1662.0	1662.0	1651.0	1651.0	1615.0	1615.0	1615.0	1671.0	1671.0	1645.0	1645.0	1645.0	1666.0	1666.0	1626.0	1626.0	1626.0	1648.0	1648.0	1642.0	1642.0	1642.0	1652.0	1652.0	1622.0	1622.0	1622.0	1654.0	1654.0	1611.0	1611.0	1611.0	1613.0	1613.0	1656.0	1656.0	1656.0	1671.0	1671.0	1655.0	1655.0	1655.0	1643.0	1643.0	1667.0	1667.0	1667.0	1659.0	1659.0	1622.0	1622.0	1622.0	1657.0	1657.0	1667.0	1667.0	1667.0	1641.0	1641.0	1654.0	1654.0	1654.0	1649.0	1649.0	1623.0	1623.0	1623.0	1662.0	1662.0	1619.0	1619.0	1619.0	1648.0	1648.0	1608.0	1608.0	1608.0	1660.0	1660.0	1617.0	1617.0	1617.0	1627.0	1627.0	1664.0	1664.0	1664.0	1653.0	1653.0	1656.0	1656.0	1656.0	1630.0	1630.0	1639.0	1639.0	1639.0	1631.0	1631.0	1642.0	1642.0	1642.0	1614.0	1614.0	1610.0	1610.0	1610.0	1627.0	1627.0	1650.0	1650.0	1650.0	1644.0	1644.0	1659.0	1659.0	1659.0	1607.0	1607.0	1627.0	1627.0	1627.0	1625.0	1625.0	1606.0	1606.0	1606.0	1664.0	1664.0	1619.0	1619.0	1619.0	1634.0	1634.0	1619.0	1619.0	1619.0	1662.0	1662.0	1643.0	1643.0	1643.0	1649.0	1649.0	1649.0	1649.0	1649.0	1703.0	1703.0	1698.0	1698.0	1703.0	1703.0	1703.0	1725.0	1725.0	1745.0	1745.0	1745.0	1763.0	1763.0	1776.0	1776.0	1776.0	1838.0	1838.0	1823.0	1823.0	1823.0	1861.0	1861.0	1866.0	1866.0	1866.0	1928.0	1928.0	1946.0	1946.0	1946.0	1989.0	1989.0	2009.0	2009.0	2009.0	2048.0	2048.0	2045.0	2045.0	2045.0	2103.0	2103.0	2135.0	2135.0	2135.0	2134.0	2134.0	2174.0	2174.0	2174.0	2181.0	2181.0	2230.0	2230.0	2230.0	2211.0	2211.0	2242.0	2242.0	2242.0	2267.0	2267.0	2278.0	2278.0	2278.0	2296.0	2296.0	2313.0	2313.0	2313.0	2335.0	2335.0	2338.0	2338.0	2338.0	2357.0	2357.0	2399.0	2399.0	2399.0	2430.0	2430.0	2421.0	2421.0	2421.0	2405.0	2405.0	2444.0	2444.0	2444.0	2445.0	2445.0	2475.0	2475.0	2475.0	2450.0	2450.0	2495.0	2495.0	2495.0	2471.0	2471.0	2484.0	2484.0	2484.0	2494.0	2494.0	2488.0	2488.0	2488.0	2506.0	2506.0	2514.0	2514.0	2514.0	2544.0	2544.0	2514.0	2514.0	2514.0	2546.0	2546.0	2548.0	2548.0	2548.0	2537.0	2537.0	2538.0	2538.0	2538.0	2551.0	2551.0	2575.0	2575.0	2575.0	2550.0	2550.0	2543.0	2543.0	2543.0	2536.0	2536.0	2545.0	2545.0	2545.0	2553.0	2553.0	2562.0	2562.0	2562.0	2587.0	2587.0	2582.0	2582.0	2582.0	2565.0	2565.0	2560.0	2560.0	2560.0	2585.0	2585.0	2576.0	2576.0	2576.0	2563.0	2563.0	2587.0	2587.0	2587.0	2575.0	2575.0	2590.0	2590.0	2590.0	2590.0	2590.0	2591.0	2591.0	2591.0	2607.0	2607.0	2618.0	2618.0	2618.0	2627.0	2627.0	2613.0	2613.0	2613.0	2593.0	2593.0	2597.0	2597.0	2597.0	2596.0	2596.0	2598.0	2598.0	2598.0	2592.0	2592.0	2608.0	2608.0	2608.0	2631.0	2631.0	2607.0	2607.0	2617.0	2617.0	2617.0	2605.0	2605.0	2619.0	2619.0	2619.0	2620.0	2620.0	2618.0	2618.0	2618.0	2592.0	2592.0	2586.0	2586.0	2586.0	2596.0	2596.0	2615.0	2615.0	2615.0	2599.0	2599.0	2588.0	2588.0	2588.0	2578.0	2578.0	2576.0	2576.0	2576.0	2605.0	2605.0	2582.0	2582.0	2582.0	2576.0	2576.0	2569.0	2569.0	2569.0	2566.0	2566.0	2533.0	2533.0	2533.0	2543.0	2543.0	2531.0	2531.0	2531.0	2504.0	2504.0	2494.0	2494.0	2494.0	2503.0	2503.0	2474.0	2474.0	2474.0	2471.0	2471.0	2428.0	2428.0	2428.0	2451.0	2451.0	2427.0	2427.0	2427.0	2423.0	2423.0	2407.0	2407.0	2407.0	2395.0	2395.0	2385.0	2385.0	2385.0	2373.0	2373.0	2347.0	2347.0	2347.0	2360.0	2360.0	2343.0	2343.0	2343.0	2305.0	2305.0	2302.0	2302.0	2302.0	2278.0	2278.0	2325.0	2325.0	2325.0	2295.0	2295.0	2262.0	2262.0	2262.0	2287.0	2287.0	2256.0	2256.0	2256.0	2238.0	2238.0	2260.0	2260.0	2260.0	2255.0	2255.0	2248.0	2248.0	2248.0	2231.0	2231.0	2219.0	2219.0	2219.0	2247.0	2247.0	2203.0	2203.0	2203.0	2225.0	2225.0	2206.0	2206.0	2206.0	2209.0	2209.0	2218.0	2218.0	2218.0	2177.0	2177.0	2164.0	2164.0	2164.0	2203.0	2203.0	2182.0	2182.0	2182.0	2162.0	2162.0	2194.0	2194.0	2194.0	2174.0	2174.0	2170.0	2170.0	2170.0	2178.0	2178.0	2168.0	2168.0	2168.0	2129.0	2129.0	2131.0	2131.0	2131.0	2148.0	2148.0	2149.0	2149.0	2149.0	2107.0	2107.0	2134.0	2134.0	2134.0	2104.0	2104.0	2120.0	2120.0	2120.0	2094.0	2094.0	2097.0	2097.0	2097.0	2076.0	2076.0	2101.0	2101.0	2101.0	2081.0	2081.0	2070.0	2070.0	2057.0	2057.0	2057.0	2079.0	2079.0	2065.0	2065.0	2065.0	2048.0	2048.0	2083.0	2083.0	2083.0	2065.0	2065.0	2024.0	2024.0	2024.0	2058.0	2058.0	2039.0	2039.0	2039.0	2018.0	2018.0	2043.0	2043.0	2043.0	2025.0	2025.0	2026.0	2026.0	2026.0	2007.0	2007.0	2012.0	2012.0	2012.0	2011.0	2011.0	1990.0	1990.0	1990.0	2008.0	2008.0	1992.0	1992.0	1992.0	1950.0	1950.0	1972.0	1972.0	1972.0	1984.0	1984.0	1961.0	1961.0	1961.0	1966.0	1966.0	1946.0	1946.0	1946.0	1945.0	1945.0	1977.0	1977.0	1977.0	1916.0	1916.0	1957.0	1957.0	1957.0	1944.0	1944.0	1902.0	1902.0	1902.0	1902.0	1902.0	1887.0	1887.0	1887.0	1883.0	1883.0	1877.0	1877.0	1877.0	1924.0	1924.0	1892.0	1892.0	1892.0	1862.0	1862.0	1904.0	1904.0	1904.0	1856.0	1856.0	1904.0	1904.0	1904.0	1849.0	1849.0	1859.0	1859.0	1859.0	1873.0	1873.0	1889.0	1889.0	1889.0	1859.0	1859.0	1846.0	1846.0	1846.0	1849.0	1849.0	1864.0	1864.0	1864.0	1862.0	1862.0	1843.0	1843.0	1843.0	1826.0	1826.0	1835.0	1835.0	1835.0	1840.0	1840.0	1813.0	1813.0	1813.0	1823.0	1823.0	1827.0	1827.0	1827.0	1830.0	1830.0	1787.0	1787.0	1787.0	1827.0	1827.0	1790.0	1790.0	1790.0	1811.0	1811.0	1785.0	1785.0	1785.0	1777.0	1777.0	1801.0	1801.0	1801.0	1800.0	1800.0	1778.0	1778.0	1778.0	1807.0	1807.0	1806.0	1806.0	1806.0	1791.0	1791.0	1780.0	1780.0	1780.0	1760.0	1760.0	1761.0	1761.0	1761.0	1804.0	1804.0	1766.0	1766.0	1766.0	1788.0	1788.0	1746.0	1746.0	1746.0	1749.0	1749.0	1798.0	1798.0	1798.0	1769.0	1769.0	1771.0	1771.0	1740.0	1740.0	1740.0	1769.0	1769.0	1771.0	1771.0	1771.0	1779.0	1779.0	1786.0	1786.0	1786.0	1766.0	1766.0	1792.0	1792.0	1792.0	1739.0	1739.0	1764.0	1764.0	1764.0	1728.0	1728.0	1741.0	1741.0	1741.0	1759.0	1759.0	1757.0	1757.0	1757.0	1720.0	1720.0	1740.0	1740.0	1740.0	1722.0	1722.0	1759.0	1759.0	1759.0	1721.0	1721.0	1721.0	1721.0	1721.0	1734.0	1734.0	1742.0	1742.0	1742.0	1736.0	1736.0	1728.0	1728.0	1728.0	1730.0	1730.0	1733.0	1733.0	1733.0	1735.0	1735.0	1708.0	1708.0	1708.0	1700.0	1700.0	1687.0	1687.0	1687.0	1755.0	1755.0	1711.0	1711.0	1711.0	1687.0	1687.0	1704.0	1704.0	1704.0	1679.0	1679.0	1732.0	1732.0	1732.0	1701.0	1701.0	1723.0	1723.0	1723.0	1711.0	1711.0	1731.0	1731.0	1731.0	1677.0	1677.0	1720.0	1720.0	1720.0	1705.0	1705.0	1696.0	1696.0	1696.0	1710.0	1710.0	1710.0	1710.0	1710.0	1683.0	1683.0	1666.0	1666.0	1666.0	1657.0	1657.0	1712.0	1712.0	1712.0	1695.0	1695.0	1696.0	1696.0	1696.0	1700.0	1700.0	1679.0	1679.0	1679.0	1661.0	1661.0	1689.0	1689.0	1689.0	1684.0	1684.0	1687.0	1687.0	1687.0	1662.0	1662.0	1645.0	1645.0	1645.0	1644.0	1644.0	1693.0	1693.0	1693.0	1649.0	1649.0	1690.0	1690.0	1690.0	1642.0	1642.0	1669.0	1669.0	1669.0	1648.0	1648.0	1692.0	1692.0	1692.0	1643.0	1643.0	1634.0	1634.0	1634.0	1668.0	1668.0	1658.0	1658.0	1658.0	1649.0	1649.0	1673.0	1673.0	1673.0	1655.0	1655.0	1668.0	1668.0	1668.0	1675.0	1675.0	1634.0	1634.0	1634.0	1646.0	1646.0	1625.0	1625.0	1625.0	1632.0	1632.0	1630.0	1630.0	1630.0	1644.0	1644.0	1630.0	1630.0	1644.0	1644.0	1644.0	1667.0	1667.0	1620.0	1620.0	1620.0	1630.0	1630.0	1636.0	1636.0	1636.0	1633.0	1633.0	1644.0	1644.0	1644.0	1652.0	1652.0	1626.0	1626.0	1626.0	1624.0	1624.0	1625.0	1625.0	1625.0	1623.0	1623.0	1646.0	1646.0	1646.0	1611.0	1611.0	1654.0	1654.0	1654.0	1621.0	1621.0	1664.0	1664.0	1664.0	1630.0	1630.0	1631.0	1631.0	1631.0	1654.0	1654.0	1632.0	1632.0	1632.0	1621.0	1621.0	1638.0	1638.0	1638.0	1645.0	1645.0	1640.0	1640.0	1640.0	1623.0	1623.0	1661.0	1661.0	1661.0	1636.0	1636.0	1675.0	1675.0	1675.0	1663.0	1663.0	1632.0	1632.0	1632.0	1654.0	1654.0	1635.0	1635.0	1635.0	1647.0	1647.0	1646.0	1646.0	1646.0	1676.0	1676.0	1647.0	1647.0	1647.0	1677.0	1677.0	1652.0	1652.0	1652.0	1685.0	1685.0	1688.0	1688.0	1688.0	1686.0	1686.0	1630.0	1630.0	1630.0	1672.0	1672.0	1638.0	1638.0	1638.0	1686.0	1686.0	1650.0	1650.0	1650.0	1670.0	1670.0	1627.0	1627.0	1627.0	1648.0	1648.0	1661.0	1661.0	1661.0	1662.0	1662.0	1633.0	1633.0	1633.0	1646.0	1646.0	1668.0	1668.0	1668.0	1655.0	1655.0	1646.0	1646.0	1646.0	1665.0	1665.0	1639.0	1639.0	1639.0	1623.0	1623.0	1630.0	1630.0	1630.0	1666.0	1666.0	1659.0	1659.0	1659.0	1650.0	1650.0	1649.0	1649.0	1649.0	1655.0	1655.0	1634.0	1634.0	1634.0	1628.0	1628.0	1670.0	1670.0	1670.0	1670.0	1670.0	1651.0	1651.0	1651.0	1638.0	1638.0	1683.0	1683.0	1683.0	1635.0	1635.0	1675.0	1675.0	1675.0	1644.0	1644.0	1674.0	1674.0	1674.0	1688.0	1688.0	1683.0	1683.0	1683.0	1692.0	1692.0	1696.0	1696.0	1692.0	1692.0	1692.0	1676.0	1676.0	1707.0	1707.0	1707.0	1719.0	1719.0	1718.0	1718.0	1718.0	1760.0	1760.0	1756.0	1756.0	1756.0	1743.0	1743.0	1784.0	1784.0	1784.0	1781.0	1781.0	1811.0	1811.0	1811.0	1866.0	1866.0	1847.0	1847.0	1847.0	1885.0	1885.0	1938.0	1938.0	1938.0	1929.0	1929.0	1994.0	1994.0	1994.0	2039.0	2039.0	2033.0	2033.0	2033.0	2077.0	2077.0	2070.0	2070.0	2070.0	2130.0	2130.0	2136.0	2136.0	2136.0	2172.0	2172.0	2214.0	2214.0	2214.0	2223.0	2223.0	2240.0	2240.0	2240.0	2267.0	2267.0	2287.0	2287.0	2287.0	2329.0	2329.0	2334.0	2334.0	2334.0	2376.0	2376.0	2353.0	2353.0	2353.0	2355.0	2355.0	2369.0	2369.0	2369.0	2425.0	2425.0	2411.0	2411.0	2411.0	2423.0	2423.0	2447.0	2447.0	2447.0	2475.0	2475.0	2464.0	2464.0	2464.0	2485.0	2485.0	2491.0	2491.0	2491.0	2493.0	2493.0	2511.0	2511.0	2511.0	2497.0	2497.0	2512.0	2512.0	2512.0	2501.0	2501.0	2514.0	2514.0	2514.0	2547.0	2547.0	2542.0	2542.0	2542.0	2540.0	2540.0	2537.0	2537.0	2537.0	2540.0	2540.0	2544.0	2544.0	2544.0	2555.0	2555.0	2549.0	2549.0	2549.0	2561.0	2561.0	2546.0	2546.0	2546.0	2578.0	2578.0	2585.0	2585.0	2585.0	2590.0	2590.0	2575.0	2575.0	2575.0	2562.0	2562.0	2575.0	2575.0	2575.0	2593.0	2593.0	2571.0	2571.0	2571.0	2603.0	2603.0	2586.0	2586.0	2586.0	2585.0	2585.0	2579.0	2579.0	2579.0	2616.0	2616.0	2616.0	2616.0	2616.0	2583.0	2583.0	2589.0	2589.0	2589.0	2608.0	2608.0	2599.0	2599.0	2599.0	2623.0	2623.0	2611.0	2611.0	2611.0	2595.0	2595.0	2638.0	2638.0	2638.0	2646.0	2646.0	2627.0	2627.0	2637.0	2637.0	2637.0	2639.0	2639.0	2635.0	2635.0	2635.0	2628.0	2628.0	2632.0	2632.0	2632.0	2656.0	2656.0	2621.0	2621.0	2621.0	2619.0	2619.0	2619.0	2619.0	2619.0	2656.0	2656.0	2654.0	2654.0	2654.0	2636.0	2636.0	2661.0	2661.0	2661.0	2647.0	2647.0	2635.0	2635.0	2635.0	2616.0	2616.0	2635.0	2635.0	2635.0	2629.0	2629.0	2618.0	2618.0	2618.0	2603.0	2603.0	2608.0	2608.0	2608.0	2613.0	2613.0	2582.0	2582.0	2582.0	2595.0	2595.0	2562.0	2562.0	2562.0	2597.0	2597.0	2590.0	2590.0	2590.0	2568.0	2568.0	2538.0	2538.0	2538.0	2536.0	2536.0	2560.0	2560.0	2560.0	2512.0	2512.0	2522.0	2522.0	2522.0	2513.0	2513.0	2476.0	2476.0	2476.0	2464.0	2464.0	2448.0	2448.0	2448.0	2457.0	2457.0	2433.0	2433.0	2433.0	2395.0	2395.0	2400.0	2400.0	2400.0	2414.0	2414.0	2384.0	2384.0	2384.0	2363.0	2363.0	2385.0	2385.0	2385.0	2386.0	2386.0	2357.0	2357.0	2357.0	2374.0	2374.0	2366.0	2366.0	2366.0	2359.0	2359.0	2339.0	2339.0	2339.0	2341.0	2341.0	2331.0	2331.0	2331.0	2285.0	2285.0	2300.0	2300.0	2300.0	2276.0	2276.0	2274.0	2274.0	2274.0	2274.0	2274.0	2275.0	2275.0	2275.0	2265.0	2265.0	2295.0	2295.0	2295.0	2257.0	2257.0	2264.0	2264.0	2264.0	2255.0	2255.0	2270.0	2270.0	2270.0	2244.0	2244.0	2267.0	2267.0	2267.0	2240.0	2240.0	2233.0	2233.0	2233.0	2224.0	2224.0	2197.0	2197.0	2197.0	2207.0	2207.0	2244.0	2244.0	2244.0	2182.0	2182.0	2215.0	2215.0	2215.0	2181.0	2181.0	2177.0	2177.0	2177.0	2200.0	2200.0	2178.0	2178.0	2178.0	2157.0	2157.0	2178.0	2178.0	2165.0	2165.0	2165.0	2165.0	2165.0	2169.0	2169.0	2169.0	2157.0	2157.0	2150.0	2150.0	2150.0	2119.0	2119.0	2124.0	2124.0	2124.0	2109.0	2109.0	2132.0	2132.0	2132.0	2094.0	2094.0	2124.0	2124.0	2124.0	2085.0	2085.0	2091.0	2091.0	2091.0	2080.0	2080.0	2095.0	2095.0	2095.0	2081.0	2081.0	2059.0	2059.0	2059.0	2057.0	2057.0	2063.0	2063.0	2063.0	2052.0	2052.0	2077.0	2077.0	2077.0	2046.0	2046.0	2020.0	2020.0	2020.0	