1877.0	1877.0	1880.0	1880.0	1870.0	1870.0	1870.0	1822.0	1822.0	1854.0	1854.0	1854.0	1869.0	1869.0	1841.0	1841.0	1841.0	1816.0	1816.0	1825.0	1825.0	1825.0	1857.0	1857.0	1852.0	1852.0	1852.0	1852.0	1852.0	1798.0	1798.0	1798.0	1847.0	1847.0	1833.0	1833.0	1833.0	1797.0	1797.0	1810.0	1810.0	1810.0	1848.0	1848.0	1831.0	1831.0	1831.0	1818.0	1818.0	1775.0	1775.0	1775.0	1767.0	1767.0	1822.0	1822.0	1822.0	1772.0	1772.0	1801.0	1801.0	1801.0	1792.0	1792.0	1771.0	1771.0	1771.0	1790.0	1790.0	1806.0	1806.0	1806.0	1768.0	1768.0	1784.0	1784.0	1784.0	1808.0	1808.0	1811.0	1811.0	1811.0	1797.0	1797.0	1758.0	1758.0	1758.0	1782.0	1782.0	1795.0	1795.0	1795.0	1756.0	1756.0	1802.0	1802.0	1802.0	1758.0	1758.0	1745.0	1745.0	1745.0	1752.0	1752.0	1755.0	1755.0	1755.0	1738.0	1738.0	1779.0	1779.0	1779.0	1766.0	1766.0	1750.0	1750.0	1750.0	1732.0	1732.0	1794.0	1794.0	1794.0	1746.0	1746.0	1731.0	1731.0	1731.0	1773.0	1773.0	1719.0	1719.0	1719.0	1721.0	1721.0	1720.0	1720.0	1720.0	1734.0	1734.0	1760.0	1760.0	1760.0	1765.0	1765.0	1712.0	1712.0	1710.0	1710.0	1710.0	1718.0	1718.0	1718.0	1718.0	1718.0	1755.0	1755.0	1717.0	1717.0	1717.0	1718.0	1718.0	1747.0	1747.0	1747.0	1715.0	1715.0	1745.0	1745.0	1745.0	1727.0	1727.0	1690.0	1690.0	1690.0	1725.0	1725.0	1727.0	1727.0	1727.0	1740.0	1740.0	1709.0	1709.0	1709.0	1730.0	1730.0	1743.0	1743.0	1743.0	1697.0	1697.0	1697.0	1697.0	1697.0	1743.0	1743.0	1693.0	1693.0	1693.0	1715.0	1715.0	1736.0	1736.0	1736.0	1681.0	1681.0	1677.0	1677.0	1677.0	1694.0	1694.0	1693.0	1693.0	1693.0	1695.0	1695.0	1690.0	1690.0	1690.0	1706.0	1706.0	1711.0	1711.0	1711.0	1677.0	1677.0	1703.0	1703.0	1703.0	1707.0	1707.0	1684.0	1684.0	1684.0	1712.0	1712.0	1732.0	1732.0	1732.0	1713.0	1713.0	1728.0	1728.0	1728.0	1727.0	1727.0	1718.0	1718.0	1718.0	1693.0	1693.0	1709.0	1709.0	1709.0	1674.0	1674.0	1705.0	1705.0	1705.0	1720.0	1720.0	1719.0	1719.0	1719.0	1713.0	1713.0	1689.0	1689.0	1689.0	1723.0	1723.0	1659.0	1659.0	1659.0	1718.0	1718.0	1687.0	1687.0	1687.0	1658.0	1658.0	1655.0	1655.0	1655.0	1671.0	1671.0	1667.0	1667.0	1667.0	1660.0	1660.0	1674.0	1674.0	1674.0	1667.0	1667.0	1673.0	1673.0	1673.0	1672.0	1672.0	1681.0	1681.0	1681.0	1663.0	1663.0	1687.0	1687.0	1687.0	1652.0	1652.0	1649.0	1649.0	1649.0	1644.0	1644.0	1687.0	1687.0	1687.0	1655.0	1655.0	1663.0	1663.0	1663.0	1694.0	1694.0	1710.0	1710.0	1710.0	1644.0	1644.0	1663.0	1663.0	1663.0	1657.0	1657.0	1649.0	1649.0	1649.0	1700.0	1700.0	1688.0	1688.0	1688.0	1691.0	1691.0	1635.0	1635.0	1635.0	1706.0	1706.0	1648.0	1648.0	1677.0	1677.0	1677.0	1651.0	1651.0	1648.0	1648.0	1648.0	1638.0	1638.0	1673.0	1673.0	1673.0	1666.0	1666.0	1647.0	1647.0	1647.0	1650.0	1650.0	1626.0	1626.0	1626.0	1638.0	1638.0	1667.0	1667.0	1667.0	1622.0	1622.0	1628.0	1628.0	1628.0	1631.0	1631.0	1625.0	1625.0	1625.0	1630.0	1630.0	1694.0	1694.0	1694.0	1679.0	1679.0	1656.0	1656.0	1656.0	1626.0	1626.0	1639.0	1639.0	1639.0	1656.0	1656.0	1692.0	1692.0	1692.0	1696.0	1696.0	1636.0	1636.0	1636.0	1696.0	1696.0	1676.0	1676.0	1676.0	1704.0	1704.0	1691.0	1691.0	1691.0	1713.0	1713.0	1660.0	1660.0	1660.0	1734.0	1734.0	1690.0	1690.0	1690.0	1730.0	1730.0	1729.0	1729.0	1729.0	1752.0	1752.0	1764.0	1764.0	1764.0	1833.0	1833.0	1800.0	1800.0	1800.0	1833.0	1833.0	1898.0	1898.0	1898.0	1912.0	1912.0	1913.0	1913.0	1913.0	1984.0	1984.0	1943.0	1943.0	1943.0	2042.0	2042.0	2042.0	2042.0	2042.0	2065.0	2065.0	2071.0	2071.0	2071.0	2158.0	2158.0	2136.0	2136.0	2136.0	2193.0	2193.0	2211.0	2211.0	2211.0	2255.0	2255.0	2280.0	2280.0	2280.0	2258.0	2258.0	2302.0	2302.0	2302.0	2341.0	2341.0	2366.0	2366.0	2366.0	2336.0	2336.0	2371.0	2371.0	2371.0	2372.0	2372.0	2437.0	2437.0	2437.0	2402.0	2402.0	2476.0	2476.0	2476.0	2467.0	2467.0	2454.0	2454.0	2454.0	2451.0	2451.0	2476.0	2476.0	2476.0	2529.0	2529.0	2532.0	2532.0	2532.0	2499.0	2499.0	2525.0	2525.0	2525.0	2545.0	2545.0	2551.0	2551.0	2551.0	2543.0	2543.0	2546.0	2546.0	2546.0	2587.0	2587.0	2538.0	2538.0	2538.0	2575.0	2575.0	2555.0	2555.0	2589.0	2589.0	2589.0	2619.0	2619.0	2601.0	2601.0	2601.0	2613.0	2613.0	2603.0	2603.0	2603.0	2631.0	2631.0	2636.0	2636.0	2636.0	2629.0	2629.0	2600.0	2600.0	2600.0	2579.0	2579.0	2627.0	2627.0	2627.0	2615.0	2615.0	2583.0	2583.0	2583.0	2638.0	2638.0	2595.0	2595.0	2595.0	2596.0	2596.0	2594.0	2594.0	2594.0	2601.0	2601.0	2617.0	2617.0	2617.0	2623.0	2623.0	2626.0	2626.0	2626.0	2583.0	2583.0	2587.0	2587.0	2587.0	2612.0	2612.0	2632.0	2632.0	2632.0	2588.0	2588.0	2622.0	2622.0	2622.0	2579.0	2579.0	2596.0	2596.0	2596.0	2639.0	2639.0	2584.0	2584.0	2584.0	2602.0	2602.0	2621.0	2621.0	2621.0	2573.0	2573.0	2593.0	2593.0	2593.0	2610.0	2610.0	2608.0	2608.0	2608.0	2585.0	2585.0	2633.0	2633.0	2633.0	2594.0	2594.0	2605.0	2605.0	2605.0	2614.0	2614.0	2613.0	2613.0	2613.0	2553.0	2553.0	2584.0	2584.0	2584.0	2609.0	2609.0	2595.0	2595.0	2595.0	2605.0	2605.0	2563.0	2563.0	2563.0	2599.0	2599.0	2600.0	2600.0	2600.0	2545.0	2545.0	2584.0	2584.0	2584.0	2558.0	2558.0	2551.0	2551.0	2551.0	2568.0	2568.0	2533.0	2533.0	2533.0	2562.0	2562.0	2554.0	2554.0	2554.0	2543.0	2543.0	2494.0	2494.0	2494.0	2526.0	2526.0	2527.0	2527.0	2527.0	2468.0	2468.0	2511.0	2511.0	2511.0	2494.0	2494.0	2475.0	2475.0	2475.0	2445.0	2445.0	2435.0	2435.0	2435.0	2445.0	2445.0	2463.0	2463.0	2463.0	2393.0	2393.0	2377.0	2377.0	2377.0	2425.0	2425.0	2425.0	2425.0	2425.0	2404.0	2404.0	2407.0	2407.0	2407.0	2341.0	2341.0	2365.0	2365.0	2365.0	2312.0	2312.0	2363.0	2363.0	2363.0	2352.0	2352.0	2352.0	2352.0	2310.0	2310.0	2310.0	2334.0	2334.0	2294.0	2294.0	2294.0	2299.0	2299.0	2320.0	2320.0	2320.0	2258.0	2258.0	2303.0	2303.0	2303.0	2242.0	2242.0	2236.0	2236.0	2236.0	2283.0	2283.0	2253.0	2253.0	2253.0	2238.0	2238.0	2247.0	2247.0	2247.0	2251.0	2251.0	2273.0	2273.0	2273.0	2224.0	2224.0	2277.0	2277.0	2277.0	2232.0	2232.0	2240.0	2240.0	2240.0	2243.0	2243.0	2209.0	2209.0	2209.0	2213.0	2213.0	2216.0	2216.0	2216.0	2223.0	2223.0	2197.0	2197.0	2197.0	2211.0	2211.0	2225.0	2225.0	2225.0	2249.0	2249.0	2241.0	2241.0	2241.0	2195.0	2195.0	2202.0	2202.0	2202.0	2207.0	2207.0	2189.0	2189.0	2189.0	2185.0	2185.0	2175.0	2175.0	2175.0	2171.0	2171.0	2170.0	2170.0	2170.0	2186.0	2186.0	2164.0	2164.0	2164.0	2192.0	2192.0	2164.0	2164.0	2164.0	2168.0	2168.0	2137.0	2137.0	2137.0	2158.0	2158.0	2149.0	2149.0	2149.0	2177.0	2177.0	2150.0	2150.0	2150.0	2150.0	2150.0	2165.0	2165.0	2165.0	2132.0	2132.0	2155.0	2155.0	2155.0	2104.0	2104.0	2116.0	2116.0	2116.0	2091.0	2091.0	2115.0	2115.0	2115.0	2128.0	2128.0	2134.0	2134.0	2134.0	2122.0	2122.0	2067.0	2067.0	2067.0	2053.0	2053.0	2089.0	2089.0	2089.0	2054.0	2054.0	2086.0	2086.0	2086.0	2072.0	2072.0	2081.0	2081.0	2081.0	2092.0	2092.0	2032.0	2032.0	2032.0	2020.0	2020.0	2067.0	2067.0	2067.0	2057.0	2057.0	2019.0	2019.0	2019.0	2044.0	2044.0	2054.0	2054.0	2054.0	2046.0	2046.0	2015.0	2015.0	2015.0	2031.0	2031.0	2043.0	2043.0	2043.0	1993.0	1993.0	2036.0	2036.0	2036.0	1984.0	1984.0	1966.0	1966.0	1998.0	1998.0	1998.0	1972.0	1972.0	1972.0	1972.0	1972.0	1987.0	1987.0	1995.0	1995.0	1995.0	1969.0	1969.0	1951.0	1951.0	1951.0	2005.0	2005.0	1947.0	1947.0	1947.0	1948.0	1948.0	1943.0	1943.0	1943.0	1984.0	1984.0	1971.0	1971.0	1971.0	1979.0	1979.0	1927.0	1927.0	1927.0	1945.0	1945.0	1922.0	1922.0	1922.0	1940.0	1940.0	1911.0	1911.0	1911.0	1906.0	1906.0	1958.0	1958.0	1958.0	1895.0	1895.0	1892.0	1892.0	1892.0	1945.0	1945.0	1891.0	1891.0	1891.0	1947.0	1947.0	1901.0	1901.0	1901.0	1904.0	1904.0	1941.0	1941.0	1941.0	1914.0	1914.0	1873.0	1873.0	1873.0	1879.0	1879.0	1918.0	1918.0	1918.0	1916.0	1916.0	1852.0	1852.0	1852.0	1910.0	1910.0	1911.0	1911.0	1911.0	1889.0	1889.0	1853.0	1853.0	1853.0	1860.0	1860.0	1857.0	1857.0	1857.0	1880.0	1880.0	1897.0	1897.0	1897.0	1866.0	1866.0	1866.0	1866.0	1866.0	1855.0	1855.0	1823.0	1823.0	1823.0	1829.0	1829.0	1875.0	1875.0	1875.0	1827.0	1827.0	1873.0	1873.0	1873.0	1860.0	1860.0	1864.0	1864.0	1864.0	1813.0	1813.0	1827.0	1827.0	1827.0	1862.0	1862.0	1817.0	1817.0	1817.0	1813.0	1813.0	1828.0	1828.0	1828.0	1803.0	1803.0	1807.0	1807.0	1807.0	1801.0	1801.0	1829.0	1829.0	1829.0	1814.0	1814.0	1831.0	1831.0	1831.0	1794.0	1794.0	1786.0	1786.0	1786.0	1844.0	1844.0	1807.0	1807.0	1807.0	1795.0	1795.0	1768.0	1768.0	1768.0	1829.0	1829.0	1811.0	1811.0	1811.0	1806.0	1806.0	1764.0	1764.0	1764.0	1764.0	1764.0	1807.0	1807.0	1807.0	1791.0	1791.0	1801.0	1801.0	1801.0	1823.0	1823.0	1747.0	1747.0	1796.0	1796.0	1796.0	1778.0	1778.0	1792.0	1792.0	1792.0	1763.0	1763.0	1811.0	1811.0	1811.0	1801.0	1801.0	1807.0	1807.0	1807.0	1781.0	1781.0	1798.0	1798.0	1798.0	1777.0	1777.0	1773.0	1773.0	1773.0	1746.0	1746.0	1792.0	1792.0	1792.0	1807.0	1807.0	1783.0	1783.0	1783.0	1757.0	1757.0	1724.0	1724.0	1724.0	1759.0	1759.0	1732.0	1732.0	1732.0	1725.0	1725.0	1725.0	1725.0	1725.0	1787.0	1787.0	1777.0	1777.0	1777.0	1772.0	1772.0	1735.0	1735.0	1735.0	1760.0	1760.0	1767.0	1767.0	1767.0	1761.0	1761.0	1755.0	1755.0	1755.0	1774.0	1774.0	1742.0	1742.0	1742.0	1715.0	1715.0	1760.0	1760.0	1760.0	1715.0	1715.0	1720.0	1720.0	1720.0	1766.0	1766.0	1743.0	1743.0	1743.0	1771.0	1771.0	1759.0	1759.0	1759.0	1728.0	1728.0	1766.0	1766.0	1766.0	1702.0	1702.0	1749.0	1749.0	1749.0	1732.0	1732.0	1718.0	1718.0	1718.0	1735.0	1735.0	1736.0	1736.0	1736.0	1705.0	1705.0	1734.0	1734.0	1734.0	1715.0	1715.0	1730.0	1730.0	1730.0	1728.0	1728.0	1698.0	1698.0	1698.0	1697.0	1697.0	1716.0	1716.0	1716.0	1702.0	1702.0	1748.0	1748.0	1748.0	1702.0	1702.0	1693.0	1693.0	1693.0	1712.0	1712.0	1745.0	1745.0	1745.0	1681.0	1681.0	1706.0	1706.0	1706.0	1724.0	1724.0	1734.0	1734.0	1734.0	1711.0	1711.0	1687.0	1687.0	1687.0	1719.0	1719.0	1707.0	1707.0	1707.0	1691.0	1691.0	1741.0	1741.0	1741.0	1694.0	1694.0	1682.0	1682.0	1682.0	1723.0	1723.0	1732.0	1732.0	1732.0	1676.0	1676.0	1716.0	1716.0	1716.0	1736.0	1736.0	1721.0	1721.0	1721.0	1735.0	1735.0	1678.0	1678.0	1678.0	1665.0	1665.0	1717.0	1717.0	1733.0	1733.0	1733.0	1723.0	1723.0	1693.0	1693.0	1693.0	1706.0	1706.0	1730.0	1730.0	1730.0	1732.0	1732.0	1722.0	1722.0	1722.0	1721.0	1721.0	1722.0	1722.0	1722.0	1700.0	1700.0	1659.0	1659.0	1659.0	1696.0	1696.0	1679.0	1679.0	1679.0	1717.0	1717.0	1697.0	1697.0	1697.0	1667.0	1667.0	1665.0	1665.0	1665.0	1663.0	1663.0	1667.0	1667.0	1667.0	1664.0	1664.0	1708.0	1708.0	1708.0	1658.0	1658.0	1659.0	1659.0	1659.0	1690.0	1690.0	1669.0	1669.0	1669.0	1670.0	1670.0	1740.0	1740.0	1740.0	1701.0	1701.0	1718.0	1718.0	1718.0	1769.0	1769.0	1767.0	1767.0	1767.0	1795.0	1795.0	1817.0	1817.0	1817.0	1796.0	1796.0	1789.0	1789.0	1789.0	1814.0	1814.0	1901.0	1901.0	1901.0	1918.0	1918.0	1919.0	1919.0	1919.0	1925.0	1925.0	1960.0	1960.0	1960.0	1982.0	1982.0	2001.0	2001.0	2001.0	2030.0	2030.0	2058.0	2058.0	2058.0	2105.0	2105.0	2105.0	2105.0	2105.0	2138.0	2138.0	2221.0	2221.0	2221.0	2245.0	2245.0	2273.0	2273.0	2273.0	2264.0	2264.0	2285.0	2285.0	2285.0	2333.0	2333.0	2297.0	2297.0	2297.0	2334.0	2334.0	2339.0	2339.0	2339.0	2393.0	2393.0	2379.0	2379.0	2379.0	2397.0	2397.0	2455.0	2455.0	2455.0	2418.0	2418.0	2487.0	2487.0	2487.0	2484.0	2484.0	2453.0	2453.0	2453.0	2525.0	2525.0	2485.0	2485.0	2485.0	2494.0	2494.0	2541.0	2541.0	2541.0	2554.0	2554.0	2516.0	2516.0	2516.0	2551.0	2551.0	2566.0	2566.0	2566.0	2532.0	2532.0	2558.0	2558.0	2558.0	2570.0	2570.0	2576.0	2576.0	2576.0	2568.0	2568.0	2537.0	2537.0	2537.0	2571.0	2571.0	2550.0	2550.0	2604.0	2604.0	2604.0	2607.0	2607.0	2599.0	2599.0	2599.0	2556.0	2556.0	2571.0	2571.0	2571.0	2597.0	2597.0	2581.0	2581.0	2581.0	2567.0	2567.0	2593.0	2593.0	2593.0	2582.0	2582.0	2594.0	2594.0	2594.0	2603.0	2603.0	2559.0	2559.0	2559.0	2586.0	2586.0	2594.0	2594.0	2594.0	2553.0	2553.0	2618.0	2618.0	2618.0	2596.0	2596.0	2597.0	2597.0	2597.0	2588.0	2588.0	2624.0	2624.0	2624.0	2616.0	2616.0	2576.0	2576.0	2576.0	2606.0	2606.0	2551.0	2551.0	2551.0	2571.0	2571.0	2566.0	2566.0	2566.0	2547.0	2547.0	2610.0	2610.0	2610.0	2570.0	2570.0	2595.0	2595.0	2595.0	2561.0	2561.0	2556.0	2556.0	2556.0	2599.0	2599.0	2558.0	2558.0	2558.0	2591.0	2591.0	2594.0	2594.0	2594.0	2559.0	2559.0	2535.0	2535.0	2535.0	2535.0	2535.0	2582.0	2582.0	2582.0	2553.0	2553.0	2539.0	2539.0	2539.0	2540.0	2540.0	2568.0	2568.0	2568.0	2525.0	2525.0	2574.0	2574.0	2574.0	2568.0	2568.0	2563.0	2563.0	2563.0	2516.0	2516.0	2519.0	2519.0	2519.0	2537.0	2537.0	2541.0	2541.0	2541.0	2506.0	2506.0	2487.0	2487.0	2487.0	2482.0	2482.0	2477.0	2477.0	2477.0	2498.0	2498.0	2506.0	2506.0	2506.0	2458.0	2458.0	2450.0	2450.0	2450.0	2469.0	2469.0	2454.0	2454.0	2454.0	2436.0	2436.0	2400.0	2400.0	2400.0	2419.0	2419.0	2440.0	2440.0	2440.0	2392.0	2392.0	2424.0	2424.0	2424.0	2367.0	2367.0	2348.0	2348.0	2348.0	2368.0	2368.0	2345.0	2345.0	2345.0	2349.0	2349.0	2345.0	2345.0	2345.0	2316.0	2316.0	2349.0	2349.0	2349.0	2312.0	2312.0	2347.0	2347.0	2347.0	2293.0	2293.0	2279.0	2279.0	2319.0	2319.0	2319.0	2303.0	2303.0	2267.0	2267.0	2267.0	2246.0	2246.0	2288.0	2288.0	2288.0	2272.0	2272.0	2261.0	2261.0	2261.0	2264.0	2264.0	2256.0	2256.0	2256.0	2218.0	2218.0	2273.0	2273.0	2273.0	2251.0	2251.0	2235.0	2235.0	2235.0	2208.0	2208.0	2251.0	2251.0	2251.0	2200.0	2200.0	2188.0	2188.0	2188.0	2215.0	2215.0	2215.0	2215.0	2215.0	2183.0	2183.0	2229.0	2229.0	2229.0	2182.0	2182.0	2184.0	2184.0	2184.0	2189.0	2189.0	2180.0	2180.0	2180.0	2217.0	2217.0	2221.0	2221.0	2221.0	2214.0	2214.0	2165.0	2165.0	2165.0	2169.0	2169.0	2140.0	2140.0	2140.0	2198.0	2198.0	2178.0	2178.0	2178.0	2156.0	2156.0	2142.0	2142.0	2142.0	2156.0	2156.0	2172.0	2172.0	2172.0	2125.0	2125.0	2146.0	2146.0	2146.0	2134.0	2134.0	2163.0	2163.0	2163.0	2165.0	2165.0	2143.0	2143.0	2143.0	2144.0	2144.0	2117.0	2117.0	2117.0	2146.0	2146.0	2142.0	2142.0	2142.0	2096.0	2096.0	2094.0	2094.0	2094.0	2108.0	2108.0	2104.0	2104.0	2104.0	2079.0	2079.0	2099.0	2099.0	2099.0	2070.0	2070.0	2062.0	2062.0	2062.0	2046.0	2046.0	2061.0	2061.0	2061.0	2106.0	2106.0	2106.0	2106.0	2106.0	2038.0	2038.0	2048.0	2048.0	2048.0	2093.0	2093.0	2051.0	2051.0	2051.0	2070.0	2070.0	2061.0	2061.0	2061.0	2016.0	2016.0	2007.0	2007.0	2007.0	2004.0	2004.0	2010.0	2010.0	2010.0	2045.0	2045.0	1994.0	1994.0	1994.0	2003.0	2003.0	1995.0	1995.0	1995.0	2021.0	2021.0	2023.0	2023.0	2023.0	2028.0	2028.0	1984.0	1984.0	1984.0	2006.0	2006.0	2010.0	2010.0	2010.0	1989.0	1989.0	2000.0	2000.0	2000.0	1968.0	1968.0	1960.0	1960.0	1996.0	1996.0	1996.0	1991.0	1991.0	1935.0	1935.0	1935.0	1989.0	1989.0	1967.0	1967.0	1967.0	1982.0	1982.0	1939.0	1939.0	1939.0	1914.0	1914.0	1912.0	1912.0	1912.0	1955.0	1955.0	1955.0	1955.0	1955.0	1901.0	1901.0	1934.0	1934.0	1934.0	1887.0	1887.0	1889.0	1889.0	1889.0	1891.0	1891.0	1911.0	1911.0	1911.0	1891.0	1891.0	1905.0	1905.0	1905.0	1883.0	1883.0	1902.0	1902.0	1902.0	1870.0	1870.0	1875.0	1875.0	1875.0	1857.0	1857.0	1912.0	1912.0	1912.0	1898.0	1898.0	1878.0	1878.0	1878.0	1849.0	1849.0	1853.0	1853.0	1853.0	1852.0	1852.0	1843.0	1843.0	1843.0	1863.0	1863.0	1842.0	1842.0	1842.0	1881.0	1881.0	1877.0	1877.0	1877.0	1852.0	1852.0	1860.0	1860.0	1860.0	1882.0	1882.0	1864.0	1864.0	1864.0	1840.0	1840.0	1845.0	1845.0	1845.0	1835.0	1835.0	1818.0	1818.0	1818.0	1851.0	1851.0	1799.0	1799.0	1799.0	1841.0	1841.0	1813.0	