1863.0	1828.0	1828.0	1826.0	1826.0	1826.0	1850.0	1850.0	1865.0	1865.0	1865.0	1833.0	1833.0	1835.0	1835.0	1835.0	1822.0	1822.0	1875.0	1875.0	1875.0	1861.0	1861.0	1872.0	1872.0	1872.0	1841.0	1841.0	1814.0	1814.0	1814.0	1862.0	1862.0	1806.0	1806.0	1806.0	1820.0	1820.0	1864.0	1864.0	1864.0	1827.0	1827.0	1802.0	1802.0	1802.0	1794.0	1794.0	1809.0	1809.0	1809.0	1845.0	1845.0	1834.0	1834.0	1834.0	1844.0	1844.0	1790.0	1790.0	1790.0	1790.0	1790.0	1794.0	1794.0	1794.0	1783.0	1783.0	1784.0	1784.0	1784.0	1836.0	1836.0	1850.0	1850.0	1850.0	1796.0	1796.0	1848.0	1848.0	1848.0	1801.0	1801.0	1848.0	1848.0	1848.0	1798.0	1798.0	1798.0	1798.0	1798.0	1776.0	1776.0	1847.0	1847.0	1847.0	1824.0	1824.0	1802.0	1802.0	1802.0	1818.0	1818.0	1848.0	1848.0	1848.0	1849.0	1849.0	1798.0	1798.0	1798.0	1843.0	1843.0	1808.0	1808.0	1808.0	1801.0	1801.0	1860.0	1860.0	1860.0	1829.0	1829.0	1830.0	1830.0	1830.0	1888.0	1888.0	1859.0	1859.0	1859.0	1883.0	1883.0	1871.0	1871.0	1899.0	1899.0	1899.0	1903.0	1903.0	1917.0	1917.0	1917.0	1995.0	1995.0	1959.0	1959.0	1959.0	1991.0	1991.0	2019.0	2019.0	2019.0	2002.0	2002.0	2060.0	2060.0	2060.0	2090.0	2090.0	2080.0	2080.0	2080.0	2103.0	2103.0	2141.0	2141.0	2141.0	2160.0	2160.0	2130.0	2130.0	2130.0	2165.0	2165.0	2180.0	2180.0	2180.0	2196.0	2196.0	2207.0	2207.0	2207.0	2255.0	2255.0	2276.0	2276.0	2276.0	2288.0	2288.0	2242.0	2242.0	2242.0	2307.0	2307.0	2266.0	2266.0	2266.0	2283.0	2283.0	2302.0	2302.0	2302.0	2300.0	2300.0	2314.0	2314.0	2314.0	2356.0	2356.0	2320.0	2320.0	2320.0	2313.0	2313.0	2379.0	2379.0	2379.0	2368.0	2368.0	2362.0	2362.0	2362.0	2385.0	2385.0	2388.0	2388.0	2388.0	2376.0	2376.0	2401.0	2401.0	2401.0	2359.0	2359.0	2359.0	2359.0	2359.0	2347.0	2347.0	2397.0	2397.0	2397.0	2418.0	2418.0	2426.0	2426.0	2426.0	2407.0	2407.0	2378.0	2378.0	2378.0	2404.0	2404.0	2391.0	2391.0	2391.0	2395.0	2395.0	2376.0	2376.0	2376.0	2362.0	2362.0	2396.0	2396.0	2396.0	2381.0	2381.0	2408.0	2408.0	2408.0	2364.0	2364.0	2385.0	2385.0	2385.0	2422.0	2422.0	2403.0	2403.0	2403.0	2352.0	2352.0	2346.0	2346.0	2346.0	2393.0	2393.0	2415.0	2415.0	2415.0	2360.0	2360.0	2399.0	2399.0	2399.0	2340.0	2340.0	2392.0	2392.0	2392.0	2381.0	2381.0	2399.0	2399.0	2399.0	2353.0	2353.0	2393.0	2393.0	2393.0	2324.0	2324.0	2368.0	2368.0	2368.0	2342.0	2342.0	2340.0	2340.0	2340.0	2322.0	2322.0	2336.0	2336.0	2336.0	2319.0	2319.0	2345.0	2345.0	2345.0	2321.0	2321.0	2346.0	2346.0	2314.0	2314.0	2314.0	2343.0	2343.0	2319.0	2319.0	2319.0	2295.0	2295.0	2302.0	2302.0	2302.0	2302.0	2302.0	2265.0	2265.0	2265.0	2287.0	2287.0	2256.0	2256.0	2256.0	2238.0	2238.0	2243.0	2243.0	2243.0	2224.0	2224.0	2209.0	2209.0	2209.0	2249.0	2249.0	2195.0	2195.0	2195.0	2228.0	2228.0	2219.0	2219.0	2219.0	2211.0	2211.0	2199.0	2199.0	2199.0	2159.0	2159.0	2201.0	2201.0	2201.0	2167.0	2167.0	2112.0	2112.0	2112.0	2171.0	2171.0	2153.0	2153.0	2153.0	2130.0	2130.0	2130.0	2130.0	2130.0	2079.0	2079.0	2107.0	2107.0	2107.0	2117.0	2117.0	2111.0	2111.0	2111.0	2097.0	2097.0	2039.0	2039.0	2039.0	2045.0	2045.0	2047.0	2047.0	2047.0	2085.0	2085.0	2033.0	2033.0	2033.0	2048.0	2048.0	2071.0	2071.0	2071.0	2028.0	2028.0	2051.0	2051.0	2051.0	2034.0	2034.0	2033.0	2033.0	2033.0	2019.0	2019.0	2036.0	2036.0	2036.0	1982.0	1982.0	2017.0	2017.0	2017.0	2036.0	2036.0	2006.0	2006.0	2006.0	1992.0	1992.0	1974.0	1974.0	1974.0	1999.0	1999.0	2023.0	2023.0	2023.0	1973.0	1973.0	2000.0	2000.0	2000.0	1966.0	1966.0	1954.0	1954.0	1954.0	1994.0	1994.0	1978.0	1978.0	1978.0	1973.0	1973.0	1997.0	1997.0	1997.0	1949.0	1949.0	1966.0	1966.0	1966.0	1969.0	1969.0	1961.0	1961.0	1961.0	1913.0	1913.0	1973.0	1973.0	1973.0	1911.0	1911.0	1937.0	1937.0	1937.0	1939.0	1939.0	1900.0	1900.0	1900.0	1892.0	1892.0	1930.0	1930.0	1930.0	1912.0	1912.0	1919.0	1919.0	1919.0	1929.0	1929.0	1937.0	1937.0	1937.0	1873.0	1873.0	1920.0	1920.0	1920.0	1880.0	1880.0	1856.0	1856.0	1856.0	1913.0	1913.0	1900.0	1900.0	1902.0	1902.0	1902.0	1842.0	1842.0	1855.0	1855.0	1855.0	1855.0	1855.0	1849.0	1849.0	1849.0	1816.0	1816.0	1824.0	1824.0	1824.0	1883.0	1883.0	1829.0	1829.0	1829.0	1843.0	1843.0	1842.0	1842.0	1842.0	1820.0	1820.0	1874.0	1874.0	1874.0	1801.0	1801.0	1841.0	1841.0	1841.0	1848.0	1848.0	1830.0	1830.0	1830.0	1798.0	1798.0	1781.0	1781.0	1781.0	1817.0	1817.0	1792.0	1792.0	1792.0	1794.0	1794.0	1823.0	1823.0	1823.0	1816.0	1816.0	1796.0	1796.0	1796.0	1761.0	1761.0	1832.0	1832.0	1832.0	1799.0	1799.0	1783.0	1783.0	1783.0	1790.0	1790.0	1747.0	1747.0	1747.0	1741.0	1741.0	1737.0	1737.0	1737.0	1741.0	1741.0	1774.0	1774.0	1774.0	1777.0	1777.0	1746.0	1746.0	1746.0	1726.0	1726.0	1762.0	1762.0	1762.0	1774.0	1774.0	1778.0	1778.0	1778.0	1727.0	1727.0	1720.0	1720.0	1720.0	1753.0	1753.0	1732.0	1732.0	1732.0	1704.0	1704.0	1749.0	1749.0	1749.0	1721.0	1721.0	1733.0	1733.0	1733.0	1731.0	1731.0	1733.0	1733.0	1733.0	1767.0	1767.0	1721.0	1721.0	1721.0	1686.0	1686.0	1746.0	1746.0	1746.0	1705.0	1705.0	1741.0	1741.0	1741.0	1677.0	1677.0	1764.0	1764.0	1764.0	1760.0	1760.0	1741.0	1741.0	1741.0	1728.0	1728.0	1723.0	1723.0	1723.0	1692.0	1692.0	1729.0	1729.0	1729.0	1749.0	1749.0	1743.0	1743.0	1743.0	1704.0	1704.0	1688.0	1688.0	1688.0	1739.0	1739.0	1681.0	1681.0	1681.0	1732.0	1732.0	1744.0	1744.0	1744.0	1689.0	1689.0	1680.0	1680.0	1680.0	1705.0	1705.0	1732.0	1732.0	1732.0	1735.0	1735.0	1751.0	1751.0	1751.0	1728.0	1728.0	1711.0	1711.0	1701.0	1701.0	1701.0	1735.0	1735.0	1711.0	1711.0	1711.0	1706.0	1706.0	1710.0	1710.0	1710.0	1757.0	1757.0	1701.0	1701.0	1701.0	1757.0	1757.0	1740.0	1740.0	1740.0	1695.0	1695.0	1738.0	1738.0	1738.0	1704.0	1704.0	1745.0	1745.0	1745.0	1766.0	1766.0	1760.0	1760.0	1760.0	1758.0	1758.0	1768.0	1768.0	1768.0	1751.0	1751.0	1716.0	1716.0	1716.0	1740.0	1740.0	1739.0	1739.0	1739.0	1710.0	1710.0	1731.0	1731.0	1731.0	1774.0	1774.0	1775.0	1775.0	1775.0	1749.0	1749.0	1718.0	1718.0	1718.0	1769.0	1769.0	1720.0	1720.0	1720.0	1783.0	1783.0	1775.0	1775.0	1775.0	1774.0	1774.0	1732.0	1732.0	1732.0	1723.0	1723.0	1728.0	1728.0	1728.0	1733.0	1733.0	1748.0	1748.0	1748.0	1783.0	1783.0	1777.0	1777.0	1777.0	1773.0	1773.0	1802.0	1802.0	1802.0	1747.0	1747.0	1770.0	1770.0	1770.0	1826.0	1826.0	1803.0	1803.0	1803.0	1800.0	1800.0	1823.0	1823.0	1823.0	1849.0	1849.0	1872.0	1872.0	1872.0	1886.0	1886.0	1873.0	1873.0	1873.0	1947.0	1947.0	1939.0	1939.0	1939.0	1972.0	1972.0	1964.0	1964.0	1964.0	2015.0	2015.0	2025.0	2025.0	2025.0	2015.0	2015.0	2029.0	2029.0	2029.0	2040.0	2040.0	2061.0	2061.0	2061.0	2111.0	2111.0	2110.0	2110.0	2110.0	2153.0	2153.0	2179.0	2179.0	2179.0	2147.0	2147.0	2152.0	2152.0	2152.0	2210.0	2210.0	2217.0	2217.0	2217.0	2245.0	2245.0	2241.0	2241.0	2241.0	2230.0	2230.0	2229.0	2229.0	2229.0	2235.0	2235.0	2276.0	2276.0	2276.0	2315.0	2315.0	2272.0	2272.0	2272.0	2303.0	2303.0	2289.0	2289.0	2289.0	2298.0	2298.0	2355.0	2355.0	2303.0	2303.0	2303.0	2354.0	2354.0	2326.0	2326.0	2326.0	2357.0	2357.0	2354.0	2354.0	2354.0	2339.0	2339.0	2347.0	2347.0	2347.0	2351.0	2351.0	2397.0	2397.0	2397.0	2351.0	2351.0	2364.0	2364.0	2364.0	2371.0	2371.0	2358.0	2358.0	2358.0	2351.0	2351.0	2382.0	2382.0	2382.0	2421.0	2421.0	2422.0	2422.0	2422.0	2379.0	2379.0	2379.0	2379.0	2379.0	2419.0	2419.0	2408.0	2408.0	2408.0	2423.0	2423.0	2413.0	2413.0	2413.0	2403.0	2403.0	2424.0	2424.0	2424.0	2374.0	2374.0	2409.0	2409.0	2409.0	2408.0	2408.0	2369.0	2369.0	2369.0	2421.0	2421.0	2421.0	2421.0	2421.0	2408.0	2408.0	2389.0	2389.0	2389.0	2358.0	2358.0	2413.0	2413.0	2413.0	2417.0	2417.0	2406.0	2406.0	2406.0	2418.0	2418.0	2359.0	2359.0	2359.0	2353.0	2353.0	2361.0	2361.0	2361.0	2348.0	2348.0	2342.0	2342.0	2342.0	2412.0	2412.0	2343.0	2343.0	2343.0	2347.0	2347.0	2393.0	2393.0	2393.0	2393.0	2393.0	2348.0	2348.0	2348.0	2329.0	2329.0	2371.0	2371.0	2371.0	2357.0	2357.0	2364.0	2364.0	2364.0	2309.0	2309.0	2307.0	2307.0	2307.0	2315.0	2315.0	2355.0	2355.0	2355.0	2295.0	2295.0	2319.0	2319.0	2319.0	2321.0	2321.0	2276.0	2276.0	2276.0	2245.0	2245.0	2293.0	2293.0	2293.0	2255.0	2255.0	2217.0	2217.0	2217.0	2221.0	2221.0	2265.0	2265.0	2265.0	2254.0	2254.0	2216.0	2216.0	2216.0	2245.0	2245.0	2183.0	2183.0	2183.0	2217.0	2217.0	2215.0	2215.0	2215.0	2187.0	2187.0	2200.0	2200.0	2200.0	2147.0	2147.0	2171.0	2171.0	2171.0	2171.0	2171.0	2166.0	2166.0	2166.0	2107.0	2107.0	2160.0	2160.0	2160.0	2161.0	2161.0	2131.0	2131.0	2127.0	2127.0	2127.0	2123.0	2123.0	2110.0	2110.0	2110.0	2103.0	2103.0	2129.0	2129.0	2129.0	2133.0	2133.0	2122.0	2122.0	2122.0	2112.0	2112.0	2066.0	2066.0	2066.0	2097.0	2097.0	2063.0	2063.0	2063.0	2074.0	2074.0	2122.0	2122.0	2122.0	2095.0	2095.0	2081.0	2081.0	2081.0	2049.0	2049.0	2076.0	2076.0	2076.0	2092.0	2092.0	2109.0	2109.0	2109.0	2078.0	2078.0	2105.0	2105.0	2105.0	2047.0	2047.0	2043.0	2043.0	2043.0	2087.0	2087.0	2053.0	2053.0	2053.0	2079.0	2079.0	2063.0	2063.0	2063.0	2048.0	2048.0	2047.0	2047.0	2047.0	2062.0	2062.0	2021.0	2021.0	2021.0	2045.0	2045.0	2081.0	2081.0	2081.0	2062.0	2062.0	2008.0	2008.0	2008.0	2065.0	2065.0	2009.0	2009.0	2009.0	2048.0	2048.0	2037.0	2037.0	2037.0	2056.0	2056.0	2045.0	2045.0	2045.0	2036.0	2036.0	2034.0	2034.0	2034.0	1988.0	1988.0	2022.0	2022.0	2022.0	2010.0	2010.0	2003.0	2003.0	2003.0	1979.0	1979.0	1969.0	1969.0	1969.0	2012.0	2012.0	2001.0	2001.0	2001.0	1977.0	1977.0	1969.0	1969.0	1969.0	1985.0	1985.0	1998.0	1998.0	1998.0	2004.0	2004.0	1939.0	1939.0	1939.0	1929.0	1929.0	1948.0	1948.0	1948.0	1983.0	1983.0	1978.0	1978.0	1978.0	1966.0	1966.0	1906.0	1906.0	1906.0	1928.0	1928.0	1915.0	1915.0	1915.0	1890.0	1890.0	1938.0	1938.0	1938.0	1910.0	1910.0	1933.0	1933.0	1933.0	1869.0	1869.0	1929.0	1929.0	1929.0	1860.0	1860.0	1916.0	1916.0	1916.0	1902.0	1902.0	1854.0	1854.0	1854.0	1857.0	1857.0	1886.0	1886.0	1886.0	1905.0	1905.0	1875.0	1875.0	1875.0	1892.0	1892.0	1866.0	1866.0	1844.0	1844.0	1844.0	1819.0	1819.0	1814.0	1814.0	1814.0	1857.0	1857.0	1820.0	1820.0	1820.0	1876.0	1876.0	1832.0	1832.0	1832.0	1867.0	1867.0	1879.0	1879.0	1879.0	1861.0	1861.0	1815.0	1815.0	1815.0	1830.0	1830.0	1802.0	1802.0	1802.0	1808.0	1808.0	1843.0	1843.0	1843.0	1813.0	1813.0	1830.0	1830.0	1830.0	1841.0	1841.0	1854.0	1854.0	1854.0	1779.0	1779.0	1826.0	1826.0	1826.0	1830.0	1830.0	1783.0	1783.0	1783.0	1783.0	1783.0	1827.0	1827.0	1827.0	1813.0	1813.0	1820.0	1820.0	1820.0	1829.0	1829.0	1764.0	1764.0	1764.0	1831.0	1831.0	1833.0	1833.0	1833.0	1763.0	1763.0	1787.0	1787.0	1787.0	1767.0	1767.0	1799.0	1799.0	1799.0	1808.0	1808.0	1795.0	1795.0	1795.0	1766.0	1766.0	1774.0	1774.0	1774.0	1795.0	1795.0	1803.0	1803.0	1803.0	1825.0	1825.0	1804.0	1804.0	1804.0	1760.0	1760.0	1795.0	1795.0	1795.0	1760.0	1760.0	1830.0	1830.0	1830.0	1813.0	1813.0	1819.0	1819.0	1819.0	1821.0	1821.0	1774.0	1774.0	1774.0	1787.0	1787.0	1799.0	1799.0	1799.0	1826.0	1826.0	1784.0	1784.0	1784.0	1785.0	1785.0	1773.0	1773.0	1773.0	1750.0	1750.0	1811.0	1811.0	1811.0	1759.0	1759.0	1775.0	1775.0	1775.0	1772.0	1772.0	1821.0	1821.0	1821.0	1761.0	1761.0	1759.0	1759.0	1759.0	1820.0	1820.0	1805.0	1805.0	1805.0	1759.0	1759.0	1755.0	1755.0	1755.0	1752.0	1752.0	1802.0	1802.0	1802.0	1790.0	1790.0	1748.0	1748.0	1748.0	1807.0	1807.0	1765.0	1765.0	1765.0	1767.0	1767.0	1754.0	1754.0	1754.0	1800.0	1800.0	1755.0	1755.0	1755.0	1792.0	1792.0	1737.0	1737.0	1787.0	1787.0	1787.0	1782.0	1782.0	1759.0	1759.0	1759.0	1752.0	1752.0	1763.0	1763.0	1763.0	1759.0	1759.0	1806.0	1806.0	1806.0	1813.0	1813.0	1788.0	1788.0	1788.0	1788.0	1788.0	1820.0	1820.0	1820.0	1810.0	1810.0	1817.0	1817.0	1817.0	1886.0	1886.0	1850.0	1850.0	1850.0	1862.0	1862.0	1917.0	1917.0	1917.0	1927.0	1927.0	1927.0	1927.0	1927.0	1923.0	1923.0	1945.0	1945.0	1945.0	1977.0	1977.0	2032.0	2032.0	2032.0	2026.0	2026.0	2026.0	2026.0	2026.0	2054.0	2054.0	2113.0	2113.0	2113.0	2137.0	2137.0	2113.0	2113.0	2113.0	2146.0	2146.0	2187.0	2187.0	2187.0	2146.0	2146.0	2226.0	2226.0	2226.0	2207.0	2207.0	2211.0	2211.0	2211.0	2258.0	2258.0	2243.0	2243.0	2243.0	2242.0	2242.0	2280.0	2280.0	2280.0	2317.0	2317.0	2290.0	2290.0	2290.0	2288.0	2288.0	2327.0	2327.0	2327.0	2296.0	2296.0	2328.0	2328.0	2328.0	2309.0	2309.0	2343.0	2343.0	2343.0	2327.0	2327.0	2358.0	2358.0	2358.0	2332.0	2332.0	2348.0	2348.0	2348.0	2403.0	2403.0	2405.0	2405.0	2405.0	2351.0	2351.0	2359.0	2359.0	2359.0	2425.0	2425.0	2371.0	2371.0	2371.0	2390.0	2390.0	2373.0	2373.0	2373.0	2426.0	2426.0	2376.0	2376.0	2376.0	2412.0	2412.0	2393.0	2393.0	2393.0	2409.0	2409.0	2427.0	2427.0	2427.0	2407.0	2407.0	2370.0	2370.0	2370.0	2383.0	2383.0	2404.0	2404.0	2404.0	2375.0	2375.0	2432.0	2432.0	2432.0	2378.0	2378.0	2420.0	2420.0	2420.0	2383.0	2383.0	2392.0	2392.0	2392.0	2419.0	2419.0	2407.0	2407.0	2407.0	2384.0	2384.0	2385.0	2385.0	2385.0	2356.0	2356.0	2392.0	2392.0	2392.0	2348.0	2348.0	2375.0	2375.0	2388.0	2388.0	2388.0	2354.0	2354.0	2359.0	2359.0	2359.0	2346.0	2346.0	2356.0	2356.0	2356.0	2335.0	2335.0	2393.0	2393.0	2393.0	2350.0	2350.0	2346.0	2346.0	2346.0	2335.0	2335.0	2381.0	2381.0	2381.0	2320.0	2320.0	2326.0	2326.0	2326.0	2384.0	2384.0	2321.0	2321.0	2321.0	2317.0	2317.0	2326.0	2326.0	2326.0	2309.0	2309.0	2346.0	2346.0	2346.0	2335.0	2335.0	2294.0	2294.0	2294.0	2307.0	2307.0	2306.0	2306.0	2306.0	2272.0	2272.0	2316.0	2316.0	2316.0	2261.0	2261.0	2256.0	2256.0	2256.0	2251.0	2251.0	2245.0	2245.0	2245.0	2243.0	2243.0	2281.0	2281.0	2281.0	2267.0	2267.0	2254.0	2254.0	2254.0	2255.0	2255.0	2206.0	2206.0	2206.0	2235.0	2235.0	2234.0	2234.0	2234.0	2209.0	2209.0	2171.0	2171.0	2171.0	2225.0	2225.0	2159.0	2159.0	2159.0	2181.0	2181.0	2192.0	2192.0	2192.0	2144.0	2144.0	2194.0	2194.0	2194.0	2177.0	2177.0	2132.0	2132.0	2132.0	2134.0	2134.0	2177.0	2177.0	2177.0	2148.0	2148.0	2131.0	2131.0	2131.0	2157.0	2157.0	2122.0	2122.0	2122.0	2110.0	2110.0	2130.0	2130.0	2130.0	2133.0	2133.0	2118.0	2118.0	2118.0	2105.0	2105.0	2105.0	2105.0	2105.0	2139.0	2139.0	2112.0	2112.0	2112.0	2102.0	2102.0	2108.0	2108.0	2108.0	2097.0	2097.0	2092.0	2092.0	2092.0	2100.0	2100.0	2155.0	2155.0	2155.0	2087.0	2087.0	2092.0	2092.0	2092.0	2107.0	2107.0	2097.0	2097.0	2097.0	2126.0	2126.0	2093.0	2093.0	2093.0	2140.0	2140.0	2119.0	2119.0	2119.0	2144.0	2144.0	2126.0	2126.0	2126.0	2081.0	2081.0	2148.0	2148.0	2148.0	2129.0	2129.0	2071.0	2071.0	2087.0	2087.0	2087.0	2119.0	2119.0	2105.0	2105.0	2105.0	2114.0	2114.0	2144.0	2144.0	2144.0	2092.0	2092.0	2083.0	2083.0	2083.0	2116.0	2116.0	2060.0	2060.0	2060.0	2120.0	2120.0	2085.0	2085.0	2085.0	2115.0	2115.0	2047.0	2047.0	2047.0	2102.0	2102.0	2066.0	2066.0	2066.0	2048.0	2048.0	2092.0	2092.0	2092.0	2025.0	2025.0	2072.0	2072.0	2072.0	2079.0	2079.0	2075.0	2075.0	2075.0	2050.0	2050.0	2011.0	2011.0	2011.0	2043.0	2043.0	2057.0	2057.0	2057.0	2058.0	2058.0	1986.0	1986.0	1986.0	2054.0	2054.0	2005.0	2005.0	2005.0	2032.0	2032.0	2032.0	2032.0	2032.0	1967.0	1967.0	1955.0	1955.0	1955.0	1962.0	1962.0	1976.0	1976.0	1976.0	1964.0	1964.0	2002.0	2002.0	2002.0	2000.0	2000.0	1948.0	1948.0	1948.0	2010.0	2010.0	1998.0	1998.0	1998.0	1944.0	1944.0	1976.0	1976.0	1976.0	1940.0	1940.0	1957.0	1957.0	1957.0	1937.0	1937.0	1987.0	1987.0	1987.0	1982.0	1982.0	1991.0	1991.0	1991.0	1953.0	1953.0	1985.0	1985.0	1985.0	1940.0	1940.0	1968.0	1968.0	