1975.0	1975.0	1901.0	1901.0	1901.0	1923.0	1923.0	1929.0	1929.0	1929.0	1899.0	1899.0	1883.0	1883.0	1883.0	1883.0	1883.0	1884.0	1884.0	1884.0	1883.0	1883.0	1880.0	1880.0	1880.0	1891.0	1891.0	1899.0	1899.0	1899.0	1902.0	1902.0	1909.0	1909.0	1909.0	1901.0	1901.0	1901.0	1901.0	1901.0	1879.0	1879.0	1961.0	1961.0	1961.0	1897.0	1897.0	1950.0	1950.0	1950.0	1873.0	1873.0	1960.0	1960.0	1960.0	1950.0	1950.0	1890.0	1890.0	1890.0	1915.0	1915.0	1880.0	1880.0	1880.0	1900.0	1900.0	1907.0	1907.0	1907.0	1959.0	1959.0	1900.0	1900.0	1900.0	1921.0	1921.0	1879.0	1879.0	1879.0	1959.0	1959.0	1896.0	1896.0	1896.0	1951.0	1951.0	1933.0	1933.0	1933.0	1975.0	1975.0	1967.0	1967.0	1967.0	1897.0	1897.0	1976.0	1976.0	1976.0	1899.0	1899.0	1930.0	1930.0	1930.0	1914.0	1914.0	1995.0	1995.0	1995.0	1941.0	1941.0	2010.0	2010.0	2010.0	1945.0	1945.0	1998.0	1998.0	1998.0	2009.0	2009.0	1964.0	1964.0	1964.0	1977.0	1977.0	1955.0	1955.0	1955.0	2021.0	2021.0	1958.0	1958.0	1958.0	2026.0	2026.0	2031.0	2031.0	2031.0	2030.0	2030.0	1959.0	1959.0	1959.0	2037.0	2037.0	2011.0	2011.0	2011.0	2029.0	2029.0	1996.0	1996.0	1996.0	1950.0	1950.0	1991.0	1991.0	1991.0	1957.0	1957.0	1985.0	1985.0	1985.0	2016.0	2016.0	1983.0	1983.0	1983.0	1940.0	1940.0	2015.0	2015.0	2015.0	2020.0	2020.0	1965.0	1965.0	1965.0	1929.0	1929.0	1952.0	1952.0	1952.0	1943.0	1943.0	1964.0	1964.0	1964.0	1992.0	1992.0	1959.0	1959.0	1959.0	1971.0	1971.0	1923.0	1923.0	1923.0	1971.0	1971.0	1928.0	1928.0	1977.0	1977.0	1977.0	1914.0	1914.0	1911.0	1911.0	1911.0	1938.0	1938.0	1920.0	1920.0	1920.0	1891.0	1891.0	1973.0	1973.0	1973.0	1972.0	1972.0	1933.0	1933.0	1933.0	1918.0	1918.0	1948.0	1948.0	1948.0	1898.0	1898.0	1900.0	1900.0	1900.0	1903.0	1903.0	1919.0	1919.0	1919.0	1855.0	1855.0	1911.0	1911.0	1911.0	1873.0	1873.0	1911.0	1911.0	1911.0	1910.0	1910.0	1834.0	1834.0	1834.0	1903.0	1903.0	1813.0	1813.0	1813.0	1880.0	1880.0	1863.0	1863.0	1863.0	1806.0	1806.0	1873.0	1873.0	1873.0	1851.0	1851.0	1796.0	1796.0	1796.0	1807.0	1807.0	1805.0	1805.0	1805.0	1824.0	1824.0	1846.0	1846.0	1846.0	1843.0	1843.0	1779.0	1779.0	1779.0	1775.0	1775.0	1846.0	1846.0	1846.0	1778.0	1778.0	1768.0	1768.0	1768.0	1775.0	1775.0	1771.0	1771.0	1771.0	1758.0	1758.0	1756.0	1756.0	1756.0	1819.0	1819.0	1760.0	1760.0	1760.0	1773.0	1773.0	1839.0	1839.0	1839.0	1763.0	1763.0	1759.0	1759.0	1759.0	1754.0	1754.0	1810.0	1810.0	1810.0	1794.0	1794.0	1803.0	1803.0	1803.0	1789.0	1789.0	1787.0	1787.0	1787.0	1777.0	1777.0	1825.0	1825.0	1825.0	1777.0	1777.0	1773.0	1773.0	1773.0	1826.0	1826.0	1774.0	1774.0	1774.0	1773.0	1773.0	1796.0	1796.0	1796.0	1833.0	1833.0	1820.0	1820.0	1820.0	1826.0	1826.0	1803.0	1803.0	1803.0	1816.0	1816.0	1837.0	1837.0	1837.0	1837.0	1837.0	1797.0	1797.0	1797.0	1864.0	1864.0	1874.0	1874.0	1874.0	1798.0	1798.0	1863.0	1863.0	1863.0	1796.0	1796.0	1797.0	1797.0	1797.0	1871.0	1871.0	1829.0	1829.0	1829.0	1871.0	1871.0	1809.0	1809.0	1809.0	1831.0	1831.0	1871.0	1871.0	1794.0	1794.0	1794.0	1864.0	1864.0	1832.0	1832.0	1832.0	1842.0	1842.0	1825.0	1825.0	1825.0	1832.0	1832.0	1823.0	1823.0	1823.0	1860.0	1860.0	1839.0	1839.0	1839.0	1861.0	1861.0	1866.0	1866.0	1866.0	1807.0	1807.0	1876.0	1876.0	1876.0	1792.0	1792.0	1852.0	1852.0	1852.0	1867.0	1867.0	1791.0	1791.0	1791.0	1797.0	1797.0	1788.0	1788.0	1788.0	1800.0	1800.0	1795.0	1795.0	1795.0	1797.0	1797.0	1854.0	1854.0	1854.0	1862.0	1862.0	1849.0	1849.0	1849.0	1871.0	1871.0	1875.0	1875.0	1875.0	1786.0	1786.0	1879.0	1879.0	1879.0	1801.0	1801.0	1868.0	1868.0	1868.0	1864.0	1864.0	1818.0	1818.0	1818.0	1864.0	1864.0	1835.0	1835.0	1835.0	1895.0	1895.0	1816.0	1816.0	1816.0	1822.0	1822.0	1901.0	1901.0	1901.0	1908.0	1908.0	1917.0	1917.0	1917.0	1880.0	1880.0	1936.0	1936.0	1936.0	1911.0	1911.0	1869.0	1869.0	1869.0	1924.0	1924.0	1893.0	1893.0	1893.0	1923.0	1923.0	1915.0	1915.0	1915.0	1943.0	1943.0	1961.0	1961.0	1961.0	1981.0	1981.0	1958.0	1958.0	1958.0	1965.0	1965.0	2057.0	2057.0	2057.0	2017.0	2017.0	2055.0	2055.0	2055.0	2008.0	2008.0	2019.0	2019.0	2019.0	2020.0	2020.0	2047.0	2047.0	2047.0	2045.0	2045.0	2066.0	2066.0	2066.0	2087.0	2087.0	2143.0	2143.0	2143.0	2148.0	2148.0	2124.0	2124.0	2124.0	2132.0	2132.0	2151.0	2151.0	2151.0	2163.0	2163.0	2090.0	2090.0	2090.0	2159.0	2159.0	2159.0	2159.0	2159.0	2200.0	2200.0	2124.0	2124.0	2124.0	2141.0	2141.0	2160.0	2160.0	2160.0	2210.0	2210.0	2170.0	2170.0	2170.0	2224.0	2224.0	2209.0	2209.0	2154.0	2154.0	2154.0	2157.0	2157.0	2172.0	2172.0	2172.0	2163.0	2163.0	2182.0	2182.0	2182.0	2217.0	2217.0	2207.0	2207.0	2207.0	2187.0	2187.0	2171.0	2171.0	2171.0	2236.0	2236.0	2181.0	2181.0	2181.0	2182.0	2182.0	2200.0	2200.0	2200.0	2182.0	2182.0	2190.0	2190.0	2190.0	2205.0	2205.0	2229.0	2229.0	2229.0	2200.0	2200.0	2267.0	2267.0	2267.0	2214.0	2214.0	2193.0	2193.0	2193.0	2255.0	2255.0	2239.0	2239.0	2239.0	2270.0	2270.0	2194.0	2194.0	2194.0	2209.0	2209.0	2181.0	2181.0	2181.0	2197.0	2197.0	2200.0	2200.0	2200.0	2204.0	2204.0	2193.0	2193.0	2193.0	2222.0	2222.0	2181.0	2181.0	2181.0	2266.0	2266.0	2244.0	2244.0	2244.0	2181.0	2181.0	2195.0	2195.0	2195.0	2274.0	2274.0	2214.0	2214.0	2214.0	2255.0	2255.0	2186.0	2186.0	2186.0	2266.0	2266.0	2185.0	2185.0	2185.0	2178.0	2178.0	2171.0	2171.0	2171.0	2173.0	2173.0	2232.0	2232.0	2232.0	2223.0	2223.0	2181.0	2181.0	2181.0	2190.0	2190.0	2228.0	2228.0	2228.0	2243.0	2243.0	2157.0	2157.0	2157.0	2219.0	2219.0	2225.0	2225.0	2225.0	2230.0	2230.0	2199.0	2199.0	2199.0	2136.0	2136.0	2217.0	2217.0	2217.0	2124.0	2124.0	2119.0	2119.0	2119.0	2174.0	2174.0	2145.0	2145.0	2145.0	2133.0	2133.0	2158.0	2158.0	2158.0	2087.0	2087.0	2151.0	2151.0	2151.0	2133.0	2133.0	2069.0	2069.0	2069.0	2134.0	2134.0	2046.0	2046.0	2046.0	2087.0	2087.0	2113.0	2113.0	2113.0	2115.0	2115.0	2111.0	2111.0	2111.0	2082.0	2082.0	2013.0	2013.0	2013.0	2086.0	2086.0	2006.0	2006.0	2006.0	2006.0	2006.0	2026.0	2026.0	2067.0	2067.0	2067.0	2044.0	2044.0	1996.0	1996.0	1996.0	2049.0	2049.0	2035.0	2035.0	2035.0	1965.0	1965.0	2012.0	2012.0	2012.0	1951.0	1951.0	2017.0	2017.0	2017.0	1959.0	1959.0	1955.0	1955.0	1955.0	1985.0	1985.0	1944.0	1944.0	1944.0	1991.0	1991.0	1933.0	1933.0	1933.0	1991.0	1991.0	2007.0	2007.0	2007.0	1930.0	1930.0	1930.0	1930.0	1930.0	1945.0	1945.0	1938.0	1938.0	1938.0	1936.0	1936.0	1931.0	1931.0	1931.0	1971.0	1971.0	1970.0	1970.0	1970.0	1946.0	1946.0	1926.0	1926.0	1926.0	1980.0	1980.0	2003.0	2003.0	2003.0	1923.0	1923.0	1920.0	1920.0	1920.0	1975.0	1975.0	1922.0	1922.0	1922.0	1942.0	1942.0	1990.0	1990.0	1990.0	1933.0	1933.0	1948.0	1948.0	1948.0	1926.0	1926.0	1927.0	1927.0	1927.0	1995.0	1995.0	1933.0	1933.0	1933.0	1905.0	1905.0	1918.0	1918.0	1918.0	1940.0	1940.0	1907.0	1907.0	1907.0	1918.0	1918.0	1912.0	1912.0	1912.0	1941.0	1941.0	1908.0	1908.0	1908.0	1968.0	1968.0	1912.0	1912.0	1912.0	1891.0	1891.0	1904.0	1904.0	1904.0	1953.0	1953.0	1953.0	1953.0	1953.0	1955.0	1955.0	1935.0	1935.0	1935.0	1932.0	1932.0	1910.0	1910.0	1910.0	1918.0	1918.0	1921.0	1921.0	1921.0	1922.0	1922.0	1946.0	1946.0	1946.0	1880.0	1880.0	1904.0	1904.0	1904.0	1887.0	1887.0	1893.0	1893.0	1893.0	1896.0	1896.0	1900.0	1900.0	1900.0	1861.0	1861.0	1905.0	1905.0	1905.0	1925.0	1925.0	1878.0	1878.0	1878.0	1864.0	1864.0	1843.0	1843.0	1843.0	1846.0	1846.0	1871.0	1871.0	1871.0	1849.0	1849.0	1871.0	1871.0	1871.0	1878.0	1878.0	1859.0	1859.0	1859.0	1833.0	1833.0	1840.0	1840.0	1826.0	1826.0	1826.0	1893.0	1893.0	1858.0	1858.0	1858.0	1820.0	1820.0	1869.0	1869.0	1869.0	1818.0	1818.0	1814.0	1814.0	1814.0	1844.0	1844.0	1815.0	1815.0	1815.0	1877.0	1877.0	1834.0	1834.0	1834.0	1861.0	1861.0	1828.0	1828.0	1828.0	1793.0	1793.0	1792.0	1792.0	1792.0	1818.0	1818.0	1785.0	1785.0	1785.0	1816.0	1816.0	1775.0	1775.0	1775.0	1844.0	1844.0	1819.0	1819.0	1819.0	1839.0	1839.0	1845.0	1845.0	1845.0	1767.0	1767.0	1768.0	1768.0	1768.0	1839.0	1839.0	1816.0	1816.0	1816.0	1839.0	1839.0	1814.0	1814.0	1814.0	1826.0	1826.0	1813.0	1813.0	1813.0	1820.0	1820.0	1776.0	1776.0	1776.0	1745.0	1745.0	1771.0	1771.0	1771.0	1756.0	1756.0	1781.0	1781.0	1781.0	1801.0	1801.0	1783.0	1783.0	1783.0	1725.0	1725.0	1783.0	1783.0	1783.0	1715.0	1715.0	1764.0	1764.0	1764.0	1737.0	1737.0	1784.0	1784.0	1784.0	1784.0	1784.0	1792.0	1792.0	1792.0	1772.0	1772.0	1750.0	1750.0	1750.0	1695.0	1695.0	1748.0	1748.0	1748.0	1695.0	1695.0	1769.0	1769.0	1769.0	1752.0	1752.0	1677.0	1677.0	1677.0	1735.0	1735.0	1748.0	1748.0	1748.0	1697.0	1697.0	1713.0	1713.0	1713.0	1735.0	1735.0	1725.0	1725.0	1725.0	1734.0	1734.0	1683.0	1683.0	1683.0	1640.0	1640.0	1675.0	1675.0	1675.0	1727.0	1727.0	1670.0	1670.0	1670.0	1703.0	1703.0	1635.0	1635.0	1635.0	1624.0	1624.0	1676.0	1676.0	1676.0	1616.0	1616.0	1607.0	1607.0	1607.0	1608.0	1608.0	1614.0	1614.0	1614.0	1661.0	1661.0	1669.0	1669.0	1669.0	1630.0	1630.0	1633.0	1633.0	1633.0	1601.0	1601.0	1621.0	1621.0	1580.0	1580.0	1580.0	1577.0	1577.0	1633.0	1633.0	1633.0	1553.0	1553.0	1555.0	1555.0	1555.0	1624.0	1624.0	1596.0	1596.0	1596.0	1612.0	1612.0	1593.0	1593.0	1593.0	1569.0	1569.0	1521.0	1521.0	1521.0	1594.0	1594.0	1531.0	1531.0	1531.0	1534.0	1534.0	1519.0	1519.0	1519.0	1568.0	1568.0	1540.0	1540.0	1540.0	1532.0	1532.0	1567.0	1567.0	1567.0	1498.0	1498.0	1549.0	1549.0	1549.0	1556.0	1556.0	1519.0	1519.0	1519.0	1543.0	1543.0	1552.0	1552.0	1552.0	1566.0	1566.0	1518.0	1518.0	1518.0	1488.0	1488.0	1483.0	1483.0	1483.0	1526.0	1526.0	1528.0	1528.0	1528.0	1490.0	1490.0	1484.0	1484.0	1484.0	1472.0	1472.0	1551.0	1551.0	1551.0	1498.0	1498.0	1479.0	1479.0	1479.0	1499.0	1499.0	1542.0	1542.0	1542.0	1508.0	1508.0	1535.0	1535.0	1535.0	1476.0	1476.0	1498.0	1498.0	1498.0	1470.0	1470.0	1489.0	1489.0	1489.0	1540.0	1540.0	1523.0	1523.0	1523.0	1524.0	1524.0	1507.0	1507.0	1507.0	1552.0	1552.0	1522.0	1522.0	1522.0	1552.0	1552.0	1521.0	1521.0	1521.0	1516.0	1516.0	1464.0	1464.0	1464.0	1544.0	1544.0	1540.0	1540.0	1540.0	1555.0	1555.0	1480.0	1480.0	1480.0	1473.0	1473.0	1555.0	1555.0	1555.0	1508.0	1508.0	1487.0	1487.0	1487.0	1485.0	1485.0	1472.0	1472.0	1472.0	1542.0	1542.0	1493.0	1493.0	1493.0	1497.0	1497.0	1557.0	1557.0	1557.0	1496.0	1496.0	1563.0	1563.0	1563.0	1551.0	1551.0	1559.0	1559.0	1559.0	1570.0	1570.0	1516.0	1516.0	1516.0	1534.0	1534.0	1486.0	1486.0	1486.0	1575.0	1575.0	1507.0	1507.0	1507.0	1574.0	1574.0	1538.0	1538.0	1538.0	1547.0	1547.0	1592.0	1592.0	1527.0	1527.0	1527.0	1510.0	1510.0	1539.0	1539.0	1539.0	1553.0	1553.0	1545.0	1545.0	1545.0	1522.0	1522.0	1592.0	1592.0	1592.0	1531.0	1531.0	1525.0	1525.0	1525.0	1552.0	1552.0	1536.0	1536.0	1536.0	1555.0	1555.0	1569.0	1569.0	1569.0	1611.0	1611.0	1553.0	1553.0	1553.0	1618.0	1618.0	1618.0	1618.0	1618.0	1622.0	1622.0	1592.0	1592.0	1592.0	1648.0	1648.0	1664.0	1664.0	1664.0	1667.0	1667.0	1623.0	1623.0	1623.0	1717.0	1717.0	1688.0	1688.0	1688.0	1733.0	1733.0	1706.0	1706.0	1706.0	1701.0	1701.0	1775.0	1775.0	1775.0	1741.0	1741.0	1772.0	1772.0	1772.0	1807.0	1807.0	1772.0	1772.0	1772.0	1866.0	1866.0	1892.0	1892.0	1892.0	1831.0	1831.0	1883.0	1883.0	1883.0	1938.0	1938.0	1901.0	1901.0	1901.0	1957.0	1957.0	1992.0	1992.0	1992.0	1939.0	1939.0	1980.0	1980.0	1980.0	1975.0	1975.0	2064.0	2064.0	2064.0	2073.0	2073.0	2055.0	2055.0	2055.0	2102.0	2102.0	2046.0	2046.0	2046.0	2112.0	2112.0	2145.0	2145.0	2145.0	2114.0	2114.0	2105.0	2105.0	2105.0	2190.0	2190.0	2207.0	2207.0	2207.0	2167.0	2167.0	2165.0	2165.0	2165.0	2176.0	2176.0	2248.0	2248.0	2248.0	2203.0	2203.0	2278.0	2278.0	2278.0	2234.0	2234.0	2319.0	2319.0	2319.0	2270.0	2270.0	2333.0	2333.0	2333.0	2337.0	2337.0	2374.0	2374.0	2374.0	2305.0	2305.0	2348.0	2348.0	2348.0	2371.0	2371.0	2330.0	2330.0	2330.0	2415.0	2415.0	2431.0	2431.0	2431.0	2380.0	2380.0	2429.0	2429.0	2429.0	2418.0	2418.0	2412.0	2412.0	2412.0	2405.0	2405.0	2511.0	2511.0	2511.0	2435.0	2435.0	2494.0	2494.0	2519.0	2519.0	2519.0	2527.0	2527.0	2539.0	2539.0	2539.0	2502.0	2502.0	2480.0	2480.0	2480.0	2527.0	2527.0	2583.0	2583.0	2583.0	2512.0	2512.0	2557.0	2557.0	2557.0	2540.0	2540.0	2556.0	2556.0	2556.0	2581.0	2581.0	2621.0	2621.0	2621.0	2639.0	2639.0	2639.0	2639.0	2639.0	2578.0	2578.0	2582.0	2582.0	2582.0	2668.0	2668.0	2647.0	2647.0	2647.0	2610.0	2610.0	2668.0	2668.0	2668.0	2652.0	2652.0	2691.0	2691.0	2691.0	2616.0	2616.0	2702.0	2702.0	2702.0	2710.0	2710.0	2656.0	2656.0	2656.0	2655.0	2655.0	2714.0	2714.0	2714.0	2653.0	2653.0	2659.0	2659.0	2659.0	2723.0	2723.0	2663.0	2663.0	2663.0	2729.0	2729.0	2711.0	2711.0	2711.0	2695.0	2695.0	2692.0	2692.0	2692.0	2670.0	2670.0	2683.0	2683.0	2683.0	2657.0	2657.0	2743.0	2743.0	2743.0	2666.0	2666.0	2693.0	2693.0	2693.0	2664.0	2664.0	2646.0	2646.0	2646.0	2713.0	2713.0	2656.0	2656.0	2656.0	2711.0	2711.0	2635.0	2635.0	2635.0	2703.0	2703.0	2649.0	2649.0	2649.0	2637.0	2637.0	2627.0	2627.0	2627.0	2603.0	2603.0	2641.0	2641.0	2641.0	2599.0	2599.0	2616.0	2616.0	2616.0	2635.0	2635.0	2652.0	2652.0	2652.0	2634.0	2634.0	2557.0	2557.0	2557.0	2547.0	2547.0	2611.0	2611.0	2611.0	2617.0	2617.0	2584.0	2584.0	2584.0	2515.0	2515.0	2525.0	2525.0	2525.0	2502.0	2502.0	2514.0	2514.0	2514.0	2499.0	2499.0	2493.0	2493.0	2493.0	2479.0	2479.0	2475.0	2475.0	2475.0	2536.0	2536.0	2529.0	2529.0	2529.0	2453.0	2453.0	2501.0	2501.0	2501.0	2515.0	2515.0	2477.0	2477.0	2477.0	2483.0	2483.0	2474.0	2474.0	2446.0	2446.0	2446.0	2426.0	2426.0	2493.0	2493.0	2493.0	2467.0	2467.0	2461.0	2461.0	2461.0	2498.0	2498.0	2479.0	2479.0	2479.0	2495.0	2495.0	2434.0	2434.0	2434.0	2405.0	2405.0	2403.0	2403.0	2403.0	2427.0	2427.0	2396.0	2396.0	2396.0	2408.0	2408.0	2404.0	2404.0	2404.0	2481.0	2481.0	2438.0	2438.0	2438.0	2432.0	2432.0	2463.0	2463.0	2463.0	2407.0	2407.0	2404.0	2404.0	2404.0	2388.0	2388.0	2443.0	2443.0	2443.0	2424.0	2424.0	2455.0	2455.0	2455.0	2442.0	2442.0	2360.0	2360.0	2360.0	2374.0	2374.0	2427.0	2427.0	2427.0	2428.0	2428.0	2346.0	2346.0	2346.0	2427.0	2427.0	2392.0	2392.0	2392.0	2356.0	2356.0	2379.0	2379.0	2379.0	2375.0	2375.0	2386.0	2386.0	2386.0	2330.0	2330.0	2408.0	2408.0	2408.0	2362.0	2362.0	2374.0	2374.0	2374.0	2327.0	2327.0	2327.0	2327.0	2327.0	2383.0	2383.0	2305.0	2305.0	2305.0	2372.0	2372.0	2322.0	2322.0	2322.0	2350.0	2350.0	2293.0	2293.0	2293.0	2283.0	2283.0	2300.0	2300.0	2300.0	2324.0	2324.0	2353.0	2353.0	2353.0	2300.0	2300.0	2294.0	2294.0	2294.0	2315.0	2315.0	2274.0	2274.0	2274.0	2304.0	2304.0	2287.0	2287.0	2287.0	2236.0	2236.0	2275.0	2275.0	2275.0	2251.0	2251.0	2236.0	2236.0	2236.0	2265.0	2265.0	2260.0	2260.0	2260.0	2215.0	2215.0	2231.0	2231.0	2231.0	2205.0	2205.0	2249.0	2249.0	2249.0	2210.0	2210.0	2241.0	2241.0	2241.0	2183.0	2183.0	2183.0	2183.0	2183.0	2220.0	2220.0	2248.0	2248.0	2248.0	2225.0	2225.0	2235.0	2235.0	2235.0	2221.0	2221.0	2218.0	2218.0	2218.0	2221.0	2221.0	2175.0	2175.0	2175.0	2181.0	2181.0	2138.0	2138.0	2147.0	2147.0	2147.0	2170.0	2170.0	2120.0	2120.0	2120.0	2140.0	2140.0	2142.0	2142.0	2142.0	2129.0	2129.0	2116.0	2116.0	2116.0	2065.0	2065.0	2099.0	2099.0	2099.0	2045.0	2045.0	2073.0	2073.0	2073.0	2036.0	2036.0	2016.0	2016.0	2016.0	2015.0	2015.0	2030.0	2030.0	2030.0	2005.0	2005.0	2023.0	2023.0	2023.0	2008.0	2008.0	1976.0	1976.0	1976.0	1974.0	1974.0	2013.0	2013.0	2013.0	2039.0	2039.0	2012.0	2012.0	2012.0	