2745.0	2745.0	2789.0	2789.0	2789.0	2837.0	2837.0	2779.0	2779.0	2779.0	2836.0	2836.0	2759.0	2759.0	2759.0	2821.0	2821.0	2797.0	2797.0	2797.0	2820.0	2820.0	2787.0	2787.0	2787.0	2782.0	2782.0	2756.0	2756.0	2756.0	2767.0	2767.0	2821.0	2821.0	2821.0	2826.0	2826.0	2768.0	2768.0	2768.0	2780.0	2780.0	2768.0	2768.0	2768.0	2711.0	2711.0	2797.0	2797.0	2797.0	2689.0	2689.0	2733.0	2733.0	2733.0	2674.0	2674.0	2748.0	2748.0	2748.0	2648.0	2648.0	2692.0	2692.0	2692.0	2685.0	2685.0	2672.0	2672.0	2672.0	2641.0	2641.0	2655.0	2655.0	2655.0	2605.0	2605.0	2609.0	2609.0	2609.0	2552.0	2552.0	2584.0	2584.0	2584.0	2577.0	2577.0	2497.0	2497.0	2497.0	2514.0	2514.0	2488.0	2488.0	2488.0	2471.0	2471.0	2506.0	2506.0	2506.0	2418.0	2418.0	2438.0	2438.0	2438.0	2377.0	2377.0	2365.0	2365.0	2365.0	2419.0	2419.0	2389.0	2389.0	2389.0	2305.0	2305.0	2310.0	2310.0	2310.0	2243.0	2243.0	2263.0	2263.0	2263.0	2234.0	2234.0	2251.0	2251.0	2251.0	2225.0	2225.0	2210.0	2210.0	2210.0	2126.0	2126.0	2091.0	2091.0	2091.0	2139.0	2139.0	2062.0	2062.0	2062.0	2025.0	2025.0	2070.0	2070.0	2070.0	2062.0	2062.0	1959.0	1959.0	1950.0	1950.0	1950.0	2013.0	2013.0	1971.0	1971.0	1971.0	1978.0	1978.0	1957.0	1957.0	1957.0	1879.0	1879.0	1926.0	1926.0	1926.0	1859.0	1859.0	1827.0	1827.0	1827.0	1851.0	1851.0	1813.0	1813.0	1813.0	1856.0	1856.0	1760.0	1760.0	1760.0	1767.0	1767.0	1823.0	1823.0	1823.0	1743.0	1743.0	1720.0	1720.0	1720.0	1727.0	1727.0	1788.0	1788.0	1788.0	1782.0	1782.0	1699.0	1699.0	1699.0	1756.0	1756.0	1693.0	1693.0	1693.0	1744.0	1744.0	1749.0	1749.0	1749.0	1712.0	1712.0	1728.0	1728.0	1728.0	1701.0	1701.0	1659.0	1659.0	1659.0	1654.0	1654.0	1715.0	1715.0	1715.0	1722.0	1722.0	1721.0	1721.0	1721.0	1633.0	1633.0	1634.0	1634.0	1634.0	1658.0	1658.0	1655.0	1655.0	1655.0	1691.0	1691.0	1658.0	1658.0	1658.0	1636.0	1636.0	1681.0	1681.0	1681.0	1696.0	1696.0	1639.0	1639.0	1639.0	1663.0	1663.0	1643.0	1643.0	1643.0	1692.0	1692.0	1609.0	1609.0	1609.0	1705.0	1705.0	1632.0	1632.0	1632.0	1689.0	1689.0	1619.0	1619.0	1619.0	1638.0	1638.0	1678.0	1678.0	1678.0	1681.0	1681.0	1635.0	1635.0	1635.0	1665.0	1665.0	1608.0	1608.0	1608.0	1623.0	1623.0	1609.0	1609.0	1609.0	1631.0	1631.0	1663.0	1663.0	1663.0	1626.0	1626.0	1676.0	1676.0	1676.0	1588.0	1588.0	1599.0	1599.0	1599.0	1610.0	1610.0	1590.0	1590.0	1590.0	1630.0	1630.0	1652.0	1652.0	1652.0	1659.0	1659.0	1603.0	1603.0	1603.0	1573.0	1573.0	1614.0	1614.0	1614.0	1616.0	1616.0	1624.0	1624.0	1624.0	1559.0	1559.0	1551.0	1551.0	1551.0	1541.0	1541.0	1538.0	1538.0	1538.0	1607.0	1607.0	1560.0	1560.0	1608.0	1608.0	1608.0	1561.0	1561.0	1516.0	1516.0	1516.0	1559.0	1559.0	1502.0	1502.0	1502.0	1496.0	1496.0	1573.0	1573.0	1573.0	1512.0	1512.0	1488.0	1488.0	1488.0	1498.0	1498.0	1475.0	1475.0	1475.0	1492.0	1492.0	1480.0	1480.0	1480.0	1465.0	1465.0	1458.0	1458.0	1458.0	1493.0	1493.0	1459.0	1459.0	1459.0	1457.0	1457.0	1426.0	1426.0	1426.0	1491.0	1491.0	1419.0	1419.0	1419.0	1489.0	1489.0	1452.0	1452.0	1452.0	1427.0	1427.0	1411.0	1411.0	1411.0	1426.0	1426.0	1483.0	1483.0	1483.0	1473.0	1473.0	1475.0	1475.0	1475.0	1405.0	1405.0	1434.0	1434.0	1434.0	1432.0	1432.0	1394.0	1394.0	1394.0	1456.0	1456.0	1397.0	1397.0	1397.0	1440.0	1440.0	1426.0	1426.0	1426.0	1409.0	1409.0	1467.0	1467.0	1467.0	1376.0	1376.0	1437.0	1437.0	1437.0	1438.0	1438.0	1379.0	1379.0	1379.0	1437.0	1437.0	1450.0	1450.0	1450.0	1450.0	1450.0	1386.0	1386.0	1386.0	1405.0	1405.0	1442.0	1442.0	1442.0	1404.0	1404.0	1449.0	1449.0	1449.0	1423.0	1423.0	1399.0	1399.0	1399.0	1466.0	1466.0	1474.0	1474.0	1474.0	1395.0	1395.0	1409.0	1409.0	1409.0	1491.0	1491.0	1445.0	1445.0	1445.0	1427.0	1427.0	1467.0	1467.0	1467.0	1561.0	1561.0	1564.0	1564.0	1564.0	1552.0	1552.0	1594.0	1594.0	1594.0	1586.0	1586.0	1602.0	1602.0	1602.0	1658.0	1658.0	1684.0	1684.0	1684.0	1743.0	1743.0	1784.0	1784.0	1784.0	1822.0	1822.0	1932.0	1932.0	1932.0	1944.0	1944.0	1959.0	1959.0	1959.0	2033.0	2033.0	2114.0	2114.0	2114.0	2146.0	2146.0	2241.0	2241.0	2241.0	2265.0	2265.0	2302.0	2302.0	2302.0	2302.0	2302.0	2401.0	2401.0	2400.0	2400.0	2400.0	2439.0	2439.0	2486.0	2486.0	2486.0	2504.0	2504.0	2623.0	2623.0	2623.0	2604.0	2604.0	2652.0	2652.0	2652.0	2680.0	2680.0	2747.0	2747.0	2747.0	2766.0	2766.0	2749.0	2749.0	2749.0	2763.0	2763.0	2845.0	2845.0	2845.0	2799.0	2799.0	2834.0	2834.0	2834.0	2871.0	2871.0	2876.0	2876.0	2876.0	2934.0	2934.0	2872.0	2872.0	2872.0	2946.0	2946.0	2974.0	2974.0	2974.0	2953.0	2953.0	2968.0	2968.0	2968.0	2936.0	2936.0	2958.0	2958.0	2958.0	2975.0	2975.0	2985.0	2985.0	2985.0	3002.0	3002.0	2961.0	2961.0	2961.0	2999.0	2999.0	2989.0	2989.0	2989.0	2968.0	2968.0	3020.0	3020.0	3020.0	2944.0	2944.0	3005.0	3005.0	3005.0	2961.0	2961.0	2927.0	2927.0	2927.0	2929.0	2929.0	2948.0	2948.0	2948.0	2980.0	2980.0	3015.0	3015.0	3015.0	2946.0	2946.0	3006.0	3006.0	3006.0	2912.0	2912.0	2991.0	2991.0	2991.0	2905.0	2905.0	2962.0	2962.0	2962.0	2927.0	2927.0	2892.0	2892.0	2892.0	2972.0	2972.0	2924.0	2924.0	2924.0	2899.0	2899.0	2862.0	2862.0	2862.0	2864.0	2864.0	2926.0	2926.0	2926.0	2916.0	2916.0	2894.0	2894.0	2894.0	2851.0	2851.0	2847.0	2847.0	2847.0	2833.0	2833.0	2831.0	2831.0	2831.0	2871.0	2871.0	2834.0	2834.0	2834.0	2757.0	2757.0	2839.0	2839.0	2839.0	2766.0	2766.0	2729.0	2729.0	2729.0	2808.0	2808.0	2752.0	2752.0	2752.0	2695.0	2695.0	2759.0	2759.0	2759.0	2747.0	2747.0	2686.0	2686.0	2686.0	2696.0	2696.0	2626.0	2626.0	2626.0	2676.0	2676.0	2675.0	2675.0	2675.0	2656.0	2656.0	2595.0	2595.0	2595.0	2576.0	2576.0	2606.0	2606.0	2559.0	2559.0	2559.0	2569.0	2569.0	2533.0	2533.0	2533.0	2475.0	2475.0	2536.0	2536.0	2536.0	2515.0	2515.0	2430.0	2430.0	2430.0	2447.0	2447.0	2397.0	2397.0	2397.0	2379.0	2379.0	2400.0	2400.0	2400.0	2376.0	2376.0	2314.0	2314.0	2314.0	2362.0	2362.0	2320.0	2320.0	2320.0	2268.0	2268.0	2274.0	2274.0	2274.0	2270.0	2270.0	2253.0	2253.0	2253.0	2191.0	2191.0	2227.0	2227.0	2227.0	2167.0	2167.0	2224.0	2224.0	2224.0	2151.0	2151.0	2186.0	2186.0	2186.0	2120.0	2120.0	2133.0	2133.0	2133.0	2115.0	2115.0	2142.0	2142.0	2142.0	2129.0	2129.0	2089.0	2089.0	2089.0	2075.0	2075.0	2086.0	2086.0	2086.0	2124.0	2124.0	2035.0	2035.0	2035.0	2099.0	2099.0	2054.0	2054.0	2054.0	2063.0	2063.0	2095.0	2095.0	2095.0	2008.0	2008.0	2017.0	2017.0	2017.0	2076.0	2076.0	1993.0	1993.0	1993.0	2023.0	2023.0	1990.0	1990.0	1990.0	2053.0	2053.0	2058.0	2058.0	2058.0	1994.0	1994.0	2002.0	2002.0	2002.0	1962.0	1962.0	1984.0	1984.0	1984.0	1999.0	1999.0	2002.0	2002.0	2002.0	1966.0	1966.0	1935.0	1935.0	1935.0	2014.0	2014.0	2009.0	2009.0	2009.0	1982.0	1982.0	1919.0	1919.0	1919.0	1994.0	1994.0	1917.0	1917.0	1917.0	1940.0	1940.0	1989.0	1989.0	1989.0	1987.0	1987.0	1936.0	1936.0	1936.0	1975.0	1975.0	1897.0	1897.0	1897.0	1905.0	1905.0	1972.0	1972.0	1972.0	1886.0	1886.0	1885.0	1885.0	1885.0	1884.0	1884.0	1892.0	1892.0	1892.0	1947.0	1947.0	1905.0	1905.0	1905.0	1867.0	1867.0	1868.0	1868.0	1868.0	1937.0	1937.0	1855.0	1855.0	1855.0	1858.0	1858.0	1905.0	1905.0	1891.0	1891.0	1891.0	1895.0	1895.0	1819.0	1819.0	1819.0	1832.0	1832.0	1890.0	1890.0	1890.0	1823.0	1823.0	1870.0	1870.0	1870.0	1816.0	1816.0	1803.0	1803.0	1803.0	1824.0	1824.0	1812.0	1812.0	1812.0	1768.0	1768.0	1755.0	1755.0	1755.0	1819.0	1819.0	1815.0	1815.0	1815.0	1798.0	1798.0	1724.0	1724.0	1724.0	1711.0	1711.0	1711.0	1711.0	1711.0	1697.0	1697.0	1716.0	1716.0	1716.0	1719.0	1719.0	1687.0	1687.0	1687.0	1739.0	1739.0	1678.0	1678.0	1678.0	1648.0	1648.0	1650.0	1650.0	1650.0	1689.0	1689.0	1670.0	1670.0	1670.0	1676.0	1676.0	1655.0	1655.0	1655.0	1611.0	1611.0	1604.0	1604.0	1604.0	1581.0	1581.0	1632.0	1632.0	1632.0	1583.0	1583.0	1599.0	1599.0	1599.0	1538.0	1538.0	1600.0	1600.0	1600.0	1519.0	1519.0	1516.0	1516.0	1516.0	1520.0	1520.0	1495.0	1495.0	1495.0	1558.0	1558.0	1514.0	1514.0	1514.0	1531.0	1531.0	1551.0	1551.0	1551.0	1490.0	1490.0	1538.0	1538.0	1538.0	1483.0	1483.0	1485.0	1485.0	1485.0	1455.0	1455.0	1438.0	1438.0	1438.0	1479.0	1479.0	1515.0	1515.0	1515.0	1426.0	1426.0	1450.0	1450.0	1450.0	1479.0	1479.0	1423.0	1423.0	1423.0	1427.0	1427.0	1492.0	1492.0	1492.0	1487.0	1487.0	1498.0	1498.0	1498.0	1485.0	1485.0	1509.0	1509.0	1509.0	1450.0	1450.0	1431.0	1431.0	1431.0	1508.0	1508.0	1465.0	1465.0	1465.0	1525.0	1525.0	1456.0	1456.0	1456.0	1450.0	1450.0	1492.0	1492.0	1492.0	1520.0	1520.0	1560.0	1560.0	1560.0	1602.0	1602.0	1619.0	1619.0	1619.0	1628.0	1628.0	1607.0	1607.0	1607.0	1702.0	1702.0	1711.0	1711.0	1711.0	1739.0	1739.0	1772.0	1772.0	1777.0	1777.0	1777.0	1827.0	1827.0	1941.0	1941.0	1941.0	1901.0	1901.0	1987.0	1987.0	1987.0	1992.0	1992.0	2122.0	2122.0	2122.0	2150.0	2150.0	2127.0	2127.0	2127.0	2254.0	2254.0	2230.0	2230.0	2230.0	2263.0	2263.0	2305.0	2305.0	2305.0	2428.0	2428.0	2459.0	2459.0	2459.0	2482.0	2482.0	2536.0	2536.0	2536.0	2579.0	2579.0	2608.0	2608.0	2608.0	2617.0	2617.0	2612.0	2612.0	2612.0	2700.0	2700.0	2686.0	2686.0	2686.0	2748.0	2748.0	2700.0	2700.0	2700.0	2719.0	2719.0	2797.0	2797.0	2797.0	2810.0	2810.0	2758.0	2758.0	2758.0	2779.0	2779.0	2867.0	2867.0	2867.0	2820.0	2820.0	2884.0	2884.0	2884.0	2842.0	2842.0	2858.0	2858.0	2858.0	2889.0	2889.0	2840.0	2840.0	2840.0	2864.0	2864.0	2886.0	2886.0	2886.0	2885.0	2885.0	2916.0	2916.0	2916.0	2912.0	2912.0	2872.0	2872.0	2872.0	2938.0	2938.0	2948.0	2948.0	2948.0	2867.0	2867.0	2874.0	2874.0	2874.0	2937.0	2937.0	2863.0	2863.0	2863.0	2853.0	2853.0	2868.0	2868.0	2868.0	2919.0	2919.0	2827.0	2827.0	2827.0	2910.0	2910.0	2874.0	2874.0	2874.0	2831.0	2831.0	2837.0	2837.0	2837.0	2826.0	2826.0	2884.0	2884.0	2884.0	2807.0	2807.0	2818.0	2818.0	2818.0	2789.0	2789.0	2824.0	2824.0	2824.0	2771.0	2771.0	2814.0	2814.0	2814.0	2766.0	2766.0	2819.0	2819.0	2819.0	2749.0	2749.0	2763.0	2763.0	2763.0	2807.0	2807.0	2733.0	2733.0	2733.0	2697.0	2697.0	2700.0	2700.0	2700.0	2772.0	2772.0	2672.0	2672.0	2672.0	2677.0	2677.0	2678.0	2678.0	2678.0	2699.0	2699.0	2673.0	2673.0	2673.0	2681.0	2681.0	2667.0	2667.0	2679.0	2679.0	2679.0	2634.0	2634.0	2606.0	2606.0	2606.0	2566.0	2566.0	2543.0	2543.0	2543.0	2598.0	2598.0	2598.0	2598.0	2598.0	2584.0	2584.0	2526.0	2526.0	2526.0	2556.0	2556.0	2503.0	2503.0	2503.0	2480.0	2480.0	2432.0	2432.0	2432.0	2458.0	2458.0	2466.0	2466.0	2466.0	2387.0	2387.0	2349.0	2349.0	2349.0	2335.0	2335.0	2331.0	2331.0	2331.0	2386.0	2386.0	2342.0	2342.0	2342.0	2328.0	2328.0	2315.0	2315.0	2315.0	2231.0	2231.0	2286.0	2286.0	2286.0	2202.0	2202.0	2258.0	2258.0	2258.0	2206.0	2206.0	2143.0	2143.0	2143.0	2133.0	2133.0	2111.0	2111.0	2111.0	2096.0	2096.0	2144.0	2144.0	2144.0	2063.0	2063.0	2127.0	2127.0	2127.0	2025.0	2025.0	2040.0	2040.0	2040.0	2073.0	2073.0	2007.0	2007.0	2007.0	2044.0	2044.0	1951.0	1951.0	1951.0	1992.0	1992.0	1942.0	1942.0	1942.0	1986.0	1986.0	1976.0	1976.0	1976.0	1903.0	1903.0	1899.0	1899.0	1899.0	1932.0	1932.0	1857.0	1857.0	1857.0	1919.0	1919.0	1896.0	1896.0	1896.0	1863.0	1863.0	1880.0	1880.0	1880.0	1830.0	1830.0	1874.0	1874.0	1874.0	1788.0	1788.0	1859.0	1859.0	1859.0	1798.0	1798.0	1766.0	1766.0	1766.0	1823.0	1823.0	1767.0	1767.0	1767.0	1829.0	1829.0	1817.0	1817.0	1817.0	1742.0	1742.0	1719.0	1719.0	1719.0	1713.0	1713.0	1727.0	1727.0	1727.0	1783.0	1783.0	1697.0	1697.0	1697.0	1775.0	1775.0	1766.0	1766.0	1766.0	1680.0	1680.0	1678.0	1678.0	1678.0	1688.0	1688.0	1707.0	1707.0	1707.0	1734.0	1734.0	1725.0	1725.0	1725.0	1680.0	1680.0	1639.0	1639.0	1639.0	1678.0	1678.0	1688.0	1688.0	1669.0	1669.0	1669.0	1668.0	1668.0	1676.0	1676.0	1676.0	1651.0	1651.0	1648.0	1648.0	1648.0	1685.0	1685.0	1611.0	1611.0	1611.0	1660.0	1660.0	1596.0	1596.0	1596.0	1671.0	1671.0	1590.0	1590.0	1590.0	1581.0	1581.0	1667.0	1667.0	1667.0	1649.0	1649.0	1630.0	1630.0	1630.0	1570.0	1570.0	1640.0	1640.0	1640.0	1587.0	1587.0	1587.0	1587.0	1587.0	1629.0	1629.0	1655.0	1655.0	1655.0	1657.0	1657.0	1571.0	1571.0	1571.0	1606.0	1606.0	1567.0	1567.0	1567.0	1562.0	1562.0	1629.0	1629.0	1629.0	1641.0	1641.0	1558.0	1558.0	1558.0	1552.0	1552.0	1578.0	1578.0	1578.0	1634.0	1634.0	1595.0	1595.0	1595.0	1621.0	1621.0	1537.0	1537.0	1537.0	1545.0	1545.0	1613.0	1613.0	1613.0	1579.0	1579.0	1608.0	1608.0	1608.0	1562.0	1562.0	1521.0	1521.0	1521.0	1510.0	1510.0	1587.0	1587.0	1587.0	1504.0	1504.0	1494.0	1494.0	1494.0	1490.0	1490.0	1501.0	1501.0	1501.0	1533.0	1533.0	1497.0	1497.0	1497.0	1548.0	1548.0	1511.0	1511.0	1511.0	1528.0	1528.0	1454.0	1454.0	1454.0	1451.0	1451.0	1444.0	1444.0	1444.0	1512.0	1512.0	1520.0	1520.0	1520.0	1475.0	1475.0	1513.0	1513.0	1513.0	1506.0	1506.0	1462.0	1462.0	1462.0	1439.0	1439.0	1414.0	1414.0	1414.0	1409.0	1409.0	1488.0	1488.0	1488.0	1466.0	1466.0	1476.0	1476.0	1476.0	1479.0	1479.0	1438.0	1438.0	1438.0	1402.0	1402.0	1400.0	1400.0	1400.0	1465.0	1465.0	1431.0	1431.0	1431.0	1396.0	1396.0	1436.0	1436.0	1436.0	1468.0	1468.0	1425.0	1425.0	1425.0	1389.0	1389.0	1412.0	1412.0	1412.0	1475.0	1475.0	1409.0	1409.0	1409.0	1418.0	1418.0	1428.0	1428.0	1486.0	1486.0	1486.0	1503.0	1503.0	1489.0	1489.0	1489.0	1516.0	1516.0	1503.0	1503.0	1503.0	1564.0	1564.0	1559.0	1559.0	1559.0	1589.0	1589.0	1650.0	1650.0	1650.0	1690.0	1690.0	1730.0	1730.0	1730.0	1741.0	1741.0	1847.0	1847.0	1847.0	1910.0	1910.0	1877.0	1877.0	1877.0	1975.0	1975.0	1960.0	1960.0	1960.0	2099.0	2099.0	2120.0	2120.0	2120.0	2176.0	2176.0	2207.0	2207.0	2207.0	2278.0	2278.0	2292.0	2292.0	2292.0	2288.0	2288.0	2385.0	2385.0	2385.0	2429.0	2429.0	2467.0	2467.0	2467.0	2502.0	2502.0	2466.0	2466.0	2466.0	2509.0	2509.0	2534.0	2534.0	2534.0	2550.0	2550.0	2580.0	2580.0	2580.0	2636.0	2636.0	2694.0	2694.0	2694.0	2663.0	2663.0	2744.0	2744.0	2744.0	2726.0	2726.0	2748.0	2748.0	2748.0	2707.0	2707.0	2756.0	2756.0	2756.0	2799.0	2799.0	2804.0	2804.0	2804.0	2762.0	2762.0	2795.0	2795.0	2795.0	2848.0	2848.0	2762.0	2762.0	2762.0	2826.0	2826.0	2769.0	2769.0	2769.0	2844.0	2844.0	2798.0	2798.0	2798.0	2774.0	2774.0	2786.0	2786.0	2786.0	2793.0	2793.0	2825.0	2825.0	2825.0	2772.0	2772.0	2819.0	2819.0	2819.0	2846.0	2846.0	2795.0	2795.0	2795.0	2770.0	2770.0	2808.0	2808.0	2808.0	2811.0	2811.0	2841.0	2841.0	2841.0	2831.0	2831.0	2832.0	2832.0	2832.0	2826.0	2826.0	2763.0	2763.0	2763.0	2799.0	2799.0	2817.0	2817.0	2817.0	2817.0	2817.0	2751.0	2751.0	2751.0	2721.0	2721.0	2751.0	2751.0	2751.0	2773.0	2773.0	2725.0	2725.0	2725.0	2713.0	2713.0	2704.0	2704.0	2704.0	2725.0	2725.0	2743.0	2743.0	2743.0	2733.0	2733.0	2722.0	2722.0	2634.0	2634.0	2634.0	2687.0	2687.0	2706.0	2706.0	2706.0	2658.0	2658.0	2614.0	2614.0	2614.0	2644.0	2644.0	2606.0	2606.0	2606.0	2613.0	2613.0	2611.0	2611.0	2611.0	2589.0	2589.0	2539.0	2539.0	2539.0	2523.0	2523.0	2578.0	2578.0	2578.0	2584.0	2584.0	2492.0	2492.0	2492.0	2549.0	2549.0	2513.0	2513.0	2513.0	2495.0	2495.0	2471.0	2471.0	2471.0	2485.0	2485.0	2398.0	2398.0	2398.0	2385.0	2385.0	2364.0	2364.0	2364.0	2368.0	2368.0	2327.0	2327.0	2327.0	2362.0	2362.0	2368.0	2368.0	2368.0	2322.0	2322.0	2320.0	2320.0	2320.0	2243.0	2243.0	2286.0	2286.0	2286.0	2212.0	2212.0	2232.0	2232.0	2232.0	2240.0	2240.0	2215.0	2215.0	2215.0	2148.0	2148.0	2151.0	2151.0	2151.0	2115.0	2115.0	2153.0	2153.0	2153.0	2119.0	2119.0	2100.0	2100.0	2100.0	2027.0	2027.0	2094.0	2094.0	2094.0	2057.0	2057.0	2040.0	2040.0	2040.0	