2019.0	2011.0	2011.0	2018.0	2018.0	2018.0	2010.0	2010.0	2007.0	2007.0	2007.0	2009.0	2009.0	1987.0	1987.0	1987.0	2001.0	2001.0	2016.0	2016.0	2016.0	2003.0	2003.0	1989.0	1989.0	1989.0	2026.0	2026.0	2003.0	2003.0	2003.0	1955.0	1955.0	1959.0	1959.0	2013.0	2013.0	2013.0	1992.0	1992.0	1965.0	1965.0	1965.0	1957.0	1957.0	1947.0	1947.0	1947.0	1951.0	1951.0	1946.0	1946.0	1946.0	1964.0	1964.0	1962.0	1962.0	1962.0	1981.0	1981.0	1976.0	1976.0	1976.0	1920.0	1920.0	1967.0	1967.0	1967.0	1955.0	1955.0	1911.0	1911.0	1911.0	1911.0	1911.0	1941.0	1941.0	1941.0	1927.0	1927.0	1935.0	1935.0	1935.0	1944.0	1944.0	1941.0	1941.0	1941.0	1950.0	1950.0	1952.0	1952.0	1952.0	1892.0	1892.0	1885.0	1885.0	1885.0	1931.0	1931.0	1942.0	1942.0	1942.0	1918.0	1918.0	1924.0	1924.0	1924.0	1916.0	1916.0	1904.0	1904.0	1904.0	1931.0	1931.0	1896.0	1896.0	1896.0	1888.0	1888.0	1919.0	1919.0	1919.0	1900.0	1900.0	1871.0	1871.0	1871.0	1856.0	1856.0	1889.0	1889.0	1889.0	1860.0	1860.0	1849.0	1849.0	1849.0	1861.0	1861.0	1884.0	1884.0	1884.0	1901.0	1901.0	1908.0	1908.0	1908.0	1886.0	1886.0	1854.0	1854.0	1854.0	1900.0	1900.0	1861.0	1861.0	1861.0	1834.0	1834.0	1874.0	1874.0	1874.0	1830.0	1830.0	1841.0	1841.0	1841.0	1862.0	1862.0	1881.0	1881.0	1881.0	1836.0	1836.0	1843.0	1843.0	1843.0	1855.0	1855.0	1831.0	1831.0	1831.0	1840.0	1840.0	1813.0	1813.0	1813.0	1830.0	1830.0	1816.0	1816.0	1816.0	1809.0	1809.0	1826.0	1826.0	1826.0	1838.0	1838.0	1819.0	1819.0	1819.0	1796.0	1796.0	1844.0	1844.0	1844.0	1833.0	1833.0	1828.0	1828.0	1828.0	1812.0	1812.0	1837.0	1837.0	1837.0	1777.0	1777.0	1770.0	1770.0	1770.0	1838.0	1838.0	1794.0	1794.0	1794.0	1801.0	1801.0	1775.0	1775.0	1775.0	1767.0	1767.0	1829.0	1829.0	1773.0	1773.0	1773.0	1767.0	1767.0	1762.0	1762.0	1762.0	1807.0	1807.0	1798.0	1798.0	1798.0	1815.0	1815.0	1756.0	1756.0	1756.0	1783.0	1783.0	1760.0	1760.0	1760.0	1785.0	1785.0	1806.0	1806.0	1806.0	1752.0	1752.0	1757.0	1757.0	1757.0	1787.0	1787.0	1752.0	1752.0	1752.0	1798.0	1798.0	1721.0	1721.0	1721.0	1773.0	1773.0	1773.0	1773.0	1773.0	1791.0	1791.0	1755.0	1755.0	1755.0	1735.0	1735.0	1732.0	1732.0	1732.0	1781.0	1781.0	1780.0	1780.0	1780.0	1751.0	1751.0	1737.0	1737.0	1737.0	1765.0	1765.0	1762.0	1762.0	1762.0	1726.0	1726.0	1736.0	1736.0	1736.0	1774.0	1774.0	1732.0	1732.0	1732.0	1768.0	1768.0	1723.0	1723.0	1723.0	1759.0	1759.0	1771.0	1771.0	1771.0	1780.0	1780.0	1721.0	1721.0	1721.0	1751.0	1751.0	1718.0	1718.0	1718.0	1745.0	1745.0	1749.0	1749.0	1749.0	1743.0	1743.0	1735.0	1735.0	1735.0	1742.0	1742.0	1746.0	1746.0	1746.0	1790.0	1790.0	1806.0	1806.0	1806.0	1801.0	1801.0	1756.0	1756.0	1756.0	1806.0	1806.0	1825.0	1825.0	1825.0	1805.0	1805.0	1866.0	1866.0	1866.0	1851.0	1851.0	1832.0	1832.0	1832.0	1900.0	1900.0	1885.0	1885.0	1885.0	1900.0	1900.0	1946.0	1946.0	1946.0	1958.0	1958.0	1965.0	1965.0	1965.0	2011.0	2011.0	2041.0	2041.0	2041.0	2040.0	2040.0	2095.0	2095.0	2095.0	2080.0	2080.0	2097.0	2097.0	2097.0	2150.0	2150.0	2160.0	2160.0	2160.0	2215.0	2215.0	2225.0	2225.0	2225.0	2206.0	2206.0	2257.0	2257.0	2257.0	2281.0	2281.0	2285.0	2285.0	2285.0	2309.0	2309.0	2312.0	2312.0	2312.0	2313.0	2313.0	2364.0	2364.0	2364.0	2345.0	2345.0	2339.0	2339.0	2381.0	2381.0	2381.0	2367.0	2367.0	2387.0	2387.0	2387.0	2381.0	2381.0	2369.0	2369.0	2369.0	2408.0	2408.0	2404.0	2404.0	2404.0	2412.0	2412.0	2423.0	2423.0	2423.0	2438.0	2438.0	2430.0	2430.0	2430.0	2427.0	2427.0	2409.0	2409.0	2409.0	2475.0	2475.0	2451.0	2451.0	2451.0	2421.0	2421.0	2435.0	2435.0	2435.0	2416.0	2416.0	2431.0	2431.0	2431.0	2450.0	2450.0	2435.0	2435.0	2435.0	2444.0	2444.0	2421.0	2421.0	2421.0	2408.0	2408.0	2451.0	2451.0	2451.0	2415.0	2415.0	2446.0	2446.0	2446.0	2438.0	2438.0	2409.0	2409.0	2409.0	2430.0	2430.0	2395.0	2395.0	2395.0	2414.0	2414.0	2420.0	2420.0	2420.0	2372.0	2372.0	2435.0	2435.0	2435.0	2430.0	2430.0	2373.0	2373.0	2373.0	2420.0	2420.0	2364.0	2364.0	2364.0	2358.0	2358.0	2365.0	2365.0	2365.0	2366.0	2366.0	2362.0	2362.0	2362.0	2387.0	2387.0	2386.0	2386.0	2386.0	2361.0	2361.0	2332.0	2332.0	2332.0	2321.0	2321.0	2331.0	2331.0	2331.0	2340.0	2340.0	2304.0	2304.0	2304.0	2337.0	2337.0	2305.0	2305.0	2305.0	2287.0	2287.0	2279.0	2279.0	2279.0	2314.0	2314.0	2275.0	2275.0	2275.0	2259.0	2259.0	2249.0	2249.0	2249.0	2260.0	2260.0	2260.0	2260.0	2260.0	2267.0	2267.0	2253.0	2253.0	2253.0	2201.0	2201.0	2200.0	2200.0	2200.0	2182.0	2182.0	2219.0	2219.0	2219.0	2236.0	2236.0	2214.0	2214.0	2214.0	2186.0	2186.0	2145.0	2145.0	2145.0	2138.0	2138.0	2176.0	2176.0	2176.0	2161.0	2161.0	2114.0	2114.0	2114.0	2146.0	2146.0	2136.0	2136.0	2136.0	2132.0	2132.0	2123.0	2123.0	2123.0	2105.0	2105.0	2095.0	2095.0	2103.0	2103.0	2103.0	2062.0	2062.0	2061.0	2061.0	2061.0	2076.0	2076.0	2049.0	2049.0	2049.0	2013.0	2013.0	2056.0	2056.0	2056.0	2023.0	2023.0	2038.0	2038.0	2038.0	2038.0	2038.0	2022.0	2022.0	2022.0	2017.0	2017.0	2005.0	2005.0	2005.0	1963.0	1963.0	1997.0	1997.0	1997.0	1996.0	1996.0	1984.0	1984.0	1984.0	1934.0	1934.0	1984.0	1984.0	1984.0	1946.0	1946.0	1983.0	1983.0	1983.0	1966.0	1966.0	1938.0	1938.0	1938.0	1952.0	1952.0	1915.0	1915.0	1915.0	1937.0	1937.0	1937.0	1937.0	1937.0	1952.0	1952.0	1891.0	1891.0	1891.0	1897.0	1897.0	1930.0	1930.0	1930.0	1924.0	1924.0	1900.0	1900.0	1900.0	1934.0	1934.0	1898.0	1898.0	1898.0	1916.0	1916.0	1948.0	1948.0	1948.0	1905.0	1905.0	1903.0	1903.0	1903.0	1915.0	1915.0	1871.0	1871.0	1871.0	1918.0	1918.0	1864.0	1864.0	1864.0	1875.0	1875.0	1914.0	1914.0	1914.0	1860.0	1860.0	1876.0	1876.0	1876.0	1854.0	1854.0	1853.0	1853.0	1853.0	1859.0	1859.0	1894.0	1894.0	1894.0	1841.0	1841.0	1859.0	1859.0	1859.0	1896.0	1896.0	1883.0	1883.0	1883.0	1886.0	1886.0	1862.0	1862.0	1862.0	1857.0	1857.0	1867.0	1867.0	1867.0	1832.0	1832.0	1845.0	1845.0	1845.0	1856.0	1856.0	1826.0	1826.0	1826.0	1869.0	1869.0	1859.0	1859.0	1859.0	1864.0	1864.0	1839.0	1839.0	1839.0	1849.0	1849.0	1814.0	1814.0	1814.0	1848.0	1848.0	1863.0	1863.0	1863.0	1815.0	1815.0	1802.0	1802.0	1802.0	1847.0	1847.0	1824.0	1824.0	1824.0	1843.0	1843.0	1828.0	1828.0	1828.0	1792.0	1792.0	1830.0	1830.0	1830.0	1779.0	1779.0	1798.0	1798.0	1819.0	1819.0	1819.0	1815.0	1815.0	1776.0	1776.0	1776.0	1806.0	1806.0	1799.0	1799.0	1799.0	1807.0	1807.0	1800.0	1800.0	1800.0	1758.0	1758.0	1758.0	1758.0	1758.0	1806.0	1806.0	1742.0	1742.0	1742.0	1764.0	1764.0	1784.0	1784.0	1784.0	1787.0	1787.0	1746.0	1746.0	1746.0	1752.0	1752.0	1793.0	1793.0	1793.0	1730.0	1730.0	1730.0	1730.0	1730.0	1767.0	1767.0	1754.0	1754.0	1754.0	1766.0	1766.0	1772.0	1772.0	1772.0	1764.0	1764.0	1719.0	1719.0	1719.0	1715.0	1715.0	1758.0	1758.0	1758.0	1732.0	1732.0	1709.0	1709.0	1709.0	1696.0	1696.0	1705.0	1705.0	1705.0	1719.0	1719.0	1703.0	1703.0	1703.0	1752.0	1752.0	1695.0	1695.0	1695.0	1736.0	1736.0	1717.0	1717.0	1717.0	1715.0	1715.0	1726.0	1726.0	1726.0	1684.0	1684.0	1725.0	1725.0	1725.0	1713.0	1713.0	1737.0	1737.0	1737.0	1696.0	1696.0	1734.0	1734.0	1734.0	1683.0	1683.0	1692.0	1692.0	1692.0	1682.0	1682.0	1674.0	1674.0	1674.0	1703.0	1703.0	1671.0	1671.0	1671.0	1718.0	1718.0	1690.0	1690.0	1690.0	1736.0	1736.0	1672.0	1672.0	1672.0	1708.0	1708.0	1722.0	1722.0	1722.0	1696.0	1696.0	1711.0	1711.0	1711.0	1717.0	1717.0	1709.0	1709.0	1709.0	1706.0	1706.0	1675.0	1675.0	1675.0	1685.0	1685.0	1662.0	1662.0	1662.0	1703.0	1703.0	1678.0	1678.0	1678.0	1732.0	1732.0	1731.0	1731.0	1731.0	1675.0	1675.0	1688.0	1688.0	1688.0	1748.0	1748.0	1715.0	1715.0	1715.0	1721.0	1721.0	1726.0	1726.0	1726.0	1757.0	1757.0	1778.0	1778.0	1778.0	1772.0	1772.0	1783.0	1783.0	1783.0	1785.0	1785.0	1799.0	1799.0	1799.0	1827.0	1827.0	1852.0	1852.0	1913.0	1913.0	1913.0	1947.0	1947.0	1916.0	1916.0	1916.0	1967.0	1967.0	1959.0	1959.0	1959.0	1996.0	1996.0	2058.0	2058.0	2058.0	2048.0	2048.0	2096.0	2096.0	2096.0	2070.0	2070.0	2085.0	2085.0	2085.0	2157.0	2157.0	2181.0	2181.0	2181.0	2206.0	2206.0	2225.0	2225.0	2225.0	2197.0	2197.0	2197.0	2197.0	2197.0	2264.0	2264.0	2265.0	2265.0	2265.0	2275.0	2275.0	2293.0	2293.0	2293.0	2273.0	2273.0	2288.0	2288.0	2288.0	2304.0	2304.0	2318.0	2318.0	2318.0	2352.0	2352.0	2320.0	2320.0	2320.0	2319.0	2319.0	2387.0	2387.0	2387.0	2352.0	2352.0	2334.0	2334.0	2334.0	2371.0	2371.0	2375.0	2375.0	2375.0	2410.0	2410.0	2388.0	2388.0	2388.0	2349.0	2349.0	2406.0	2406.0	2406.0	2382.0	2382.0	2355.0	2355.0	2355.0	2412.0	2412.0	2376.0	2376.0	2376.0	2371.0	2371.0	2401.0	2401.0	2401.0	2400.0	2400.0	2384.0	2384.0	2384.0	2395.0	2395.0	2351.0	2351.0	2351.0	2364.0	2364.0	2364.0	2364.0	2364.0	2377.0	2377.0	2341.0	2341.0	2341.0	2347.0	2347.0	2371.0	2371.0	2371.0	2343.0	2343.0	2332.0	2332.0	2332.0	2348.0	2348.0	2319.0	2319.0	2319.0	2324.0	2324.0	2341.0	2341.0	2341.0	2305.0	2305.0	2331.0	2331.0	2331.0	2346.0	2346.0	2301.0	2301.0	2301.0	2327.0	2327.0	2326.0	2326.0	2326.0	2271.0	2271.0	2304.0	2304.0	2304.0	2280.0	2280.0	2284.0	2284.0	2284.0	2276.0	2276.0	2290.0	2290.0	2290.0	2278.0	2278.0	2296.0	2296.0	2296.0	2274.0	2274.0	2244.0	2244.0	2244.0	2298.0	2298.0	2280.0	2280.0	2280.0	2274.0	2274.0	2267.0	2267.0	2267.0	2275.0	2275.0	2237.0	2237.0	2230.0	2230.0	2230.0	2214.0	2214.0	2228.0	2228.0	2228.0	2243.0	2243.0	2214.0	2214.0	2214.0	2226.0	2226.0	2189.0	2189.0	2189.0	2183.0	2183.0	2189.0	2189.0	2189.0	2173.0	2173.0	2133.0	2133.0	2133.0	2163.0	2163.0	2129.0	2129.0	2129.0	2119.0	2119.0	2133.0	2133.0	2133.0	2096.0	2096.0	2103.0	2103.0	2103.0	2078.0	2078.0	2070.0	2070.0	2070.0	2100.0	2100.0	2047.0	2047.0	2047.0	2093.0	2093.0	2041.0	2041.0	2041.0	2073.0	2073.0	2068.0	2068.0	2068.0	2023.0	2023.0	2023.0	2023.0	2023.0	2056.0	2056.0	2035.0	2035.0	2035.0	1989.0	1989.0	1999.0	1999.0	1999.0	1972.0	1972.0	1983.0	1983.0	1983.0	1999.0	1999.0	1963.0	1963.0	1963.0	1996.0	1996.0	1985.0	1985.0	1985.0	1974.0	1974.0	1923.0	1923.0	1923.0	1961.0	1961.0	1953.0	1953.0	1953.0	1925.0	1925.0	1955.0	1955.0	1955.0	1917.0	1917.0	1943.0	1943.0	1943.0	1943.0	1943.0	1909.0	1909.0	1909.0	1936.0	1936.0	1942.0	1942.0	1942.0	1943.0	1943.0	1935.0	1935.0	1935.0	1935.0	1935.0	1920.0	1920.0	1920.0	1918.0	1918.0	1921.0	1921.0	1921.0	1911.0	1911.0	1882.0	1882.0	1882.0	1870.0	1870.0	1887.0	1887.0	1887.0	1880.0	1880.0	1873.0	1873.0	1873.0	1870.0	1870.0	1923.0	1923.0	1923.0	1918.0	1918.0	1915.0	1915.0	1915.0	1923.0	1923.0	1911.0	1911.0	1911.0	1886.0	1886.0	1888.0	1888.0	1888.0	1858.0	1858.0	1875.0	1875.0	1875.0	1884.0	1884.0	1863.0	1863.0	1863.0	1873.0	1873.0	1843.0	1843.0	1843.0	1890.0	1890.0	1866.0	1866.0	1866.0	1907.0	1907.0	1853.0	1853.0	1853.0	1832.0	1832.0	1884.0	1884.0	1884.0	1872.0	1872.0	1856.0	1856.0	1876.0	1876.0	1876.0	1860.0	1860.0	1849.0	1849.0	1849.0	1860.0	1860.0	1860.0	1860.0	1860.0	1817.0	1817.0	1843.0	1843.0	1843.0	1801.0	1801.0	1863.0	1863.0	1863.0	1812.0	1812.0	1809.0	1809.0	1809.0	1800.0	1800.0	1819.0	1819.0	1819.0	1802.0	1802.0	1785.0	1785.0	1785.0	1802.0	1802.0	1820.0	1820.0	1820.0	1829.0	1829.0	1824.0	1824.0	1824.0	1778.0	1778.0	1830.0	1830.0	1830.0	1756.0	1756.0	1820.0	1820.0	1820.0	1805.0	1805.0	1803.0	1803.0	1803.0	1818.0	1818.0	1766.0	1766.0	1766.0	1816.0	1816.0	1808.0	1808.0	1808.0	1800.0	1800.0	1766.0	1766.0	1766.0	1780.0	1780.0	1756.0	1756.0	1756.0	1766.0	1766.0	1771.0	1771.0	1771.0	1800.0	1800.0	1767.0	1767.0	1767.0	1783.0	1783.0	1744.0	1744.0	1744.0	1769.0	1769.0	1766.0	1766.0	1766.0	1786.0	1786.0	1748.0	1748.0	1748.0	1779.0	1779.0	1783.0	1783.0	1783.0	1776.0	1776.0	1764.0	1764.0	1764.0	1721.0	1721.0	1772.0	1772.0	1772.0	1729.0	1729.0	1741.0	1741.0	1741.0	1734.0	1734.0	1749.0	1749.0	1749.0	1720.0	1720.0	1773.0	1773.0	1773.0	1714.0	1714.0	1725.0	1725.0	1725.0	1745.0	1745.0	1771.0	1771.0	1771.0	1710.0	1710.0	1746.0	1746.0	1746.0	1734.0	1734.0	1716.0	1716.0	1716.0	1766.0	1766.0	1752.0	1752.0	1752.0	1717.0	1717.0	1719.0	1719.0	1719.0	1707.0	1707.0	1703.0	1703.0	1703.0	1741.0	1741.0	1732.0	1732.0	1732.0	1705.0	1705.0	1743.0	1743.0	1743.0	1725.0	1725.0	1708.0	1708.0	1708.0	1712.0	1712.0	1710.0	1710.0	1710.0	1735.0	1735.0	1681.0	1681.0	1681.0	1738.0	1738.0	1688.0	1688.0	1688.0	1688.0	1688.0	1735.0	1735.0	1690.0	1690.0	1690.0	1741.0	1741.0	1712.0	1712.0	1712.0	1730.0	1730.0	1749.0	1749.0	1749.0	1723.0	1723.0	1711.0	1711.0	1711.0	1721.0	1721.0	1766.0	1766.0	1766.0	1741.0	1741.0	1775.0	1775.0	1775.0	1741.0	1741.0	1748.0	1748.0	1748.0	1820.0	1820.0	1786.0	1786.0	1786.0	1841.0	1841.0	1863.0	1863.0	1863.0	1837.0	1837.0	1897.0	1897.0	1897.0	1918.0	1918.0	1906.0	1906.0	1906.0	1959.0	1959.0	1941.0	1941.0	1941.0	1977.0	1977.0	1977.0	1977.0	1977.0	2065.0	2065.0	2090.0	2090.0	2090.0	2072.0	2072.0	2120.0	2120.0	2120.0	2115.0	2115.0	2131.0	2131.0	2131.0	2148.0	2148.0	2167.0	2167.0	2167.0	2204.0	2204.0	2190.0	2190.0	2190.0	2262.0	2262.0	2240.0	2240.0	2240.0	2289.0	2289.0	2254.0	2254.0	2254.0	2327.0	2327.0	2313.0	2313.0	2313.0	2351.0	2351.0	2307.0	2307.0	2307.0	2372.0	2372.0	2339.0	2339.0	2339.0	2362.0	2362.0	2347.0	2347.0	2347.0	2339.0	2339.0	2373.0	2373.0	2373.0	2407.0	2407.0	2355.0	2355.0	2355.0	2404.0	2404.0	2383.0	2383.0	2383.0	2420.0	2420.0	2387.0	2387.0	2387.0	2414.0	2414.0	2439.0	2439.0	2439.0	2436.0	2436.0	2377.0	2377.0	2377.0	2445.0	2445.0	2399.0	2399.0	2399.0	2437.0	2437.0	2408.0	2408.0	2408.0	2441.0	2441.0	2400.0	2400.0	2400.0	2441.0	2441.0	2443.0	2443.0	2443.0	2388.0	2388.0	2412.0	2412.0	2412.0	2429.0	2429.0	2420.0	2420.0	2420.0	2400.0	2400.0	2435.0	2435.0	2435.0	2441.0	2441.0	2383.0	2383.0	2383.0	2387.0	2387.0	2404.0	2404.0	2404.0	2397.0	2397.0	2380.0	2380.0	2417.0	2417.0	2417.0	2377.0	2377.0	2374.0	2374.0	2374.0	2365.0	2365.0	2374.0	2374.0	2374.0	2409.0	2409.0	2361.0	2361.0	2361.0	2418.0	2418.0	2397.0	2397.0	2397.0	2411.0	2411.0	2385.0	2385.0	2385.0	2376.0	2376.0	2396.0	2396.0	2396.0	2376.0	2376.0	2381.0	2381.0	2381.0	2369.0	2369.0	2367.0	2367.0	2367.0	2379.0	2379.0	2379.0	2379.0	2379.0	2327.0	2327.0	2332.0	2332.0	2332.0	2321.0	2321.0	2340.0	2340.0	2340.0	2328.0	2328.0	2337.0	2337.0	2337.0	2341.0	2341.0	2319.0	2319.0	2319.0	2297.0	2297.0	2281.0	2281.0	2281.0	2290.0	2290.0	2288.0	2288.0	2288.0	2253.0	2253.0	2305.0	2305.0	2305.0	2256.0	2256.0	2240.0	2240.0	2240.0	2263.0	2263.0	2239.0	2239.0	2239.0	2238.0	2238.0	2258.0	2258.0	2258.0	2226.0	2226.0	2188.0	2188.0	2188.0	2213.0	2213.0	2191.0	2191.0	2191.0	2194.0	2194.0	2215.0	2215.0	2215.0	2190.0	2190.0	2161.0	2161.0	2161.0	2119.0	2119.0	2160.0	2160.0	2160.0	2171.0	2171.0	2158.0	2158.0	2158.0	2094.0	2094.0	2140.0	2140.0	2140.0	2110.0	2110.0	2063.0	2063.0	2063.0	2067.0	2067.0	2087.0	2087.0	2087.0	2078.0	2078.0	2087.0	2087.0	2087.0	2043.0	2043.0	2062.0	2062.0	2062.0	2076.0	2076.0	2046.0	2046.0	2046.0	2060.0	2060.0	2046.0	2046.0	2046.0	2002.0	2002.0	2037.0	2037.0	2037.0	1992.0	1992.0	1987.0	1987.0	1987.0	1997.0	1997.0	1970.0	1970.0	1970.0	1979.0	1979.0	2018.0	2018.0	2018.0	1985.0	1985.0	1985.0	1985.0	1985.0	1999.0	1999.0	1997.0	1997.0	1997.0	1968.0	1968.0	1973.0	1973.0	1973.0	1967.0	1967.0	1948.0	1948.0	1948.0	2001.0	2001.0	1951.0	1951.0	1966.0	1966.0	1966.0	1941.0	1941.0	1940.0	1940.0	1940.0	1928.0	1928.0	1951.0	1951.0	1951.0	1912.0	1912.0	1931.0	1931.0	1931.0	1952.0	1952.0	1923.0	1923.0	1923.0	1930.0	1930.0	