2813.0	2779.0	2779.0	2767.0	2767.0	2767.0	2766.0	2766.0	2781.0	2781.0	2781.0	2768.0	2768.0	2732.0	2732.0	2732.0	2727.0	2727.0	2722.0	2722.0	2722.0	2713.0	2713.0	2713.0	2713.0	2713.0	2716.0	2716.0	2756.0	2756.0	2756.0	2725.0	2725.0	2759.0	2759.0	2759.0	2673.0	2673.0	2726.0	2726.0	2726.0	2713.0	2713.0	2668.0	2668.0	2668.0	2710.0	2710.0	2617.0	2617.0	2617.0	2651.0	2651.0	2587.0	2587.0	2587.0	2608.0	2608.0	2581.0	2581.0	2581.0	2642.0	2642.0	2586.0	2586.0	2586.0	2603.0	2603.0	2585.0	2585.0	2585.0	2547.0	2547.0	2569.0	2569.0	2569.0	2538.0	2538.0	2531.0	2531.0	2531.0	2485.0	2485.0	2510.0	2510.0	2510.0	2443.0	2443.0	2388.0	2388.0	2388.0	2437.0	2437.0	2430.0	2430.0	2430.0	2370.0	2370.0	2314.0	2314.0	2314.0	2360.0	2360.0	2280.0	2280.0	2280.0	2342.0	2342.0	2293.0	2293.0	2293.0	2272.0	2272.0	2266.0	2266.0	2266.0	2181.0	2181.0	2180.0	2180.0	2180.0	2223.0	2223.0	2126.0	2126.0	2126.0	2097.0	2097.0	2165.0	2165.0	2165.0	2088.0	2088.0	2051.0	2051.0	2051.0	2063.0	2063.0	2048.0	2048.0	2048.0	2029.0	2029.0	2063.0	2063.0	2063.0	1981.0	1981.0	2040.0	2040.0	2040.0	1952.0	1952.0	1947.0	1947.0	1947.0	1945.0	1945.0	1975.0	1975.0	1975.0	1931.0	1931.0	1929.0	1929.0	1929.0	1918.0	1918.0	1888.0	1888.0	1888.0	1860.0	1860.0	1909.0	1909.0	1909.0	1839.0	1839.0	1831.0	1831.0	1831.0	1854.0	1854.0	1807.0	1807.0	1841.0	1841.0	1841.0	1830.0	1830.0	1825.0	1825.0	1825.0	1859.0	1859.0	1872.0	1872.0	1872.0	1872.0	1872.0	1827.0	1827.0	1827.0	1771.0	1771.0	1850.0	1850.0	1850.0	1837.0	1837.0	1826.0	1826.0	1826.0	1761.0	1761.0	1786.0	1786.0	1786.0	1816.0	1816.0	1764.0	1764.0	1764.0	1752.0	1752.0	1808.0	1808.0	1808.0	1761.0	1761.0	1759.0	1759.0	1759.0	1755.0	1755.0	1826.0	1826.0	1826.0	1744.0	1744.0	1753.0	1753.0	1753.0	1788.0	1788.0	1785.0	1785.0	1785.0	1735.0	1735.0	1795.0	1795.0	1795.0	1746.0	1746.0	1737.0	1737.0	1737.0	1806.0	1806.0	1728.0	1728.0	1728.0	1745.0	1745.0	1768.0	1768.0	1768.0	1712.0	1712.0	1748.0	1748.0	1748.0	1789.0	1789.0	1783.0	1783.0	1783.0	1744.0	1744.0	1783.0	1783.0	1783.0	1700.0	1700.0	1755.0	1755.0	1755.0	1706.0	1706.0	1710.0	1710.0	1710.0	1682.0	1682.0	1747.0	1747.0	1747.0	1685.0	1685.0	1665.0	1665.0	1665.0	1740.0	1740.0	1734.0	1734.0	1734.0	1655.0	1655.0	1646.0	1646.0	1646.0	1698.0	1698.0	1647.0	1647.0	1647.0	1723.0	1723.0	1656.0	1656.0	1656.0	1679.0	1679.0	1697.0	1697.0	1697.0	1640.0	1640.0	1688.0	1688.0	1688.0	1698.0	1698.0	1697.0	1697.0	1697.0	1626.0	1626.0	1690.0	1690.0	1690.0	1686.0	1686.0	1622.0	1622.0	1622.0	1688.0	1688.0	1636.0	1636.0	1636.0	1617.0	1617.0	1644.0	1644.0	1644.0	1598.0	1598.0	1671.0	1671.0	1671.0	1666.0	1666.0	1656.0	1656.0	1656.0	1638.0	1638.0	1682.0	1682.0	1682.0	1592.0	1592.0	1606.0	1606.0	1606.0	1626.0	1626.0	1621.0	1621.0	1621.0	1593.0	1593.0	1649.0	1649.0	1588.0	1588.0	1588.0	1660.0	1660.0	1592.0	1592.0	1592.0	1666.0	1666.0	1621.0	1621.0	1621.0	1601.0	1601.0	1642.0	1642.0	1642.0	1599.0	1599.0	1584.0	1584.0	1584.0	1636.0	1636.0	1646.0	1646.0	1646.0	1580.0	1580.0	1654.0	1654.0	1654.0	1655.0	1655.0	1584.0	1584.0	1584.0	1644.0	1644.0	1606.0	1606.0	1606.0	1655.0	1655.0	1599.0	1599.0	1599.0	1664.0	1664.0	1670.0	1670.0	1670.0	1643.0	1643.0	1667.0	1667.0	1667.0	1574.0	1574.0	1578.0	1578.0	1578.0	1579.0	1579.0	1603.0	1603.0	1603.0	1584.0	1584.0	1658.0	1658.0	1658.0	1600.0	1600.0	1579.0	1579.0	1579.0	1653.0	1653.0	1595.0	1595.0	1595.0	1563.0	1563.0	1589.0	1589.0	1589.0	1617.0	1617.0	1567.0	1567.0	1567.0	1638.0	1638.0	1558.0	1558.0	1558.0	1560.0	1560.0	1591.0	1591.0	1591.0	1652.0	1652.0	1572.0	1572.0	1572.0	1581.0	1581.0	1596.0	1596.0	1596.0	1601.0	1601.0	1616.0	1616.0	1616.0	1636.0	1636.0	1700.0	1700.0	1700.0	1743.0	1743.0	1695.0	1695.0	1695.0	1734.0	1734.0	1834.0	1834.0	1834.0	1797.0	1797.0	1839.0	1839.0	1839.0	1876.0	1876.0	1986.0	1986.0	1986.0	1950.0	1950.0	2005.0	2005.0	2005.0	2086.0	2086.0	2160.0	2160.0	2160.0	2202.0	2202.0	2244.0	2244.0	2244.0	2294.0	2294.0	2252.0	2252.0	2252.0	2359.0	2359.0	2391.0	2391.0	2391.0	2379.0	2379.0	2468.0	2468.0	2468.0	2515.0	2515.0	2503.0	2503.0	2503.0	2589.0	2589.0	2572.0	2572.0	2572.0	2641.0	2641.0	2680.0	2680.0	2680.0	2697.0	2697.0	2668.0	2668.0	2668.0	2687.0	2687.0	2796.0	2796.0	2796.0	2812.0	2812.0	2822.0	2822.0	2822.0	2799.0	2799.0	2855.0	2855.0	2804.0	2804.0	2804.0	2794.0	2794.0	2850.0	2850.0	2850.0	2853.0	2853.0	2900.0	2900.0	2900.0	2832.0	2832.0	2863.0	2863.0	2863.0	2845.0	2845.0	2903.0	2903.0	2903.0	2875.0	2875.0	2837.0	2837.0	2837.0	2850.0	2850.0	2896.0	2896.0	2896.0	2838.0	2838.0	2833.0	2833.0	2833.0	2855.0	2855.0	2833.0	2833.0	2833.0	2882.0	2882.0	2910.0	2910.0	2910.0	2892.0	2892.0	2901.0	2901.0	2901.0	2891.0	2891.0	2808.0	2808.0	2808.0	2826.0	2826.0	2836.0	2836.0	2836.0	2806.0	2806.0	2782.0	2782.0	2782.0	2842.0	2842.0	2821.0	2821.0	2821.0	2842.0	2842.0	2743.0	2743.0	2743.0	2743.0	2743.0	2736.0	2736.0	2736.0	2748.0	2748.0	2792.0	2792.0	2792.0	2802.0	2802.0	2772.0	2772.0	2772.0	2690.0	2690.0	2759.0	2759.0	2759.0	2746.0	2746.0	2748.0	2748.0	2748.0	2673.0	2673.0	2691.0	2691.0	2691.0	2646.0	2646.0	2632.0	2632.0	2632.0	2689.0	2689.0	2689.0	2689.0	2689.0	2630.0	2630.0	2598.0	2598.0	2598.0	2577.0	2577.0	2567.0	2567.0	2567.0	2586.0	2586.0	2630.0	2630.0	2630.0	2615.0	2615.0	2528.0	2528.0	2528.0	2570.0	2570.0	2575.0	2575.0	2575.0	2530.0	2530.0	2529.0	2529.0	2529.0	2523.0	2523.0	2518.0	2518.0	2518.0	2439.0	2439.0	2456.0	2456.0	2456.0	2463.0	2463.0	2460.0	2460.0	2460.0	2377.0	2377.0	2428.0	2428.0	2428.0	2335.0	2335.0	2322.0	2322.0	2322.0	2291.0	2291.0	2316.0	2316.0	2316.0	2304.0	2304.0	2243.0	2243.0	2243.0	2303.0	2303.0	2275.0	2275.0	2275.0	2226.0	2226.0	2211.0	2211.0	2211.0	2151.0	2151.0	2198.0	2198.0	2198.0	2161.0	2161.0	2099.0	2099.0	2099.0	2099.0	2099.0	2088.0	2088.0	2089.0	2089.0	2089.0	2115.0	2115.0	2063.0	2063.0	2063.0	2074.0	2074.0	1986.0	1986.0	1986.0	1980.0	1980.0	1961.0	1961.0	1961.0	1988.0	1988.0	2017.0	2017.0	2017.0	1924.0	1924.0	1940.0	1940.0	1940.0	1941.0	1941.0	1977.0	1977.0	1977.0	1969.0	1969.0	1897.0	1897.0	1897.0	1949.0	1949.0	1905.0	1905.0	1905.0	1861.0	1861.0	1936.0	1936.0	1936.0	1846.0	1846.0	1923.0	1923.0	1923.0	1884.0	1884.0	1840.0	1840.0	1840.0	1850.0	1850.0	1894.0	1894.0	1894.0	1863.0	1863.0	1887.0	1887.0	1887.0	1904.0	1904.0	1872.0	1872.0	1872.0	1898.0	1898.0	1821.0	1821.0	1821.0	1819.0	1819.0	1827.0	1827.0	1827.0	1843.0	1843.0	1806.0	1806.0	1806.0	1815.0	1815.0	1864.0	1864.0	1864.0	1855.0	1855.0	1859.0	1859.0	1859.0	1875.0	1875.0	1814.0	1814.0	1814.0	1880.0	1880.0	1829.0	1829.0	1829.0	1796.0	1796.0	1880.0	1880.0	1880.0	1858.0	1858.0	1807.0	1807.0	1807.0	1823.0	1823.0	1783.0	1783.0	1783.0	1799.0	1799.0	1821.0	1821.0	1821.0	1847.0	1847.0	1803.0	1803.0	1803.0	1778.0	1778.0	1803.0	1803.0	1803.0	1852.0	1852.0	1847.0	1847.0	1847.0	1760.0	1760.0	1759.0	1759.0	1759.0	1836.0	1836.0	1816.0	1816.0	1816.0	1807.0	1807.0	1804.0	1804.0	1804.0	1751.0	1751.0	1824.0	1824.0	1824.0	1822.0	1822.0	1805.0	1805.0	1805.0	1780.0	1780.0	1770.0	1770.0	1770.0	1803.0	1803.0	1804.0	1804.0	1804.0	1733.0	1733.0	1713.0	1713.0	1713.0	1788.0	1788.0	1708.0	1708.0	1708.0	1772.0	1772.0	1750.0	1750.0	1750.0	1744.0	1744.0	1694.0	1694.0	1743.0	1743.0	1743.0	1698.0	1698.0	1725.0	1725.0	1725.0	1766.0	1766.0	1727.0	1727.0	1727.0	1742.0	1742.0	1672.0	1672.0	1672.0	1722.0	1722.0	1723.0	1723.0	1723.0	1750.0	1750.0	1700.0	1700.0	1700.0	1658.0	1658.0	1732.0	1732.0	1732.0	1717.0	1717.0	1647.0	1647.0	1647.0	1661.0	1661.0	1652.0	1652.0	1652.0	1729.0	1729.0	1729.0	1729.0	1729.0	1663.0	1663.0	1725.0	1725.0	1725.0	1717.0	1717.0	1703.0	1703.0	1703.0	1644.0	1644.0	1702.0	1702.0	1702.0	1717.0	1717.0	1708.0	1708.0	1708.0	1646.0	1646.0	1672.0	1672.0	1672.0	1703.0	1703.0	1659.0	1659.0	1659.0	1702.0	1702.0	1634.0	1634.0	1634.0	1607.0	1607.0	1688.0	1688.0	1688.0	1606.0	1606.0	1663.0	1663.0	1663.0	1670.0	1670.0	1596.0	1596.0	1596.0	1683.0	1683.0	1589.0	1589.0	1589.0	1632.0	1632.0	1605.0	1605.0	1605.0	1662.0	1662.0	1605.0	1605.0	1605.0	1607.0	1607.0	1585.0	1585.0	1585.0	1641.0	1641.0	1579.0	1579.0	1579.0	1643.0	1643.0	1621.0	1621.0	1621.0	1656.0	1656.0	1575.0	1575.0	1575.0	1652.0	1652.0	1589.0	1589.0	1589.0	1646.0	1646.0	1555.0	1555.0	1555.0	1628.0	1628.0	1581.0	1581.0	1581.0	1557.0	1557.0	1619.0	1619.0	1619.0	1630.0	1630.0	1597.0	1597.0	1597.0	1618.0	1618.0	1640.0	1640.0	1640.0	1570.0	1570.0	1610.0	1610.0	1610.0	1632.0	1632.0	1651.0	1651.0	1651.0	1578.0	1578.0	1596.0	1596.0	1596.0	1627.0	1627.0	1678.0	1678.0	1678.0	1678.0	1678.0	1679.0	1679.0	1679.0	1726.0	1726.0	1659.0	1659.0	1659.0	1769.0	1769.0	1799.0	1799.0	1799.0	1793.0	1793.0	1852.0	1852.0	1852.0	1801.0	1801.0	1895.0	1895.0	1883.0	1883.0	1883.0	1987.0	1987.0	1983.0	1983.0	1983.0	2012.0	2012.0	2091.0	2091.0	2091.0	2135.0	2135.0	2189.0	2189.0	2189.0	2200.0	2200.0	2310.0	2310.0	2310.0	2339.0	2339.0	2327.0	2327.0	2327.0	2388.0	2388.0	2429.0	2429.0	2429.0	2534.0	2534.0	2552.0	2552.0	2552.0	2536.0	2536.0	2577.0	2577.0	2577.0	2602.0	2602.0	2637.0	2637.0	2637.0	2706.0	2706.0	2713.0	2713.0	2713.0	2752.0	2752.0	2761.0	2761.0	2761.0	2833.0	2833.0	2807.0	2807.0	2807.0	2827.0	2827.0	2891.0	2891.0	2891.0	2834.0	2834.0	2906.0	2906.0	2906.0	2855.0	2855.0	2873.0	2873.0	2873.0	2901.0	2901.0	2881.0	2881.0	2881.0	2927.0	2927.0	2960.0	2960.0	2960.0	2962.0	2962.0	2961.0	2961.0	2961.0	2957.0	2957.0	2871.0	2871.0	2871.0	2878.0	2878.0	2959.0	2959.0	2959.0	2952.0	2952.0	2930.0	2930.0	2930.0	2896.0	2896.0	2903.0	2903.0	2903.0	2931.0	2931.0	2861.0	2861.0	2861.0	2926.0	2926.0	2933.0	2933.0	2933.0	2863.0	2863.0	2840.0	2840.0	2840.0	2856.0	2856.0	2825.0	2825.0	2825.0	2893.0	2893.0	2883.0	2883.0	2883.0	2874.0	2874.0	2871.0	2871.0	2871.0	2801.0	2801.0	2783.0	2783.0	2783.0	2843.0	2843.0	2809.0	2809.0	2809.0	2766.0	2766.0	2807.0	2807.0	2807.0	2793.0	2793.0	2782.0	2782.0	2782.0	2726.0	2726.0	2801.0	2801.0	2801.0	2739.0	2739.0	2767.0	2767.0	2767.0	2730.0	2730.0	2762.0	2762.0	2762.0	2736.0	2736.0	2664.0	2664.0	2664.0	2659.0	2659.0	2710.0	2710.0	2710.0	2618.0	2618.0	2688.0	2688.0	2688.0	2607.0	2607.0	2591.0	2591.0	2591.0	2590.0	2590.0	2606.0	2606.0	2613.0	2613.0	2613.0	2638.0	2638.0	2547.0	2547.0	2547.0	2606.0	2606.0	2585.0	2585.0	2585.0	2547.0	2547.0	2519.0	2519.0	2519.0	2501.0	2501.0	2532.0	2532.0	2532.0	2439.0	2439.0	2415.0	2415.0	2415.0	2434.0	2434.0	2395.0	2395.0	2395.0	2378.0	2378.0	2401.0	2401.0	2401.0	2376.0	2376.0	2362.0	2362.0	2362.0	2378.0	2378.0	2364.0	2364.0	2364.0	2262.0	2262.0	2266.0	2266.0	2266.0	2264.0	2264.0	2253.0	2253.0	2253.0	2194.0	2194.0	2234.0	2234.0	2234.0	2144.0	2144.0	2193.0	2193.0	2193.0	2164.0	2164.0	2176.0	2176.0	2176.0	2065.0	2065.0	2077.0	2077.0	2077.0	2098.0	2098.0	2019.0	2019.0	2019.0	1996.0	1996.0	2077.0	2077.0	2077.0	1976.0	1976.0	1961.0	1961.0	1961.0	2035.0	2035.0	1938.0	1938.0	1938.0	1957.0	1957.0	1983.0	1983.0	1983.0	1898.0	1898.0	1955.0	1955.0	1955.0	1900.0	1900.0	1917.0	1917.0	1917.0	1845.0	1845.0	1849.0	1849.0	1849.0	1848.0	1848.0	1838.0	1838.0	1838.0	1859.0	1859.0	1905.0	1905.0	1905.0	1848.0	1848.0	1894.0	1894.0	1894.0	1861.0	1861.0	1825.0	1825.0	1825.0	1879.0	1879.0	1811.0	1811.0	1811.0	1816.0	1816.0	1880.0	1880.0	1880.0	1803.0	1803.0	1787.0	1787.0	1787.0	1871.0	1871.0	1785.0	1785.0	1785.0	1850.0	1850.0	1793.0	1793.0	1793.0	1860.0	1860.0	1783.0	1783.0	1783.0	1794.0	1794.0	1849.0	1849.0	1849.0	1770.0	1770.0	1790.0	1790.0	1790.0	1797.0	1797.0	1822.0	1822.0	1822.0	1756.0	1756.0	1766.0	1766.0	1766.0	1757.0	1757.0	1748.0	1748.0	1748.0	1742.0	1742.0	1739.0	1739.0	1739.0	1824.0	1824.0	1803.0	1803.0	1800.0	1800.0	1800.0	1725.0	1725.0	1739.0	1739.0	1739.0	1728.0	1728.0	1735.0	1735.0	1735.0	1789.0	1789.0	1718.0	1718.0	1718.0	1763.0	1763.0	1749.0	1749.0	1749.0	1730.0	1730.0	1755.0	1755.0	1755.0	1712.0	1712.0	1748.0	1748.0	1748.0	1738.0	1738.0	1763.0	1763.0	1763.0	1708.0	1708.0	1668.0	1668.0	1668.0	1679.0	1679.0	1679.0	1679.0	1679.0	1655.0	1655.0	1658.0	1658.0	1658.0	1670.0	1670.0	1660.0	1660.0	1660.0	1728.0	1728.0	1651.0	1651.0	1651.0	1649.0	1649.0	1660.0	1660.0	1660.0	1629.0	1629.0	1668.0	1668.0	1668.0	1696.0	1696.0	1676.0	1676.0	1676.0	1636.0	1636.0	1660.0	1660.0	1660.0	1613.0	1613.0	1641.0	1641.0	1641.0	1618.0	1618.0	1641.0	1641.0	1641.0	1695.0	1695.0	1693.0	1693.0	1693.0	1678.0	1678.0	1615.0	1615.0	1615.0	1637.0	1637.0	1615.0	1615.0	1615.0	1703.0	1703.0	1619.0	1619.0	1619.0	1630.0	1630.0	1686.0	1686.0	1686.0	1635.0	1635.0	1677.0	1677.0	1677.0	1689.0	1689.0	1670.0	1670.0	1670.0	1694.0	1694.0	1694.0	1694.0	1694.0	1700.0	1700.0	1685.0	1685.0	1685.0	1700.0	1700.0	1649.0	1649.0	1649.0	1713.0	1713.0	1689.0	1689.0	1689.0	1653.0	1653.0	1709.0	1709.0	1709.0	1659.0	1659.0	1691.0	1691.0	1691.0	1637.0	1637.0	1624.0	1624.0	1624.0	1687.0	1687.0	1703.0	1703.0	1703.0	1624.0	1624.0	1689.0	1689.0	1689.0	1644.0	1644.0	1636.0	1636.0	1636.0	1631.0	1631.0	1695.0	1695.0	1695.0	1623.0	1623.0	1610.0	1610.0	1610.0	1598.0	1598.0	1634.0	1634.0	1634.0	1648.0	1648.0	1670.0	1670.0	1670.0	1610.0	1610.0	1656.0	1656.0	1656.0	1665.0	1665.0	1576.0	1576.0	1622.0	1622.0	1622.0	1576.0	1576.0	1581.0	1581.0	1581.0	1597.0	1597.0	1622.0	1622.0	1622.0	1586.0	1586.0	1558.0	1558.0	1558.0	1566.0	1566.0	1602.0	1602.0	1602.0	1625.0	1625.0	1590.0	1590.0	1590.0	1562.0	1562.0	1581.0	1581.0	1581.0	1620.0	1620.0	1623.0	1623.0	1623.0	1620.0	1620.0	1621.0	1621.0	1621.0	1635.0	1635.0	1586.0	1586.0	1586.0	1612.0	1612.0	1650.0	1650.0	1650.0	1617.0	1617.0	1646.0	1646.0	1646.0	1621.0	1621.0	1648.0	1648.0	1648.0	1691.0	1691.0	1784.0	1784.0	1784.0	1814.0	1814.0	1791.0	1791.0	1791.0	1837.0	1837.0	1834.0	1834.0	1834.0	1959.0	1959.0	1924.0	1924.0	1924.0	1990.0	1990.0	2016.0	2016.0	2016.0	2124.0	2124.0	2081.0	2081.0	2081.0	2180.0	2180.0	2229.0	2229.0	2229.0	2227.0	2227.0	2324.0	2324.0	2324.0	2330.0	2330.0	2386.0	2386.0	2386.0	2421.0	2421.0	2418.0	2418.0	2418.0	2524.0	2524.0	2572.0	2572.0	2572.0	2603.0	2603.0	2569.0	2569.0	2569.0	2592.0	2592.0	2654.0	2654.0	2654.0	2713.0	2713.0	2682.0	2682.0	2682.0	2702.0	2702.0	2716.0	2716.0	2716.0	2784.0	2784.0	2729.0	2729.0	2729.0	2782.0	2782.0	2796.0	2796.0	2796.0	2763.0	2763.0	2859.0	2859.0	2859.0	2862.0	2862.0	2799.0	2799.0	2799.0	2791.0	2791.0	2843.0	2843.0	2843.0	2876.0	2876.0	2807.0	2807.0	2807.0	2895.0	2895.0	2842.0	2842.0	2842.0	2836.0	2836.0	2887.0	2887.0	2887.0	2898.0	2898.0	2894.0	2894.0	2894.0	2804.0	2804.0	2830.0	2830.0	2830.0	2797.0	2797.0	2793.0	2793.0	2793.0	2806.0	2806.0	2788.0	2788.0	2788.0	2787.0	2787.0	2824.0	2824.0	2852.0	2852.0	2852.0	2794.0	2794.0	2811.0	2811.0	2811.0	2830.0	2830.0	2753.0	2753.0	2753.0	2818.0	2818.0	2817.0	2817.0	2817.0	2727.0	2727.0	2783.0	2783.0	2783.0	2760.0	2760.0	2777.0	2777.0	2777.0	2769.0	2769.0	2768.0	2768.0	2768.0	2680.0	2680.0	2699.0	2699.0	2699.0	2671.0	2671.0	2696.0	2696.0	2696.0	2656.0	2656.0	2646.0	2646.0	2646.0	2646.0	2646.0	2636.0	2636.0	2636.0	2619.0	2619.0	2661.0	2661.0	2661.0	2606.0	2606.0	2661.0	2661.0	2661.0	2628.0	2628.0	2569.0	2569.0	2569.0	2561.0	2561.0	2603.0	2603.0	2603.0	2585.0	2585.0	2527.0	2527.0	2527.0	2597.0	2597.0	2512.0	2512.0	