1404.0	1404.0	1404.0	1435.0	1435.0	1399.0	1399.0	1399.0	1392.0	1392.0	1459.0	1459.0	1459.0	1440.0	1440.0	1430.0	1430.0	1430.0	1432.0	1432.0	1383.0	1383.0	1383.0	1364.0	1364.0	1403.0	1403.0	1403.0	1440.0	1440.0	1433.0	1433.0	1433.0	1387.0	1387.0	1434.0	1434.0	1434.0	1371.0	1371.0	1417.0	1417.0	1417.0	1427.0	1427.0	1411.0	1411.0	1411.0	1351.0	1351.0	1348.0	1348.0	1348.0	1397.0	1397.0	1387.0	1387.0	1387.0	1345.0	1345.0	1386.0	1386.0	1386.0	1343.0	1343.0	1363.0	1363.0	1363.0	1411.0	1411.0	1336.0	1336.0	1336.0	1397.0	1397.0	1358.0	1358.0	1358.0	1397.0	1397.0	1413.0	1413.0	1413.0	1337.0	1337.0	1388.0	1388.0	1388.0	1329.0	1329.0	1396.0	1396.0	1396.0	1389.0	1389.0	1363.0	1363.0	1363.0	1364.0	1364.0	1409.0	1409.0	1409.0	1354.0	1354.0	1373.0	1373.0	1373.0	1370.0	1370.0	1405.0	1405.0	1405.0	1395.0	1395.0	1346.0	1346.0	1346.0	1378.0	1378.0	1326.0	1326.0	1326.0	1395.0	1395.0	1403.0	1403.0	1403.0	1404.0	1404.0	1347.0	1347.0	1347.0	1388.0	1388.0	1371.0	1371.0	1371.0	1358.0	1358.0	1413.0	1413.0	1413.0	1372.0	1372.0	1399.0	1399.0	1399.0	1350.0	1350.0	1419.0	1419.0	1419.0	1363.0	1363.0	1384.0	1384.0	1384.0	1409.0	1409.0	1366.0	1366.0	1366.0	1407.0	1407.0	1355.0	1355.0	1355.0	1391.0	1391.0	1362.0	1362.0	1362.0	1409.0	1409.0	1368.0	1368.0	1368.0	1395.0	1395.0	1385.0	1385.0	1385.0	1376.0	1376.0	1423.0	1423.0	1428.0	1428.0	1428.0	1452.0	1452.0	1435.0	1435.0	1435.0	1423.0	1423.0	1486.0	1486.0	1486.0	1495.0	1495.0	1478.0	1478.0	1478.0	1513.0	1513.0	1467.0	1467.0	1467.0	1524.0	1524.0	1610.0	1610.0	1610.0	1620.0	1620.0	1608.0	1608.0	1608.0	1639.0	1639.0	1709.0	1709.0	1709.0	1696.0	1696.0	1738.0	1738.0	1738.0	1782.0	1782.0	1782.0	1782.0	1782.0	1919.0	1919.0	2004.0	2004.0	2004.0	2032.0	2032.0	2018.0	2018.0	2018.0	2145.0	2145.0	2200.0	2200.0	2200.0	2197.0	2197.0	2286.0	2286.0	2286.0	2276.0	2276.0	2311.0	2311.0	2311.0	2436.0	2436.0	2439.0	2439.0	2439.0	2512.0	2512.0	2547.0	2547.0	2547.0	2535.0	2535.0	2625.0	2625.0	2625.0	2621.0	2621.0	2710.0	2710.0	2710.0	2712.0	2712.0	2731.0	2731.0	2731.0	2719.0	2719.0	2755.0	2755.0	2755.0	2825.0	2825.0	2854.0	2854.0	2854.0	2888.0	2888.0	2839.0	2839.0	2839.0	2919.0	2919.0	2864.0	2864.0	2864.0	2943.0	2943.0	2926.0	2926.0	2926.0	2893.0	2893.0	2954.0	2954.0	2954.0	2966.0	2966.0	2918.0	2918.0	2918.0	3003.0	3003.0	2963.0	2963.0	2963.0	2935.0	2935.0	3009.0	3009.0	3009.0	2966.0	2966.0	3025.0	3025.0	3025.0	2953.0	2953.0	3033.0	3033.0	3033.0	3028.0	3028.0	2998.0	2998.0	2998.0	2974.0	2974.0	2977.0	2977.0	2977.0	3025.0	3025.0	2991.0	2991.0	2991.0	3047.0	3047.0	2984.0	2984.0	2984.0	2997.0	2997.0	3002.0	3002.0	3002.0	3030.0	3030.0	3008.0	3008.0	3008.0	3068.0	3068.0	3055.0	3055.0	3055.0	2980.0	2980.0	3051.0	3051.0	3051.0	3058.0	3058.0	3024.0	3024.0	3024.0	3055.0	3055.0	2983.0	2983.0	2983.0	2980.0	2980.0	3011.0	3011.0	3034.0	3034.0	3034.0	3038.0	3038.0	2964.0	2964.0	2964.0	2990.0	2990.0	2953.0	2953.0	2953.0	2938.0	2938.0	2938.0	2938.0	2938.0	2990.0	2990.0	2981.0	2981.0	2981.0	2928.0	2928.0	2953.0	2953.0	2953.0	2895.0	2895.0	2923.0	2923.0	2923.0	2862.0	2862.0	2915.0	2915.0	2915.0	2886.0	2886.0	2867.0	2867.0	2867.0	2836.0	2836.0	2826.0	2826.0	2826.0	2749.0	2749.0	2749.0	2749.0	2749.0	2772.0	2772.0	2707.0	2707.0	2707.0	2646.0	2646.0	2676.0	2676.0	2676.0	2645.0	2645.0	2604.0	2604.0	2604.0	2621.0	2621.0	2557.0	2557.0	2557.0	2599.0	2599.0	2517.0	2517.0	2517.0	2509.0	2509.0	2459.0	2459.0	2459.0	2463.0	2463.0	2450.0	2450.0	2450.0	2478.0	2478.0	2462.0	2462.0	2462.0	2377.0	2377.0	2426.0	2426.0	2426.0	2405.0	2405.0	2368.0	2368.0	2368.0	2356.0	2356.0	2316.0	2316.0	2316.0	2347.0	2347.0	2352.0	2352.0	2352.0	2297.0	2297.0	2268.0	2268.0	2268.0	2273.0	2273.0	2268.0	2268.0	2268.0	2312.0	2312.0	2258.0	2258.0	2258.0	2239.0	2239.0	2252.0	2252.0	2252.0	2271.0	2271.0	2272.0	2272.0	2272.0	2203.0	2203.0	2193.0	2193.0	2193.0	2197.0	2197.0	2256.0	2256.0	2256.0	2176.0	2176.0	2189.0	2189.0	2189.0	2166.0	2166.0	2236.0	2236.0	2236.0	2166.0	2166.0	2162.0	2162.0	2162.0	2174.0	2174.0	2198.0	2198.0	2198.0	2187.0	2187.0	2184.0	2184.0	2184.0	2176.0	2176.0	2142.0	2142.0	2142.0	2101.0	2101.0	2092.0	2092.0	2092.0	2084.0	2084.0	2067.0	2067.0	2067.0	2110.0	2110.0	2096.0	2096.0	2096.0	2064.0	2064.0	2094.0	2094.0	2094.0	2089.0	2089.0	1990.0	1990.0	2000.0	2000.0	2000.0	2028.0	2028.0	1989.0	1989.0	1989.0	1964.0	1964.0	1986.0	1986.0	1986.0	1940.0	1940.0	1926.0	1926.0	1926.0	1928.0	1928.0	1980.0	1980.0	1980.0	1967.0	1967.0	1887.0	1887.0	1887.0	1955.0	1955.0	1894.0	1894.0	1894.0	1854.0	1854.0	1847.0	1847.0	1847.0	1831.0	1831.0	1882.0	1882.0	1882.0	1836.0	1836.0	1805.0	1805.0	1805.0	1854.0	1854.0	1855.0	1855.0	1855.0	1803.0	1803.0	1755.0	1755.0	1755.0	1780.0	1780.0	1805.0	1805.0	1805.0	1798.0	1798.0	1800.0	1800.0	1800.0	1737.0	1737.0	1761.0	1761.0	1761.0	1765.0	1765.0	1759.0	1759.0	1759.0	1682.0	1682.0	1736.0	1736.0	1736.0	1694.0	1694.0	1665.0	1665.0	1665.0	1670.0	1670.0	1720.0	1720.0	1720.0	1653.0	1653.0	1639.0	1639.0	1639.0	1683.0	1683.0	1663.0	1663.0	1663.0	1663.0	1663.0	1627.0	1627.0	1627.0	1692.0	1692.0	1640.0	1640.0	1640.0	1606.0	1606.0	1609.0	1609.0	1609.0	1673.0	1673.0	1651.0	1651.0	1651.0	1598.0	1598.0	1599.0	1599.0	1599.0	1639.0	1639.0	1606.0	1606.0	1606.0	1565.0	1565.0	1571.0	1571.0	1571.0	1556.0	1556.0	1568.0	1568.0	1568.0	1583.0	1583.0	1545.0	1545.0	1545.0	1550.0	1550.0	1604.0	1604.0	1604.0	1539.0	1539.0	1566.0	1566.0	1566.0	1524.0	1524.0	1556.0	1556.0	1556.0	1591.0	1591.0	1584.0	1584.0	1584.0	1535.0	1535.0	1516.0	1516.0	1516.0	1523.0	1523.0	1566.0	1566.0	1566.0	1551.0	1551.0	1522.0	1522.0	1522.0	1491.0	1491.0	1567.0	1567.0	1567.0	1516.0	1516.0	1539.0	1539.0	1539.0	1487.0	1487.0	1478.0	1478.0	1478.0	1486.0	1486.0	1477.0	1477.0	1477.0	1542.0	1542.0	1480.0	1480.0	1494.0	1494.0	1494.0	1484.0	1484.0	1541.0	1541.0	1541.0	1531.0	1531.0	1506.0	1506.0	1506.0	1517.0	1517.0	1531.0	1531.0	1531.0	1538.0	1538.0	1536.0	1536.0	1536.0	1465.0	1465.0	1526.0	1526.0	1526.0	1536.0	1536.0	1455.0	1455.0	1455.0	1474.0	1474.0	1538.0	1538.0	1538.0	1453.0	1453.0	1517.0	1517.0	1517.0	1463.0	1463.0	1509.0	1509.0	1509.0	1506.0	1506.0	1445.0	1445.0	1445.0	1486.0	1486.0	1457.0	1457.0	1457.0	1499.0	1499.0	1514.0	1514.0	1514.0	1507.0	1507.0	1513.0	1513.0	1513.0	1471.0	1471.0	1446.0	1446.0	1446.0	1475.0	1475.0	1509.0	1509.0	1509.0	1451.0	1451.0	1515.0	1515.0	1515.0	1515.0	1515.0	1524.0	1524.0	1524.0	1444.0	1444.0	1485.0	1485.0	1485.0	1509.0	1509.0	1529.0	1529.0	1529.0	1524.0	1524.0	1518.0	1518.0	1518.0	1505.0	1505.0	1495.0	1495.0	1495.0	1526.0	1526.0	1510.0	1510.0	1510.0	1459.0	1459.0	1509.0	1509.0	1509.0	1439.0	1439.0	1478.0	1478.0	1478.0	1475.0	1475.0	1499.0	1499.0	1499.0	1444.0	1444.0	1514.0	1514.0	1514.0	1465.0	1465.0	1515.0	1515.0	1515.0	1437.0	1437.0	1480.0	1480.0	1480.0	1444.0	1444.0	1463.0	1463.0	1463.0	1535.0	1535.0	1479.0	1479.0	1479.0	1518.0	1518.0	1470.0	1470.0	1470.0	1491.0	1491.0	1528.0	1528.0	1528.0	1516.0	1516.0	1499.0	1499.0	1499.0	1604.0	1604.0	1544.0	1544.0	1544.0	1611.0	1611.0	1605.0	1605.0	1605.0	1615.0	1615.0	1647.0	1647.0	1647.0	1695.0	1695.0	1752.0	1752.0	1752.0	1800.0	1800.0	1790.0	1790.0	1790.0	1858.0	1858.0	1958.0	1958.0	1958.0	1925.0	1925.0	1973.0	1973.0	2026.0	2026.0	2026.0	2087.0	2087.0	2158.0	2158.0	2158.0	2214.0	2214.0	2257.0	2257.0	2257.0	2316.0	2316.0	2304.0	2304.0	2304.0	2395.0	2395.0	2375.0	2375.0	2375.0	2439.0	2439.0	2443.0	2443.0	2443.0	2466.0	2466.0	2516.0	2516.0	2516.0	2543.0	2543.0	2595.0	2595.0	2595.0	2611.0	2611.0	2687.0	2687.0	2687.0	2684.0	2684.0	2706.0	2706.0	2706.0	2740.0	2740.0	2705.0	2705.0	2705.0	2766.0	2766.0	2712.0	2712.0	2712.0	2724.0	2724.0	2800.0	2800.0	2800.0	2811.0	2811.0	2772.0	2772.0	2772.0	2762.0	2762.0	2799.0	2799.0	2799.0	2816.0	2816.0	2767.0	2767.0	2767.0	2825.0	2825.0	2818.0	2818.0	2818.0	2759.0	2759.0	2800.0	2800.0	2800.0	2799.0	2799.0	2743.0	2743.0	2743.0	2808.0	2808.0	2790.0	2790.0	2790.0	2794.0	2794.0	2804.0	2804.0	2804.0	2725.0	2725.0	2719.0	2719.0	2719.0	2771.0	2771.0	2788.0	2788.0	2788.0	2723.0	2723.0	2782.0	2782.0	2782.0	2725.0	2725.0	2748.0	2748.0	2748.0	2779.0	2779.0	2768.0	2768.0	2768.0	2731.0	2731.0	2715.0	2715.0	2715.0	2702.0	2702.0	2759.0	2759.0	2759.0	2745.0	2745.0	2700.0	2700.0	2700.0	2691.0	2691.0	2731.0	2731.0	2731.0	2711.0	2711.0	2677.0	2677.0	2677.0	2657.0	2657.0	2717.0	2717.0	2717.0	2660.0	2660.0	2681.0	2681.0	2681.0	2622.0	2622.0	2610.0	2610.0	2610.0	2617.0	2617.0	2604.0	2604.0	2604.0	2634.0	2634.0	2644.0	2644.0	2644.0	2636.0	2636.0	2588.0	2588.0	2588.0	2560.0	2560.0	2497.0	2497.0	2497.0	2512.0	2512.0	2518.0	2518.0	2518.0	2521.0	2521.0	2432.0	2432.0	2432.0	2415.0	2415.0	2444.0	2444.0	2453.0	2453.0	2453.0	2407.0	2407.0	2344.0	2344.0	2344.0	2382.0	2382.0	2351.0	2351.0	2351.0	2339.0	2339.0	2318.0	2318.0	2318.0	2246.0	2246.0	2226.0	2226.0	2226.0	2282.0	2282.0	2241.0	2241.0	2241.0	2218.0	2218.0	2186.0	2186.0	2186.0	2235.0	2235.0	2182.0	2182.0	2182.0	2136.0	2136.0	2137.0	2137.0	2137.0	2118.0	2118.0	2118.0	2118.0	2118.0	2176.0	2176.0	2182.0	2182.0	2182.0	2087.0	2087.0	2104.0	2104.0	2104.0	2083.0	2083.0	2091.0	2091.0	2091.0	2125.0	2125.0	2109.0	2109.0	2109.0	2119.0	2119.0	2118.0	2118.0	2118.0	2073.0	2073.0	2097.0	2097.0	2097.0	2097.0	2097.0	2106.0	2106.0	2106.0	2087.0	2087.0	2063.0	2063.0	2063.0	2052.0	2052.0	2048.0	2048.0	2048.0	2080.0	2080.0	2019.0	2019.0	2019.0	2038.0	2038.0	2059.0	2059.0	2059.0	2007.0	2007.0	2080.0	2080.0	2080.0	2017.0	2017.0	2009.0	2009.0	2009.0	1999.0	1999.0	2033.0	2033.0	2033.0	1980.0	1980.0	1975.0	1975.0	1975.0	2037.0	2037.0	2005.0	2005.0	2005.0	2033.0	2033.0	1982.0	1982.0	1982.0	1971.0	1971.0	1973.0	1973.0	1973.0	1955.0	1955.0	1942.0	1942.0	1942.0	1931.0	1931.0	1918.0	1918.0	1918.0	1943.0	1943.0	1956.0	1956.0	1956.0	1946.0	1946.0	1910.0	1910.0	1910.0	1953.0	1953.0	1893.0	1893.0	1893.0	1868.0	1868.0	1886.0	1886.0	1886.0	1855.0	1855.0	1873.0	1873.0	1873.0	1886.0	1886.0	1892.0	1892.0	1892.0	1824.0	1824.0	1903.0	1903.0	1903.0	1836.0	1836.0	1829.0	1829.0	1829.0	1832.0	1832.0	1862.0	1862.0	1862.0	1782.0	1782.0	1852.0	1852.0	1852.0	1784.0	1784.0	1772.0	1772.0	1772.0	1839.0	1839.0	1795.0	1795.0	1805.0	1805.0	1805.0	1822.0	1822.0	1757.0	1757.0	1757.0	1812.0	1812.0	1770.0	1770.0	1770.0	1754.0	1754.0	1796.0	1796.0	1796.0	1774.0	1774.0	1711.0	1711.0	1711.0	1777.0	1777.0	1701.0	1701.0	1701.0	1727.0	1727.0	1762.0	1762.0	1762.0	1759.0	1759.0	1677.0	1677.0	1677.0	1684.0	1684.0	1693.0	1693.0	1693.0	1738.0	1738.0	1702.0	1702.0	1702.0	1721.0	1721.0	1702.0	1702.0	1702.0	1719.0	1719.0	1732.0	1732.0	1732.0	1694.0	1694.0	1703.0	1703.0	1703.0	1693.0	1693.0	1650.0	1650.0	1650.0	1710.0	1710.0	1682.0	1682.0	1682.0	1695.0	1695.0	1667.0	1667.0	1667.0	1667.0	1667.0	1651.0	1651.0	1651.0	1732.0	1732.0	1719.0	1719.0	1719.0	1762.0	1762.0	1739.0	1739.0	1739.0	1768.0	1768.0	1732.0	1732.0	1732.0	1770.0	1770.0	1718.0	1718.0	1718.0	1799.0	1799.0	1792.0	1792.0	1792.0	1762.0	1762.0	1735.0	1735.0	1735.0	1739.0	1739.0	1772.0	1772.0	1772.0	1785.0	1785.0	1782.0	1782.0	1782.0	1718.0	1718.0	1730.0	1730.0	1730.0	1764.0	1764.0	1681.0	1681.0	1681.0	1755.0	1755.0	1689.0	1689.0	1689.0	1720.0	1720.0	1661.0	1661.0	1661.0	1666.0	1666.0	1691.0	1691.0	1691.0	1666.0	1666.0	1662.0	1662.0	1662.0	1715.0	1715.0	1726.0	1726.0	1726.0	1686.0	1686.0	1682.0	1682.0	1682.0	1678.0	1678.0	1710.0	1710.0	1710.0	1696.0	1696.0	1635.0	1635.0	1635.0	1628.0	1628.0	1654.0	1654.0	1654.0	1635.0	1635.0	1632.0	1632.0	1632.0	1667.0	1667.0	1689.0	1689.0	1689.0	1682.0	1682.0	1627.0	1627.0	1627.0	1635.0	1635.0	1687.0	1687.0	1687.0	1655.0	1655.0	1690.0	1690.0	1606.0	1606.0	1606.0	1615.0	1615.0	1609.0	1609.0	1609.0	1636.0	1636.0	1612.0	1612.0	1612.0	1604.0	1604.0	1631.0	1631.0	1631.0	1652.0	1652.0	1642.0	1642.0	1642.0	1644.0	1644.0	1623.0	1623.0	1623.0	1601.0	1601.0	1625.0	1625.0	1625.0	1600.0	1600.0	1623.0	1623.0	1623.0	1627.0	1627.0	1588.0	1588.0	1588.0	1594.0	1594.0	1575.0	1575.0	1575.0	1569.0	1569.0	1630.0	1630.0	1630.0	1564.0	1564.0	1572.0	1572.0	1572.0	1580.0	1580.0	1612.0	1612.0	1612.0	1557.0	1557.0	1560.0	1560.0	1560.0	1548.0	1548.0	1600.0	1600.0	1600.0	1539.0	1539.0	1576.0	1576.0	1576.0	1571.0	1571.0	1523.0	1523.0	1523.0	1537.0	1537.0	1536.0	1536.0	1536.0	1595.0	1595.0	1604.0	1604.0	1604.0	1533.0	1533.0	1566.0	1566.0	1566.0	1583.0	1583.0	1572.0	1572.0	1572.0	1558.0	1558.0	1570.0	1570.0	1570.0	1646.0	1646.0	1646.0	1646.0	1646.0	1645.0	1645.0	1639.0	1639.0	1639.0	1681.0	1681.0	1695.0	1695.0	1695.0	1728.0	1728.0	1772.0	1772.0	1772.0	1846.0	1846.0	1894.0	1894.0	1894.0	1955.0	1955.0	1959.0	1959.0	1959.0	2043.0	2043.0	2059.0	2059.0	2059.0	2129.0	2129.0	2098.0	2098.0	2098.0	2204.0	2204.0	2187.0	2187.0	2187.0	2263.0	2263.0	2268.0	2268.0	2268.0	2372.0	2372.0	2349.0	2349.0	2349.0	2404.0	2404.0	2427.0	2427.0	2427.0	2455.0	2455.0	2525.0	2525.0	2525.0	2576.0	2576.0	2556.0	2556.0	2556.0	2596.0	2596.0	2659.0	2659.0	2659.0	2697.0	2697.0	2665.0	2665.0	2665.0	2672.0	2672.0	2748.0	2748.0	2748.0	2722.0	2722.0	2751.0	2751.0	2751.0	2759.0	2759.0	2727.0	2727.0	2741.0	2741.0	2741.0	2738.0	2738.0	2771.0	2771.0	2771.0	2742.0	2742.0	2747.0	2747.0	2747.0	2788.0	2788.0	2750.0	2750.0	2750.0	2831.0	2831.0	2751.0	2751.0	2751.0	2817.0	2817.0	2775.0	2775.0	2775.0	2803.0	2803.0	2813.0	2813.0	2813.0	2784.0	2784.0	2739.0	2739.0	2739.0	2816.0	2816.0	2749.0	2749.0	2749.0	2795.0	2795.0	2795.0	2795.0	2795.0	2805.0	2805.0	2728.0	2728.0	2728.0	2764.0	2764.0	2749.0	2749.0	2749.0	2782.0	2782.0	2784.0	2784.0	2784.0	2771.0	2771.0	2731.0	2731.0	2731.0	2783.0	2783.0	2765.0	2765.0	2765.0	2708.0	2708.0	2733.0	2733.0	2733.0	2700.0	2700.0	2760.0	2760.0	2760.0	2689.0	2689.0	2751.0	2751.0	2751.0	2702.0	2702.0	2681.0	2681.0	2681.0	2687.0	2687.0	2736.0	2736.0	2736.0	2687.0	2687.0	2667.0	2667.0	2667.0	2625.0	2625.0	2706.0	2706.0	2706.0	2622.0	2622.0	2627.0	2627.0	2627.0	2622.0	2622.0	2644.0	2644.0	2644.0	2568.0	2568.0	2610.0	2610.0	2610.0	2541.0	2541.0	2521.0	2521.0	2521.0	2575.0	2575.0	2528.0	2528.0	2528.0	2552.0	2552.0	2515.0	2515.0	2515.0	2465.0	2465.0	2491.0	2491.0	2491.0	2471.0	2471.0	2385.0	2385.0	2385.0	2347.0	2347.0	2391.0	2391.0	2391.0	2331.0	2331.0	2373.0	2373.0	2373.0	2327.0	2327.0	2287.0	2287.0	2287.0	2325.0	2325.0	2248.0	2248.0	2248.0	2221.0	2221.0	2271.0	2271.0	2271.0	2249.0	2249.0	2241.0	2241.0	2241.0	2166.0	2166.0	2219.0	2219.0	2219.0	2138.0	2138.0	2175.0	2175.0	2175.0	2094.0	2094.0	2088.0	2088.0	2088.0	2097.0	2097.0	2088.0	2088.0	2088.0	2071.0	2071.0	2138.0	2138.0	2138.0	2106.0	2106.0	2082.0	2082.0	2081.0	2081.0	2081.0	2088.0	2088.0	2070.0	2070.0	2070.0	2034.0	2034.0	2094.0	2094.0	2094.0	2077.0	2077.0	2054.0	2054.0	2054.0	2075.0	2075.0	2076.0	2076.0	2076.0	2065.0	2065.0	1995.0	1995.0	1995.0	1984.0	1984.0	1987.0	1987.0	1987.0	2048.0	2048.0	1962.0	1962.0	1962.0	2042.0	2042.0	1959.0	1959.0	1959.0	1961.0	1961.0	2012.0	2012.0	2012.0	2015.0	2015.0	1948.0	1948.0	1948.0	1944.0	1944.0	1934.0	1934.0	1934.0	1968.0	1968.0	1909.0	1909.0	1909.0	1927.0	1927.0	1948.0	1948.0	1948.0	1959.0	1959.0	1914.0	1914.0	1914.0	1914.0	1914.0	