2956.0	2956.0	2915.0	2915.0	2903.0	2903.0	2903.0	2895.0	2895.0	2826.0	2826.0	2837.0	2837.0	2837.0	2789.0	2789.0	2775.0	2775.0	2775.0	2824.0	2824.0	2743.0	2743.0	2743.0	2783.0	2783.0	2734.0	2734.0	2734.0	2748.0	2748.0	2663.0	2663.0	2663.0	2706.0	2706.0	2606.0	2606.0	2606.0	2627.0	2627.0	2645.0	2645.0	2645.0	2576.0	2576.0	2522.0	2522.0	2522.0	2551.0	2551.0	2528.0	2528.0	2528.0	2526.0	2526.0	2495.0	2495.0	2495.0	2427.0	2427.0	2486.0	2486.0	2486.0	2459.0	2459.0	2456.0	2456.0	2456.0	2390.0	2390.0	2398.0	2398.0	2398.0	2327.0	2327.0	2367.0	2367.0	2367.0	2315.0	2315.0	2311.0	2311.0	2311.0	2307.0	2307.0	2358.0	2358.0	2358.0	2274.0	2274.0	2327.0	2327.0	2327.0	2262.0	2262.0	2328.0	2328.0	2328.0	2246.0	2246.0	2238.0	2238.0	2238.0	2266.0	2266.0	2221.0	2221.0	2221.0	2286.0	2286.0	2243.0	2243.0	2243.0	2221.0	2221.0	2278.0	2278.0	2278.0	2209.0	2209.0	2186.0	2186.0	2186.0	2195.0	2195.0	2175.0	2175.0	2175.0	2170.0	2170.0	2228.0	2228.0	2228.0	2214.0	2214.0	2169.0	2169.0	2169.0	2142.0	2142.0	2180.0	2180.0	2180.0	2134.0	2134.0	2201.0	2201.0	2201.0	2122.0	2122.0	2114.0	2114.0	2114.0	2105.0	2105.0	2129.0	2129.0	2129.0	2100.0	2100.0	2110.0	2110.0	2110.0	2150.0	2150.0	2103.0	2103.0	2103.0	2067.0	2067.0	2118.0	2118.0	2118.0	2111.0	2111.0	2075.0	2075.0	2075.0	2051.0	2051.0	2100.0	2100.0	2100.0	2037.0	2037.0	2011.0	2011.0	2011.0	2000.0	2000.0	2056.0	2056.0	2056.0	2014.0	2014.0	1990.0	1990.0	1990.0	1969.0	1969.0	2017.0	2017.0	2017.0	2016.0	2016.0	1960.0	1960.0	1960.0	1975.0	1975.0	1919.0	1919.0	1919.0	1971.0	1971.0	1912.0	1912.0	1970.0	1970.0	1970.0	1966.0	1966.0	1886.0	1886.0	1886.0	1942.0	1942.0	1860.0	1860.0	1860.0	1865.0	1865.0	1858.0	1858.0	1858.0	1856.0	1856.0	1867.0	1867.0	1867.0	1879.0	1879.0	1834.0	1834.0	1834.0	1831.0	1831.0	1827.0	1827.0	1827.0	1850.0	1850.0	1879.0	1879.0	1879.0	1792.0	1792.0	1850.0	1850.0	1850.0	1783.0	1783.0	1812.0	1812.0	1812.0	1775.0	1775.0	1815.0	1815.0	1815.0	1784.0	1784.0	1775.0	1775.0	1775.0	1783.0	1783.0	1812.0	1812.0	1812.0	1727.0	1727.0	1778.0	1778.0	1778.0	1781.0	1781.0	1730.0	1730.0	1730.0	1736.0	1736.0	1706.0	1706.0	1706.0	1729.0	1729.0	1733.0	1733.0	1733.0	1718.0	1718.0	1679.0	1679.0	1679.0	1682.0	1682.0	1705.0	1705.0	1705.0	1726.0	1726.0	1681.0	1681.0	1681.0	1695.0	1695.0	1713.0	1713.0	1713.0	1688.0	1688.0	1723.0	1723.0	1723.0	1662.0	1662.0	1634.0	1634.0	1634.0	1713.0	1713.0	1631.0	1631.0	1631.0	1634.0	1634.0	1691.0	1691.0	1691.0	1625.0	1625.0	1702.0	1702.0	1702.0	1618.0	1618.0	1618.0	1618.0	1618.0	1675.0	1675.0	1610.0	1610.0	1610.0	1686.0	1686.0	1606.0	1606.0	1606.0	1619.0	1619.0	1609.0	1609.0	1609.0	1645.0	1645.0	1586.0	1586.0	1586.0	1611.0	1611.0	1623.0	1623.0	1623.0	1593.0	1593.0	1585.0	1585.0	1585.0	1645.0	1645.0	1588.0	1588.0	1588.0	1628.0	1628.0	1623.0	1623.0	1623.0	1589.0	1589.0	1598.0	1598.0	1598.0	1566.0	1566.0	1575.0	1575.0	1575.0	1627.0	1627.0	1642.0	1642.0	1642.0	1571.0	1571.0	1574.0	1574.0	1574.0	1566.0	1566.0	1557.0	1557.0	1557.0	1566.0	1566.0	1618.0	1618.0	1620.0	1620.0	1620.0	1571.0	1571.0	1604.0	1604.0	1604.0	1612.0	1612.0	1555.0	1555.0	1555.0	1572.0	1572.0	1575.0	1575.0	1575.0	1557.0	1557.0	1617.0	1617.0	1617.0	1589.0	1589.0	1549.0	1549.0	1549.0	1566.0	1566.0	1542.0	1542.0	1542.0	1607.0	1607.0	1584.0	1584.0	1584.0	1555.0	1555.0	1533.0	1533.0	1533.0	1598.0	1598.0	1536.0	1536.0	1536.0	1528.0	1528.0	1536.0	1536.0	1536.0	1509.0	1509.0	1587.0	1587.0	1587.0	1515.0	1515.0	1584.0	1584.0	1584.0	1509.0	1509.0	1579.0	1579.0	1579.0	1550.0	1550.0	1530.0	1530.0	1530.0	1503.0	1503.0	1566.0	1566.0	1566.0	1566.0	1566.0	1504.0	1504.0	1504.0	1515.0	1515.0	1554.0	1554.0	1554.0	1508.0	1508.0	1525.0	1525.0	1525.0	1560.0	1560.0	1493.0	1493.0	1493.0	1563.0	1563.0	1505.0	1505.0	1505.0	1565.0	1565.0	1526.0	1526.0	1526.0	1567.0	1567.0	1506.0	1506.0	1506.0	1505.0	1505.0	1566.0	1566.0	1566.0	1570.0	1570.0	1563.0	1563.0	1563.0	1590.0	1590.0	1559.0	1559.0	1559.0	1637.0	1637.0	1651.0	1651.0	1651.0	1621.0	1621.0	1713.0	1713.0	1713.0	1678.0	1678.0	1747.0	1747.0	1747.0	1768.0	1768.0	1779.0	1779.0	1779.0	1824.0	1824.0	1869.0	1869.0	1869.0	1922.0	1922.0	1943.0	1943.0	1943.0	1930.0	1930.0	1963.0	1963.0	1963.0	1996.0	1996.0	2051.0	2051.0	2051.0	2085.0	2085.0	2123.0	2123.0	2123.0	2209.0	2209.0	2233.0	2233.0	2233.0	2235.0	2235.0	2277.0	2277.0	2277.0	2359.0	2359.0	2363.0	2363.0	2363.0	2451.0	2451.0	2479.0	2479.0	2479.0	2447.0	2447.0	2469.0	2469.0	2469.0	2547.0	2547.0	2504.0	2504.0	2523.0	2523.0	2523.0	2605.0	2605.0	2602.0	2602.0	2602.0	2591.0	2591.0	2622.0	2622.0	2622.0	2616.0	2616.0	2649.0	2649.0	2649.0	2627.0	2627.0	2712.0	2712.0	2712.0	2730.0	2730.0	2705.0	2705.0	2705.0	2733.0	2733.0	2726.0	2726.0	2726.0	2690.0	2690.0	2682.0	2682.0	2682.0	2720.0	2720.0	2694.0	2694.0	2694.0	2738.0	2738.0	2738.0	2738.0	2738.0	2687.0	2687.0	2673.0	2673.0	2673.0	2670.0	2670.0	2716.0	2716.0	2716.0	2666.0	2666.0	2740.0	2740.0	2740.0	2666.0	2666.0	2680.0	2680.0	2680.0	2735.0	2735.0	2659.0	2659.0	2659.0	2663.0	2663.0	2653.0	2653.0	2653.0	2662.0	2662.0	2733.0	2733.0	2733.0	2719.0	2719.0	2653.0	2653.0	2653.0	2704.0	2704.0	2652.0	2652.0	2652.0	2656.0	2656.0	2674.0	2674.0	2674.0	2664.0	2664.0	2639.0	2639.0	2639.0	2714.0	2714.0	2630.0	2630.0	2630.0	2637.0	2637.0	2673.0	2673.0	2673.0	2657.0	2657.0	2612.0	2612.0	2612.0	2683.0	2683.0	2628.0	2628.0	2628.0	2662.0	2662.0	2590.0	2590.0	2590.0	2645.0	2645.0	2639.0	2639.0	2639.0	2571.0	2571.0	2608.0	2608.0	2608.0	2596.0	2596.0	2536.0	2536.0	2536.0	2506.0	2506.0	2506.0	2506.0	2506.0	2507.0	2507.0	2531.0	2531.0	2531.0	2483.0	2483.0	2496.0	2496.0	2496.0	2406.0	2406.0	2466.0	2466.0	2466.0	2369.0	2369.0	2353.0	2353.0	2353.0	2330.0	2330.0	2391.0	2391.0	2391.0	2300.0	2300.0	2314.0	2314.0	2314.0	2327.0	2327.0	2301.0	2301.0	2301.0	2221.0	2221.0	2200.0	2200.0	2200.0	2225.0	2225.0	2216.0	2216.0	2216.0	2152.0	2152.0	2130.0	2130.0	2130.0	2188.0	2188.0	2174.0	2174.0	2174.0	2120.0	2120.0	2158.0	2158.0	2145.0	2145.0	2145.0	2097.0	2097.0	2116.0	2116.0	2116.0	2051.0	2051.0	2110.0	2110.0	2110.0	2090.0	2090.0	2063.0	2063.0	2063.0	2076.0	2076.0	2035.0	2035.0	2035.0	2058.0	2058.0	2002.0	2002.0	2002.0	2010.0	2010.0	2071.0	2071.0	2071.0	1990.0	1990.0	1996.0	1996.0	1996.0	1988.0	1988.0	2004.0	2004.0	2004.0	2036.0	2036.0	2047.0	2047.0	2047.0	2042.0	2042.0	2035.0	2035.0	2035.0	2038.0	2038.0	1960.0	1960.0	1960.0	1956.0	1956.0	2022.0	2022.0	2022.0	1975.0	1975.0	2010.0	2010.0	2010.0	1970.0	1970.0	1941.0	1941.0	1941.0	1926.0	1926.0	1948.0	1948.0	1948.0	1912.0	1912.0	1930.0	1930.0	1930.0	1969.0	1969.0	1894.0	1894.0	1894.0	1932.0	1932.0	1894.0	1894.0	1894.0	1945.0	1945.0	1898.0	1898.0	1898.0	1865.0	1865.0	1866.0	1866.0	1866.0	1862.0	1862.0	1856.0	1856.0	1856.0	1858.0	1858.0	1887.0	1887.0	1887.0	1822.0	1822.0	1878.0	1878.0	1878.0	1886.0	1886.0	1866.0	1866.0	1866.0	1874.0	1874.0	1874.0	1874.0	1874.0	1784.0	1784.0	1774.0	1774.0	1774.0	1841.0	1841.0	1759.0	1759.0	1759.0	1824.0	1824.0	1799.0	1799.0	1799.0	1735.0	1735.0	1766.0	1766.0	1766.0	1796.0	1796.0	1723.0	1723.0	1723.0	1710.0	1710.0	1760.0	1760.0	1760.0	1724.0	1724.0	1764.0	1764.0	1764.0	1724.0	1724.0	1695.0	1695.0	1695.0	1669.0	1669.0	1665.0	1665.0	1665.0	1735.0	1735.0	1658.0	1658.0	1658.0	1677.0	1677.0	1699.0	1699.0	1699.0	1716.0	1716.0	1697.0	1697.0	1697.0	1624.0	1624.0	1671.0	1671.0	1671.0	1658.0	1658.0	1617.0	1617.0	1617.0	1635.0	1635.0	1617.0	1617.0	1604.0	1604.0	1604.0	1629.0	1629.0	1602.0	1602.0	1602.0	1667.0	1667.0	1595.0	1595.0	1595.0	1607.0	1607.0	1579.0	1579.0	1579.0	1601.0	1601.0	1609.0	1609.0	1609.0	1623.0	1623.0	1564.0	1564.0	1564.0	1621.0	1621.0	1583.0	1583.0	1583.0	1586.0	1586.0	1620.0	1620.0	1620.0	1598.0	1598.0	1556.0	1556.0	1556.0	1570.0	1570.0	1537.0	1537.0	1537.0	1540.0	1540.0	1551.0	1551.0	1551.0	1537.0	1537.0	1551.0	1551.0	1551.0	1535.0	1535.0	1574.0	1574.0	1574.0	1534.0	1534.0	1563.0	1563.0	1563.0	1539.0	1539.0	1511.0	1511.0	1511.0	1522.0	1522.0	1536.0	1536.0	1536.0	1531.0	1531.0	1597.0	1597.0	1597.0	1514.0	1514.0	1585.0	1585.0	1585.0	1546.0	1546.0	1581.0	1581.0	1581.0	1515.0	1515.0	1550.0	1550.0	1550.0	1538.0	1538.0	1550.0	1550.0	1550.0	1554.0	1554.0	1512.0	1512.0	1512.0	1582.0	1582.0	1559.0	1559.0	1559.0	1548.0	1548.0	1515.0	1515.0	1515.0	1511.0	1511.0	1569.0	1569.0	1569.0	1561.0	1561.0	1578.0	1578.0	1578.0	1570.0	1570.0	1494.0	1494.0	1494.0	1557.0	1557.0	1564.0	1564.0	1564.0	1575.0	1575.0	1564.0	1564.0	1564.0	1516.0	1516.0	1487.0	1487.0	1487.0	1513.0	1513.0	1487.0	1487.0	1487.0	1527.0	1527.0	1495.0	1495.0	1495.0	1498.0	1498.0	1528.0	1528.0	1528.0	1546.0	1546.0	1506.0	1506.0	1506.0	1476.0	1476.0	1562.0	1562.0	1562.0	1483.0	1483.0	1483.0	1483.0	1483.0	1544.0	1544.0	1493.0	1493.0	1493.0	1475.0	1475.0	1525.0	1525.0	1525.0	1532.0	1532.0	1500.0	1500.0	1500.0	1472.0	1472.0	1478.0	1478.0	1478.0	1466.0	1466.0	1508.0	1508.0	1508.0	1510.0	1510.0	1496.0	1496.0	1534.0	1534.0	1534.0	1484.0	1484.0	1455.0	1455.0	1455.0	1476.0	1476.0	1512.0	1512.0	1512.0	1489.0	1489.0	1462.0	1462.0	1462.0	1528.0	1528.0	1522.0	1522.0	1522.0	1519.0	1519.0	1496.0	1496.0	1496.0	1448.0	1448.0	1449.0	1449.0	1449.0	1446.0	1446.0	1452.0	1452.0	1452.0	1468.0	1468.0	1474.0	1474.0	1474.0	1443.0	1443.0	1462.0	1462.0	1462.0	1514.0	1514.0	1460.0	1460.0	1460.0	1531.0	1531.0	1450.0	1450.0	1450.0	1514.0	1514.0	1522.0	1522.0	1522.0	1516.0	1516.0	1512.0	1512.0	1512.0	1473.0	1473.0	1533.0	1533.0	1533.0	1575.0	1575.0	1583.0	1583.0	1583.0	1571.0	1571.0	1621.0	1621.0	1621.0	1623.0	1623.0	1624.0	1624.0	1624.0	1696.0	1696.0	1722.0	1722.0	1722.0	1732.0	1732.0	1778.0	1778.0	1778.0	1755.0	1755.0	1815.0	1815.0	1815.0	1879.0	1879.0	1904.0	1904.0	1904.0	1943.0	1943.0	2015.0	2015.0	2015.0	1988.0	1988.0	2028.0	2028.0	2028.0	2097.0	2097.0	2160.0	2160.0	2160.0	2171.0	2171.0	2199.0	2199.0	2199.0	2307.0	2307.0	2316.0	2316.0	2316.0	2343.0	2343.0	2336.0	2336.0	2336.0	2407.0	2407.0	2421.0	2421.0	2421.0	2400.0	2400.0	2440.0	2440.0	2440.0	2486.0	2486.0	2529.0	2529.0	2529.0	2499.0	2499.0	2578.0	2578.0	2578.0	2611.0	2611.0	2595.0	2595.0	2595.0	2625.0	2625.0	2605.0	2605.0	2605.0	2653.0	2653.0	2657.0	2657.0	2657.0	2652.0	2652.0	2670.0	2670.0	2670.0	2671.0	2671.0	2678.0	2678.0	2678.0	2686.0	2686.0	2693.0	2693.0	2693.0	2696.0	2696.0	2665.0	2665.0	2665.0	2678.0	2678.0	2650.0	2650.0	2650.0	2678.0	2678.0	2688.0	2688.0	2689.0	2689.0	2689.0	2628.0	2628.0	2702.0	2702.0	2702.0	2658.0	2658.0	2647.0	2647.0	2647.0	2652.0	2652.0	2628.0	2628.0	2628.0	2633.0	2633.0	2690.0	2690.0	2690.0	2695.0	2695.0	2626.0	2626.0	2626.0	2652.0	2652.0	2691.0	2691.0	2691.0	2700.0	2700.0	2633.0	2633.0	2633.0	2666.0	2666.0	2610.0	2610.0	2610.0	2621.0	2621.0	2690.0	2690.0	2690.0	2677.0	2677.0	2684.0	2684.0	2684.0	2614.0	2614.0	2660.0	2660.0	2660.0	2661.0	2661.0	2640.0	2640.0	2640.0	2602.0	2602.0	2583.0	2583.0	2583.0	2590.0	2590.0	2584.0	2584.0	2584.0	2627.0	2627.0	2587.0	2587.0	2587.0	2607.0	2607.0	2568.0	2568.0	2568.0	2554.0	2554.0	2581.0	2581.0	2581.0	2569.0	2569.0	2552.0	2552.0	2552.0	2470.0	2470.0	2454.0	2454.0	2454.0	2515.0	2515.0	2424.0	2424.0	2424.0	2477.0	2477.0	2459.0	2459.0	2459.0	2404.0	2404.0	2366.0	2366.0	2366.0	2374.0	2374.0	2320.0	2320.0	2320.0	2309.0	2309.0	2275.0	2275.0	2275.0	2285.0	2285.0	2258.0	2258.0	2258.0	2240.0	2240.0	2278.0	2278.0	2278.0	2206.0	2206.0	2243.0	2243.0	2243.0	2198.0	2198.0	2231.0	2231.0	2231.0	2146.0	2146.0	2200.0	2200.0	2200.0	2179.0	2179.0	2135.0	2135.0	2135.0	2147.0	2147.0	2157.0	2157.0	2157.0	2150.0	2150.0	2080.0	2080.0	2080.0	2108.0	2108.0	2132.0	2132.0	2132.0	2048.0	2048.0	2116.0	2116.0	2116.0	2045.0	2045.0	2085.0	2085.0	2085.0	2093.0	2093.0	2033.0	2033.0	2033.0	2071.0	2071.0	2047.0	2047.0	2047.0	2028.0	2028.0	2092.0	2092.0	2092.0	2015.0	2015.0	2005.0	2005.0	2005.0	2086.0	2086.0	2061.0	2061.0	2078.0	2078.0	2078.0	1998.0	1998.0	1996.0	1996.0	1996.0	2038.0	2038.0	1991.0	1991.0	1991.0	1995.0	1995.0	2014.0	2014.0	2014.0	2049.0	2049.0	2016.0	2016.0	2016.0	1980.0	1980.0	1963.0	1963.0	1963.0	1977.0	1977.0	1960.0	1960.0	1960.0	2002.0	2002.0	1952.0	1952.0	1952.0	1936.0	1936.0	1935.0	1935.0	1935.0	2004.0	2004.0	2004.0	2004.0	2004.0	1915.0	1915.0	1967.0	1967.0	1967.0	1920.0	1920.0	1949.0	1949.0	1949.0	1967.0	1967.0	1891.0	1891.0	1891.0	1953.0	1953.0	1903.0	1903.0	1903.0	1868.0	1868.0	1869.0	1869.0	1869.0	1850.0	1850.0	1915.0	1915.0	1915.0	1833.0	1833.0	1872.0	1872.0	1872.0	1889.0	1889.0	1829.0	1829.0	1829.0	1852.0	1852.0	1885.0	1885.0	1885.0	1863.0	1863.0	1835.0	1835.0	1835.0	1861.0	1861.0	1820.0	1820.0	1820.0	1773.0	1773.0	1762.0	1762.0	1762.0	1799.0	1799.0	1815.0	1815.0	1815.0	1763.0	1763.0	1750.0	1750.0	1750.0	1806.0	1806.0	1772.0	1772.0	1772.0	1780.0	1780.0	1804.0	1804.0	1804.0	1748.0	1748.0	1778.0	1778.0	1778.0	1777.0	1777.0	1759.0	1759.0	1759.0	1722.0	1722.0	1759.0	1759.0	1759.0	1693.0	1693.0	1713.0	1713.0	1713.0	1714.0	1714.0	1750.0	1750.0	1750.0	1682.0	1682.0	1731.0	1731.0	1731.0	1691.0	1691.0	1663.0	1663.0	1663.0	1742.0	1742.0	1734.0	1734.0	1734.0	1685.0	1685.0	1678.0	1678.0	1678.0	1651.0	1651.0	1669.0	1669.0	1669.0	1665.0	1665.0	1701.0	1701.0	1701.0	1652.0	1652.0	1664.0	1664.0	1664.0	1671.0	1671.0	1646.0	1646.0	1646.0	1667.0	1667.0	1641.0	1641.0	1641.0	1640.0	1640.0	1648.0	1648.0	1648.0	1672.0	1672.0	1703.0	1703.0	1651.0	1651.0	1651.0	1700.0	1700.0	1628.0	1628.0	1628.0	1703.0	1703.0	1706.0	1706.0	1706.0	1668.0	1668.0	1625.0	1625.0	1625.0	1623.0	1623.0	1695.0	1695.0	1695.0	1626.0	1626.0	1659.0	1659.0	1659.0	1665.0	1665.0	1627.0	1627.0	1627.0	1706.0	1706.0	1628.0	1628.0	1628.0	1656.0	1656.0	1623.0	1623.0	1623.0	1639.0	1639.0	1703.0	1703.0	1703.0	1679.0	1679.0	1680.0	1680.0	1680.0	1648.0	1648.0	1705.0	1705.0	1705.0	1695.0	1695.0	1638.0	1638.0	1638.0	1684.0	1684.0	1688.0	1688.0	1688.0	1652.0	1652.0	1723.0	1723.0	1723.0	1682.0	1682.0	1707.0	1707.0	1707.0	1674.0	1674.0	1656.0	1656.0	1656.0	1716.0	1716.0	1706.0	1706.0	1706.0	1709.0	1709.0	1649.0	1649.0	1649.0	1719.0	1719.0	1687.0	1687.0	1687.0	1693.0	1693.0	1722.0	1722.0	1722.0	1657.0	1657.0	1656.0	1656.0	1656.0	1695.0	1695.0	1725.0	1725.0	1725.0	1693.0	1693.0	1715.0	1715.0	1715.0	1651.0	1651.0	1723.0	1723.0	1723.0	1724.0	1724.0	1691.0	1691.0	1691.0	1658.0	1658.0	1693.0	1693.0	1693.0	1672.0	1672.0	1635.0	1635.0	1635.0	1708.0	1708.0	1688.0	1688.0	1688.0	1666.0	1666.0	1700.0	1700.0	1700.0	1701.0	1701.0	1697.0	1697.0	1697.0	1681.0	1681.0	1697.0	1697.0	1697.0	1674.0	1674.0	1696.0	1696.0	1696.0	1627.0	1627.0	1645.0	1645.0	1645.0	1706.0	1706.0	1703.0	1703.0	1703.0	1629.0	1629.0	1649.0	1649.0	1649.0	1683.0	1683.0	1671.0	1671.0	1671.0	1660.0	1660.0	1648.0	1648.0	1648.0	1633.0	1633.0	1615.0	1615.0	1615.0	1617.0	1617.0	1674.0	1674.0	1674.0	1679.0	1679.0	1616.0	1616.0	1678.0	1678.0	1678.0	1641.0	1641.0	1624.0	1624.0	1624.0	1684.0	1684.0	1634.0	1634.0	1634.0	1682.0	1682.0	1700.0	1700.0	1700.0	1696.0	1696.0	1737.0	1737.0	1737.0	1669.0	1669.0	1747.0	1747.0	1747.0	1748.0	1748.0	1791.0	1791.0	1791.0	1802.0	1802.0	1768.0	1768.0	1768.0	1804.0	1804.0	1860.0	1860.0	1860.0	1902.0	1902.0	1969.0	1969.0	1969.0	1930.0	