1991.0	1987.0	1987.0	1987.0	1989.0	1989.0	2002.0	2002.0	2002.0	1980.0	1980.0	2021.0	2021.0	2021.0	2004.0	2004.0	2002.0	2002.0	2002.0	1950.0	1950.0	1956.0	1956.0	1956.0	1964.0	1964.0	1976.0	1976.0	1976.0	1961.0	1961.0	1991.0	1991.0	1991.0	1985.0	1985.0	1983.0	1983.0	1983.0	1974.0	1974.0	1936.0	1936.0	1936.0	1972.0	1972.0	1932.0	1932.0	1932.0	1918.0	1918.0	1952.0	1952.0	1952.0	1914.0	1914.0	1951.0	1951.0	1951.0	1898.0	1898.0	1926.0	1926.0	1926.0	1898.0	1898.0	1926.0	1926.0	1920.0	1920.0	1920.0	1917.0	1917.0	1880.0	1880.0	1880.0	1909.0	1909.0	1918.0	1918.0	1918.0	1882.0	1882.0	1917.0	1917.0	1917.0	1876.0	1876.0	1907.0	1907.0	1907.0	1887.0	1887.0	1869.0	1869.0	1869.0	1866.0	1866.0	1849.0	1849.0	1849.0	1855.0	1855.0	1864.0	1864.0	1864.0	1840.0	1840.0	1853.0	1853.0	1853.0	1891.0	1891.0	1868.0	1868.0	1868.0	1829.0	1829.0	1855.0	1855.0	1855.0	1838.0	1838.0	1865.0	1865.0	1865.0	1864.0	1864.0	1871.0	1871.0	1871.0	1854.0	1854.0	1861.0	1861.0	1861.0	1814.0	1814.0	1829.0	1829.0	1829.0	1828.0	1828.0	1835.0	1835.0	1835.0	1801.0	1801.0	1859.0	1859.0	1859.0	1849.0	1849.0	1848.0	1848.0	1848.0	1808.0	1808.0	1839.0	1839.0	1839.0	1807.0	1807.0	1841.0	1841.0	1841.0	1827.0	1827.0	1845.0	1845.0	1845.0	1802.0	1802.0	1821.0	1821.0	1821.0	1790.0	1790.0	1833.0	1833.0	1833.0	1826.0	1826.0	1832.0	1832.0	1832.0	1798.0	1798.0	1799.0	1799.0	1799.0	1794.0	1794.0	1785.0	1785.0	1785.0	1825.0	1825.0	1834.0	1834.0	1834.0	1806.0	1806.0	1786.0	1786.0	1786.0	1815.0	1815.0	1770.0	1770.0	1770.0	1794.0	1794.0	1819.0	1819.0	1819.0	1816.0	1816.0	1807.0	1807.0	1807.0	1830.0	1830.0	1809.0	1809.0	1809.0	1808.0	1808.0	1814.0	1814.0	1814.0	1776.0	1776.0	1775.0	1775.0	1775.0	1809.0	1809.0	1783.0	1783.0	1783.0	1794.0	1794.0	1793.0	1793.0	1793.0	1817.0	1817.0	1779.0	1779.0	1779.0	1792.0	1792.0	1765.0	1765.0	1765.0	1770.0	1770.0	1814.0	1814.0	1814.0	1805.0	1805.0	1776.0	1776.0	1776.0	1798.0	1798.0	1823.0	1823.0	1763.0	1763.0	1763.0	1771.0	1771.0	1787.0	1787.0	1787.0	1771.0	1771.0	1773.0	1773.0	1773.0	1815.0	1815.0	1810.0	1810.0	1810.0	1791.0	1791.0	1818.0	1818.0	1818.0	1759.0	1759.0	1761.0	1761.0	1761.0	1772.0	1772.0	1815.0	1815.0	1815.0	1764.0	1764.0	1764.0	1764.0	1764.0	1777.0	1777.0	1814.0	1814.0	1814.0	1810.0	1810.0	1754.0	1754.0	1754.0	1760.0	1760.0	1771.0	1771.0	1771.0	1793.0	1793.0	1764.0	1764.0	1764.0	1769.0	1769.0	1804.0	1804.0	1804.0	1775.0	1775.0	1755.0	1755.0	1755.0	1789.0	1789.0	1744.0	1744.0	1744.0	1755.0	1755.0	1780.0	1780.0	1780.0	1741.0	1741.0	1745.0	1745.0	1745.0	1794.0	1794.0	1759.0	1759.0	1759.0	1783.0	1783.0	1800.0	1800.0	1800.0	1751.0	1751.0	1763.0	1763.0	1763.0	1796.0	1796.0	1769.0	1769.0	1769.0	1754.0	1754.0	1796.0	1796.0	1796.0	1751.0	1751.0	1765.0	1765.0	1765.0	1765.0	1765.0	1813.0	1813.0	1813.0	1823.0	1823.0	1807.0	1807.0	1807.0	1803.0	1803.0	1804.0	1804.0	1804.0	1817.0	1817.0	1867.0	1867.0	1867.0	1860.0	1860.0	1896.0	1896.0	1896.0	1915.0	1915.0	1884.0	1884.0	1884.0	1942.0	1942.0	1934.0	1934.0	1934.0	1937.0	1937.0	1962.0	1962.0	1962.0	2016.0	2016.0	2035.0	2035.0	2035.0	2041.0	2041.0	2051.0	2051.0	2051.0	2051.0	2051.0	2087.0	2087.0	2087.0	2133.0	2133.0	2117.0	2117.0	2117.0	2130.0	2130.0	2191.0	2191.0	2191.0	2198.0	2198.0	2205.0	2205.0	2205.0	2236.0	2236.0	2204.0	2204.0	2204.0	2227.0	2227.0	2282.0	2282.0	2282.0	2257.0	2257.0	2282.0	2282.0	2282.0	2266.0	2266.0	2301.0	2301.0	2299.0	2299.0	2299.0	2327.0	2327.0	2304.0	2304.0	2304.0	2312.0	2312.0	2335.0	2335.0	2335.0	2368.0	2368.0	2341.0	2341.0	2341.0	2368.0	2368.0	2370.0	2370.0	2370.0	2369.0	2369.0	2333.0	2333.0	2333.0	2363.0	2363.0	2382.0	2382.0	2382.0	2341.0	2341.0	2355.0	2355.0	2355.0	2354.0	2354.0	2364.0	2364.0	2364.0	2342.0	2342.0	2342.0	2342.0	2342.0	2366.0	2366.0	2362.0	2362.0	2362.0	2373.0	2373.0	2399.0	2399.0	2399.0	2380.0	2380.0	2374.0	2374.0	2374.0	2348.0	2348.0	2367.0	2367.0	2367.0	2383.0	2383.0	2374.0	2374.0	2374.0	2358.0	2358.0	2342.0	2342.0	2342.0	2347.0	2347.0	2356.0	2356.0	2356.0	2354.0	2354.0	2344.0	2344.0	2344.0	2376.0	2376.0	2370.0	2370.0	2370.0	2396.0	2396.0	2390.0	2390.0	2390.0	2367.0	2367.0	2373.0	2373.0	2373.0	2371.0	2371.0	2359.0	2359.0	2359.0	2343.0	2343.0	2410.0	2410.0	2410.0	2397.0	2397.0	2391.0	2391.0	2391.0	2359.0	2359.0	2387.0	2387.0	2387.0	2388.0	2388.0	2375.0	2375.0	2375.0	2359.0	2359.0	2341.0	2341.0	2341.0	2316.0	2316.0	2338.0	2338.0	2338.0	2344.0	2344.0	2338.0	2338.0	2338.0	2292.0	2292.0	2329.0	2329.0	2329.0	2315.0	2315.0	2314.0	2314.0	2314.0	2283.0	2283.0	2259.0	2259.0	2259.0	2299.0	2299.0	2246.0	2246.0	2246.0	2264.0	2264.0	2216.0	2216.0	2216.0	2219.0	2219.0	2245.0	2245.0	2245.0	2247.0	2247.0	2190.0	2190.0	2190.0	2173.0	2173.0	2215.0	2215.0	2215.0	2169.0	2169.0	2179.0	2179.0	2179.0	2193.0	2193.0	2140.0	2140.0	2140.0	2124.0	2124.0	2162.0	2162.0	2162.0	2115.0	2115.0	2126.0	2126.0	2126.0	2124.0	2124.0	2126.0	2126.0	2112.0	2112.0	2112.0	2085.0	2085.0	2079.0	2079.0	2079.0	2081.0	2081.0	2059.0	2059.0	2059.0	2079.0	2079.0	2103.0	2103.0	2103.0	2102.0	2102.0	2097.0	2097.0	2097.0	2047.0	2047.0	2074.0	2074.0	2074.0	2094.0	2094.0	2072.0	2072.0	2072.0	2042.0	2042.0	2071.0	2071.0	2071.0	2082.0	2082.0	2036.0	2036.0	2036.0	2063.0	2063.0	2047.0	2047.0	2047.0	2067.0	2067.0	2032.0	2032.0	2032.0	2069.0	2069.0	2019.0	2019.0	2019.0	2037.0	2037.0	2015.0	2015.0	2015.0	1997.0	1997.0	2037.0	2037.0	2037.0	2021.0	2021.0	2041.0	2041.0	2041.0	1999.0	1999.0	2031.0	2031.0	2031.0	1991.0	1991.0	2037.0	2037.0	2037.0	1992.0	1992.0	2030.0	2030.0	2030.0	2024.0	2024.0	1995.0	1995.0	1995.0	2011.0	2011.0	1982.0	1982.0	1982.0	1982.0	1982.0	1973.0	1973.0	1973.0	1962.0	1962.0	1954.0	1954.0	1954.0	2004.0	2004.0	1958.0	1958.0	1958.0	1974.0	1974.0	1946.0	1946.0	1946.0	1947.0	1947.0	1928.0	1928.0	1928.0	1938.0	1938.0	1923.0	1923.0	1923.0	1943.0	1943.0	1961.0	1961.0	1961.0	1975.0	1975.0	1958.0	1958.0	1958.0	1967.0	1967.0	1907.0	1907.0	1907.0	1918.0	1918.0	1924.0	1924.0	1924.0	1914.0	1914.0	1904.0	1904.0	1904.0	1924.0	1924.0	1933.0	1933.0	1933.0	1943.0	1943.0	1901.0	1901.0	1901.0	1878.0	1878.0	1927.0	1927.0	1927.0	1873.0	1873.0	1877.0	1877.0	1877.0	1904.0	1904.0	1891.0	1891.0	1891.0	1878.0	1878.0	1857.0	1857.0	1857.0	1874.0	1874.0	1876.0	1876.0	1876.0	1859.0	1859.0	1875.0	1875.0	1875.0	1886.0	1886.0	1884.0	1884.0	1884.0	1836.0	1836.0	1835.0	1835.0	1879.0	1879.0	1879.0	1863.0	1863.0	1849.0	1849.0	1849.0	1863.0	1863.0	1845.0	1845.0	1845.0	1860.0	1860.0	1827.0	1827.0	1827.0	1854.0	1854.0	1829.0	1829.0	1829.0	1864.0	1864.0	1832.0	1832.0	1832.0	1843.0	1843.0	1815.0	1815.0	1815.0	1839.0	1839.0	1804.0	1804.0	1804.0	1848.0	1848.0	1846.0	1846.0	1846.0	1854.0	1854.0	1851.0	1851.0	1851.0	1792.0	1792.0	1817.0	1817.0	1817.0	1850.0	1850.0	1830.0	1830.0	1830.0	1844.0	1844.0	1792.0	1792.0	1792.0	1813.0	1813.0	1788.0	1788.0	1788.0	1823.0	1823.0	1798.0	1798.0	1798.0	1778.0	1778.0	1790.0	1790.0	1790.0	1830.0	1830.0	1797.0	1797.0	1797.0	1812.0	1812.0	1780.0	1780.0	1780.0	1782.0	1782.0	1798.0	1798.0	1798.0	1788.0	1788.0	1791.0	1791.0	1791.0	1799.0	1799.0	1776.0	1776.0	1776.0	1806.0	1806.0	1778.0	1778.0	1778.0	1769.0	1769.0	1790.0	1790.0	1790.0	1791.0	1791.0	1784.0	1784.0	1784.0	1778.0	1778.0	1831.0	1831.0	1831.0	1772.0	1772.0	1781.0	1781.0	1781.0	1806.0	1806.0	1797.0	1797.0	1797.0	1796.0	1796.0	1766.0	1766.0	1766.0	1805.0	1805.0	1819.0	1819.0	1819.0	1784.0	1784.0	1808.0	1808.0	1808.0	1813.0	1813.0	1769.0	1769.0	1769.0	1802.0	1802.0	1792.0	1792.0	1792.0	1800.0	1800.0	1772.0	1772.0	1772.0	1811.0	1811.0	1773.0	1773.0	1773.0	1793.0	1793.0	1753.0	1753.0	1753.0	1784.0	1784.0	1787.0	1787.0	1787.0	1795.0	1795.0	1799.0	1799.0	1799.0	1807.0	1807.0	1765.0	1765.0	1765.0	1773.0	1773.0	1801.0	1801.0	1801.0	1755.0	1755.0	1777.0	1777.0	1777.0	1760.0	1760.0	1791.0	1791.0	1791.0	1761.0	1761.0	1780.0	1780.0	1789.0	1789.0	1789.0	1757.0	1757.0	1756.0	1756.0	1756.0	1807.0	1807.0	1753.0	1753.0	1753.0	1770.0	1770.0	1796.0	1796.0	1796.0	1787.0	1787.0	1762.0	1762.0	1762.0	1777.0	1777.0	1792.0	1792.0	1792.0	1765.0	1765.0	1755.0	1755.0	1755.0	1747.0	1747.0	1785.0	1785.0	1785.0	1742.0	1742.0	1742.0	1742.0	1742.0	1811.0	1811.0	1775.0	1775.0	1775.0	1805.0	1805.0	1802.0	1802.0	1802.0	1783.0	1783.0	1779.0	1779.0	1779.0	1766.0	1766.0	1806.0	1806.0	1806.0	1800.0	1800.0	1787.0	1787.0	1787.0	1817.0	1817.0	1803.0	1803.0	1803.0	1815.0	1815.0	1847.0	1847.0	1847.0	1838.0	1838.0	1886.0	1886.0	1886.0	1871.0	1871.0	1928.0	1928.0	1928.0	1940.0	1940.0	1918.0	1918.0	1918.0	1943.0	1943.0	1978.0	1978.0	1978.0	1995.0	1995.0	2010.0	2010.0	2010.0	2050.0	2050.0	2055.0	2055.0	2055.0	2088.0	2088.0	2068.0	2068.0	2068.0	2106.0	2106.0	2151.0	2151.0	2151.0	2137.0	2137.0	2162.0	2162.0	2162.0	2194.0	2194.0	2187.0	2187.0	2187.0	2190.0	2190.0	2263.0	2263.0	2263.0	2228.0	2228.0	2288.0	2288.0	2288.0	2260.0	2260.0	2273.0	2273.0	2273.0	2267.0	2267.0	2288.0	2288.0	2288.0	2335.0	2335.0	2326.0	2326.0	2326.0	2333.0	2333.0	2360.0	2360.0	2360.0	2367.0	2367.0	2337.0	2337.0	2337.0	2356.0	2356.0	2364.0	2364.0	2364.0	2350.0	2350.0	2390.0	2390.0	2390.0	2387.0	2387.0	2331.0	2331.0	2331.0	2380.0	2380.0	2359.0	2359.0	2359.0	2337.0	2337.0	2370.0	2370.0	2370.0	2354.0	2354.0	2367.0	2367.0	2367.0	2352.0	2352.0	2357.0	2357.0	2357.0	2401.0	2401.0	2366.0	2366.0	2358.0	2358.0	2358.0	2351.0	2351.0	2345.0	2345.0	2345.0	2388.0	2388.0	2374.0	2374.0	2374.0	2370.0	2370.0	2400.0	2400.0	2400.0	2358.0	2358.0	2407.0	2407.0	2407.0	2364.0	2364.0	2398.0	2398.0	2398.0	2391.0	2391.0	2381.0	2381.0	2381.0	2363.0	2363.0	2377.0	2377.0	2377.0	2371.0	2371.0	2388.0	2388.0	2388.0	2354.0	2354.0	2387.0	2387.0	2387.0	2360.0	2360.0	2379.0	2379.0	2379.0	2394.0	2394.0	2364.0	2364.0	2364.0	2388.0	2388.0	2379.0	2379.0	2379.0	2355.0	2355.0	2326.0	2326.0	2326.0	2354.0	2354.0	2341.0	2341.0	2341.0	2355.0	2355.0	2350.0	2350.0	2350.0	2339.0	2339.0	2331.0	2331.0	2331.0	2301.0	2301.0	2311.0	2311.0	2311.0	2293.0	2293.0	2300.0	2300.0	2300.0	2282.0	2282.0	2275.0	2275.0	2275.0	2260.0	2260.0	2251.0	2251.0	2251.0	2253.0	2253.0	2247.0	2247.0	2247.0	2253.0	2253.0	2234.0	2234.0	2234.0	2216.0	2216.0	2221.0	2221.0	2221.0	2195.0	2195.0	2180.0	2180.0	2180.0	2172.0	2172.0	2164.0	2164.0	2164.0	2203.0	2203.0	2204.0	2204.0	2204.0	2134.0	2134.0	2175.0	2175.0	2175.0	2129.0	2129.0	2117.0	2117.0	2117.0	2112.0	2112.0	2156.0	2156.0	2156.0	2127.0	2127.0	2124.0	2124.0	2124.0	2083.0	2083.0	2091.0	2091.0	2091.0	2098.0	2098.0	2074.0	2074.0	2074.0	2089.0	2089.0	2075.0	2075.0	2075.0	2088.0	2088.0	2100.0	2100.0	2100.0	2093.0	2093.0	2040.0	2040.0	2040.0	2052.0	2052.0	2039.0	2039.0	2039.0	2076.0	2076.0	2047.0	2047.0	2047.0	2053.0	2053.0	2051.0	2051.0	2051.0	2057.0	2057.0	2058.0	2058.0	2058.0	2015.0	2015.0	2026.0	2026.0	2040.0	2040.0	2040.0	2059.0	2059.0	2033.0	2033.0	2033.0	2027.0	2027.0	2046.0	2046.0	2046.0	2031.0	2031.0	2037.0	2037.0	2037.0	2010.0	2010.0	2050.0	2050.0	2050.0	2039.0	2039.0	1998.0	1998.0	1998.0	1996.0	1996.0	2052.0	2052.0	2052.0	2033.0	2033.0	2001.0	2001.0	2001.0	2044.0	2044.0	1985.0	1985.0	1985.0	2001.0	2001.0	1996.0	1996.0	1996.0	2011.0	2011.0	2004.0	2004.0	2004.0	2012.0	2012.0	2014.0	2014.0	2014.0	1981.0	1981.0	1996.0	1996.0	1996.0	1996.0	1996.0	1989.0	1989.0	1989.0	1956.0	1956.0	1987.0	1987.0	1987.0	1940.0	1940.0	1987.0	1987.0	1987.0	1959.0	1959.0	1980.0	1980.0	1980.0	1929.0	1929.0	1965.0	1965.0	1965.0	1917.0	1917.0	1950.0	1950.0	1950.0	1937.0	1937.0	1927.0	1927.0	1927.0	1913.0	1913.0	1903.0	1903.0	1903.0	1942.0	1942.0	1892.0	1892.0	1892.0	1924.0	1924.0	1922.0	1922.0	1922.0	1899.0	1899.0	1924.0	1924.0	1924.0	1907.0	1907.0	1877.0	1877.0	1877.0	1920.0	1920.0	1905.0	1905.0	1905.0	1908.0	1908.0	1867.0	1867.0	1867.0	1892.0	1892.0	1868.0	1868.0	1868.0	1878.0	1878.0	1868.0	1868.0	1868.0	1890.0	1890.0	1847.0	1847.0	1847.0	1879.0	1879.0	1900.0	1900.0	1900.0	1876.0	1876.0	1848.0	1848.0	1848.0	1874.0	1874.0	1870.0	1870.0	1870.0	1850.0	1850.0	1885.0	1885.0	1885.0	1879.0	1879.0	1870.0	1870.0	1870.0	1830.0	1830.0	1868.0	1868.0	1868.0	1871.0	1871.0	1848.0	1848.0	1848.0	1870.0	1870.0	1874.0	1874.0	1874.0	1840.0	1840.0	1828.0	1828.0	1828.0	1820.0	1820.0	1855.0	1855.0	1855.0	1859.0	1859.0	1827.0	1827.0	1827.0	1855.0	1855.0	1864.0	1864.0	1824.0	1824.0	1824.0	1844.0	1844.0	1866.0	1866.0	1866.0	1817.0	1817.0	1856.0	1856.0	1856.0	1811.0	1811.0	1810.0	1810.0	1810.0	1843.0	1843.0	1828.0	1828.0	1828.0	1839.0	1839.0	1808.0	1808.0	1808.0	1821.0	1821.0	1832.0	1832.0	1832.0	1846.0	1846.0	1841.0	1841.0	1841.0	1810.0	1810.0	1843.0	1843.0	1843.0	1788.0	1788.0	1840.0	1840.0	1840.0	1831.0	1831.0	1828.0	1828.0	1828.0	1814.0	1814.0	1815.0	1815.0	1815.0	1801.0	1801.0	1793.0	1793.0	1793.0	1787.0	1787.0	1821.0	1821.0	1821.0	1824.0	1824.0	1854.0	1854.0	1854.0	1803.0	1803.0	1840.0	1840.0	1840.0	1792.0	1792.0	1831.0	1831.0	1831.0	1830.0	1830.0	1794.0	1794.0	1794.0	1814.0	1814.0	1802.0	1802.0	1802.0	1811.0	1811.0	1804.0	1804.0	1804.0	1820.0	1820.0	1844.0	1844.0	1844.0	1832.0	1832.0	1790.0	1790.0	1790.0	1822.0	1822.0	1829.0	1829.0	1829.0	1810.0	1810.0	1814.0	1814.0	1814.0	1812.0	1812.0	1802.0	1802.0	1802.0	1795.0	1795.0	1838.0	1838.0	1838.0	1837.0	1837.0	1791.0	1791.0	1791.0	1783.0	1783.0	1800.0	1800.0	1800.0	1804.0	1804.0	1833.0	1833.0	1833.0	1788.0	1788.0	1832.0	1832.0	1832.0	1779.0	1779.0	1833.0	1833.0	1833.0	1781.0	1781.0	1796.0	1796.0	1796.0	1791.0	1791.0	1785.0	1785.0	1785.0	1792.0	1792.0	1825.0	1825.0	1825.0	1787.0	1787.0	1801.0	1801.0	1801.0	1812.0	1812.0	1804.0	1804.0	1804.0	1818.0	1818.0	1792.0	1792.0	1792.0	1820.0	1820.0	1767.0	1767.0	1767.0	1795.0	1795.0	1775.0	1775.0	1775.0	1783.0	1783.0	1829.0	1829.0	1829.0	1782.0	1782.0	1829.0	1829.0	1772.0	1772.0	1772.0	1821.0	1821.0	1806.0	1806.0	1806.0	1824.0	1824.0	1784.0	1784.0	1784.0	1832.0	1832.0	1793.0	1793.0	1793.0	1807.0	1807.0	1852.0	1852.0	1852.0	1839.0	1839.0	1825.0	1825.0	1825.0	1857.0	1857.0	1849.0	1849.0	1849.0	1904.0	1904.0	1882.0	1882.0	1882.0	1922.0	1922.0	1955.0	1955.0	1955.0	1972.0	1972.0	1950.0	1950.0	1950.0	1951.0	1951.0	2006.0	2006.0	2006.0	2045.0	2045.0	2054.0	2054.0	2054.0	2042.0	2042.0	2108.0	2108.0	2108.0	2112.0	2112.0	2132.0	2132.0	2132.0	2149.0	2149.0	2185.0	2185.0	2185.0	2154.0	2154.0	2221.0	2221.0	2221.0	2211.0	2211.0	2246.0	2246.0	2246.0	2279.0	2279.0	2277.0	2277.0	2277.0	2313.0	2313.0	2271.0	2271.0	2271.0	2307.0	2307.0	2322.0	2322.0	2322.0	2344.0	2344.0	2352.0	2352.0	2352.0	2341.0	2341.0	2377.0	2377.0	2377.0	2330.0	2330.0	2348.0	2348.0	2348.0	2381.0	2381.0	2397.0	2397.0	2397.0	2359.0	2359.0	2373.0	2373.0	2373.0	2383.0	2383.0	2373.0	2373.0	2373.0	2400.0	2400.0	2378.0	2378.0	2378.0	2386.0	2386.0	2401.0	2401.0	2401.0	2372.0	2372.0	2379.0	2379.0	2379.0	2405.0	2405.0	2388.0	2388.0	2388.0	2366.0	2366.0	2379.0	2379.0	2379.0	2376.0	2376.0	2415.0	2415.0	2415.0	2398.0	2398.0	2418.0	2418.0	2418.0	2374.0	2374.0	2411.0	2411.0	2411.0	2371.0	2371.0	2414.0	2414.0	2414.0	2394.0	2394.0	2371.0	2371.0	2371.0	2370.0	2370.0	2364.0	2364.0	2364.0	2366.0	2366.0	2370.0	2370.0	2370.0	2372.0	2372.0	2406.0	2406.0	2406.0	2388.0	2388.0	2365.0	2365.0	2365.0	2390.0	