1756.0	1734.0	1734.0	1734.0	1741.0	1741.0	1776.0	1776.0	1776.0	1718.0	1718.0	1735.0	1735.0	1735.0	1760.0	1760.0	1729.0	1729.0	1729.0	1735.0	1735.0	1735.0	1735.0	1735.0	1776.0	1776.0	1804.0	1804.0	1804.0	1786.0	1786.0	1747.0	1747.0	1747.0	1811.0	1811.0	1811.0	1811.0	1811.0	1783.0	1783.0	1831.0	1831.0	1831.0	1807.0	1807.0	1810.0	1810.0	1810.0	1857.0	1857.0	1829.0	1829.0	1829.0	1866.0	1866.0	1886.0	1886.0	1886.0	1869.0	1869.0	1895.0	1895.0	1895.0	1966.0	1966.0	1980.0	1980.0	1980.0	1946.0	1946.0	1989.0	1989.0	1989.0	2028.0	2028.0	2013.0	2013.0	2013.0	2033.0	2033.0	2057.0	2057.0	2057.0	2095.0	2095.0	2067.0	2067.0	2067.0	2116.0	2116.0	2120.0	2120.0	2120.0	2104.0	2104.0	2142.0	2142.0	2142.0	2196.0	2196.0	2173.0	2173.0	2173.0	2215.0	2215.0	2178.0	2178.0	2178.0	2188.0	2188.0	2243.0	2243.0	2243.0	2249.0	2249.0	2226.0	2226.0	2226.0	2225.0	2225.0	2290.0	2290.0	2290.0	2250.0	2250.0	2247.0	2247.0	2247.0	2264.0	2264.0	2300.0	2300.0	2300.0	2279.0	2279.0	2282.0	2282.0	2282.0	2321.0	2321.0	2339.0	2339.0	2339.0	2340.0	2340.0	2294.0	2294.0	2294.0	2345.0	2345.0	2312.0	2312.0	2312.0	2315.0	2315.0	2323.0	2323.0	2323.0	2316.0	2316.0	2307.0	2307.0	2307.0	2311.0	2311.0	2340.0	2340.0	2340.0	2348.0	2348.0	2309.0	2309.0	2309.0	2349.0	2349.0	2330.0	2330.0	2330.0	2368.0	2368.0	2332.0	2332.0	2332.0	2371.0	2371.0	2380.0	2380.0	2380.0	2334.0	2334.0	2349.0	2349.0	2349.0	2385.0	2385.0	2338.0	2338.0	2368.0	2368.0	2368.0	2377.0	2377.0	2381.0	2381.0	2381.0	2382.0	2382.0	2343.0	2343.0	2343.0	2355.0	2355.0	2363.0	2363.0	2363.0	2388.0	2388.0	2377.0	2377.0	2377.0	2398.0	2398.0	2374.0	2374.0	2374.0	2374.0	2374.0	2388.0	2388.0	2388.0	2336.0	2336.0	2370.0	2370.0	2370.0	2339.0	2339.0	2330.0	2330.0	2330.0	2337.0	2337.0	2335.0	2335.0	2335.0	2351.0	2351.0	2320.0	2320.0	2320.0	2358.0	2358.0	2337.0	2337.0	2337.0	2333.0	2333.0	2315.0	2315.0	2315.0	2363.0	2363.0	2337.0	2337.0	2337.0	2371.0	2371.0	2351.0	2351.0	2351.0	2335.0	2335.0	2330.0	2330.0	2330.0	2354.0	2354.0	2310.0	2310.0	2310.0	2340.0	2340.0	2307.0	2307.0	2307.0	2269.0	2269.0	2311.0	2311.0	2311.0	2319.0	2319.0	2255.0	2255.0	2255.0	2278.0	2278.0	2243.0	2243.0	2243.0	2226.0	2226.0	2279.0	2279.0	2279.0	2248.0	2248.0	2252.0	2252.0	2252.0	2255.0	2255.0	2238.0	2238.0	2238.0	2230.0	2230.0	2229.0	2229.0	2229.0	2167.0	2167.0	2151.0	2151.0	2151.0	2176.0	2176.0	2177.0	2177.0	2177.0	2171.0	2171.0	2177.0	2177.0	2177.0	2124.0	2124.0	2156.0	2156.0	2156.0	2168.0	2168.0	2131.0	2131.0	2131.0	2159.0	2159.0	2138.0	2138.0	2138.0	2160.0	2160.0	2146.0	2146.0	2146.0	2152.0	2152.0	2129.0	2129.0	2129.0	2102.0	2102.0	2153.0	2153.0	2153.0	2086.0	2086.0	2125.0	2125.0	2125.0	2134.0	2134.0	2078.0	2078.0	2078.0	2126.0	2126.0	2130.0	2130.0	2130.0	2072.0	2072.0	2134.0	2134.0	2134.0	2134.0	2134.0	2097.0	2097.0	2097.0	2106.0	2106.0	2072.0	2072.0	2072.0	2105.0	2105.0	2127.0	2127.0	2068.0	2068.0	2068.0	2079.0	2079.0	2074.0	2074.0	2074.0	2085.0	2085.0	2108.0	2108.0	2108.0	2089.0	2089.0	2068.0	2068.0	2068.0	2102.0	2102.0	2071.0	2071.0	2071.0	2049.0	2049.0	2096.0	2096.0	2096.0	2039.0	2039.0	2046.0	2046.0	2046.0	2040.0	2040.0	2082.0	2082.0	2082.0	2034.0	2034.0	2064.0	2064.0	2064.0	2054.0	2054.0	2018.0	2018.0	2018.0	2078.0	2078.0	2009.0	2009.0	2009.0	2014.0	2014.0	2044.0	2044.0	2044.0	2025.0	2025.0	2017.0	2017.0	2017.0	2052.0	2052.0	2022.0	2022.0	2022.0	2022.0	2022.0	1994.0	1994.0	1994.0	1987.0	1987.0	1992.0	1992.0	1992.0	2016.0	2016.0	1983.0	1983.0	1983.0	2009.0	2009.0	1970.0	1970.0	1970.0	1981.0	1981.0	1975.0	1975.0	1975.0	2027.0	2027.0	2017.0	2017.0	2017.0	1954.0	1954.0	2012.0	2012.0	2012.0	2001.0	2001.0	1954.0	1954.0	1954.0	1960.0	1960.0	1987.0	1987.0	1987.0	1963.0	1963.0	1979.0	1979.0	1979.0	1979.0	1979.0	1952.0	1952.0	1952.0	1925.0	1925.0	1933.0	1933.0	1933.0	1954.0	1954.0	1963.0	1963.0	1963.0	1914.0	1914.0	1934.0	1934.0	1934.0	1954.0	1954.0	1952.0	1952.0	1952.0	1902.0	1902.0	1939.0	1939.0	1939.0	1915.0	1915.0	1875.0	1875.0	1875.0	1920.0	1920.0	1885.0	1885.0	1885.0	1881.0	1881.0	1876.0	1876.0	1876.0	1896.0	1896.0	1910.0	1910.0	1910.0	1902.0	1902.0	1911.0	1911.0	1911.0	1904.0	1904.0	1854.0	1854.0	1854.0	1873.0	1873.0	1841.0	1841.0	1841.0	1870.0	1870.0	1839.0	1839.0	1839.0	1854.0	1854.0	1894.0	1894.0	1894.0	1853.0	1853.0	1882.0	1882.0	1882.0	1839.0	1839.0	1823.0	1823.0	1823.0	1814.0	1814.0	1808.0	1808.0	1831.0	1831.0	1831.0	1843.0	1843.0	1826.0	1826.0	1826.0	1835.0	1835.0	1824.0	1824.0	1824.0	1826.0	1826.0	1796.0	1796.0	1796.0	1795.0	1795.0	1793.0	1793.0	1793.0	1839.0	1839.0	1829.0	1829.0	1829.0	1841.0	1841.0	1839.0	1839.0	1839.0	1805.0	1805.0	1786.0	1786.0	1786.0	1780.0	1780.0	1803.0	1803.0	1803.0	1824.0	1824.0	1808.0	1808.0	1808.0	1828.0	1828.0	1780.0	1780.0	1780.0	1819.0	1819.0	1808.0	1808.0	1808.0	1826.0	1826.0	1786.0	1786.0	1786.0	1797.0	1797.0	1798.0	1798.0	1798.0	1753.0	1753.0	1780.0	1780.0	1780.0	1808.0	1808.0	1800.0	1800.0	1800.0	1791.0	1791.0	1751.0	1751.0	1751.0	1766.0	1766.0	1779.0	1779.0	1779.0	1787.0	1787.0	1736.0	1736.0	1736.0	1741.0	1741.0	1743.0	1743.0	1743.0	1766.0	1766.0	1727.0	1727.0	1727.0	1765.0	1765.0	1731.0	1731.0	1731.0	1776.0	1776.0	1751.0	1751.0	1751.0	1714.0	1714.0	1771.0	1771.0	1771.0	1724.0	1724.0	1766.0	1766.0	1766.0	1726.0	1726.0	1749.0	1749.0	1749.0	1714.0	1714.0	1747.0	1747.0	1747.0	1726.0	1726.0	1738.0	1738.0	1738.0	1722.0	1722.0	1735.0	1735.0	1735.0	1743.0	1743.0	1690.0	1690.0	1690.0	1707.0	1707.0	1692.0	1692.0	1692.0	1714.0	1714.0	1678.0	1678.0	1678.0	1699.0	1699.0	1742.0	1742.0	1742.0	1676.0	1676.0	1678.0	1678.0	1678.0	1687.0	1687.0	1672.0	1672.0	1672.0	1682.0	1682.0	1722.0	1722.0	1722.0	1713.0	1713.0	1716.0	1716.0	1716.0	1677.0	1677.0	1655.0	1655.0	1655.0	1665.0	1665.0	1667.0	1667.0	1667.0	1688.0	1688.0	1652.0	1652.0	1652.0	1698.0	1698.0	1666.0	1666.0	1672.0	1672.0	1672.0	1698.0	1698.0	1699.0	1699.0	1699.0	1673.0	1673.0	1670.0	1670.0	1670.0	1693.0	1693.0	1679.0	1679.0	1679.0	1652.0	1652.0	1654.0	1654.0	1654.0	1697.0	1697.0	1662.0	1662.0	1662.0	1660.0	1660.0	1631.0	1631.0	1631.0	1660.0	1660.0	1631.0	1631.0	1631.0	1634.0	1634.0	1638.0	1638.0	1638.0	1633.0	1633.0	1665.0	1665.0	1665.0	1632.0	1632.0	1630.0	1630.0	1630.0	1671.0	1671.0	1619.0	1619.0	1619.0	1676.0	1676.0	1664.0	1664.0	1664.0	1655.0	1655.0	1646.0	1646.0	1646.0	1620.0	1620.0	1625.0	1625.0	1625.0	1670.0	1670.0	1671.0	1671.0	1671.0	1666.0	1666.0	1673.0	1673.0	1673.0	1648.0	1648.0	1647.0	1647.0	1647.0	1669.0	1669.0	1656.0	1656.0	1656.0	1671.0	1671.0	1682.0	1682.0	1682.0	1675.0	1675.0	1686.0	1686.0	1686.0	1654.0	1654.0	1699.0	1699.0	1699.0	1663.0	1663.0	1657.0	1657.0	1657.0	1718.0	1718.0	1696.0	1696.0	1696.0	1681.0	1681.0	1755.0	1755.0	1755.0	1720.0	1720.0	1730.0	1730.0	1730.0	1747.0	1747.0	1804.0	1804.0	1804.0	1771.0	1771.0	1793.0	1793.0	1793.0	1846.0	1846.0	1865.0	1865.0	1865.0	1852.0	1852.0	1894.0	1894.0	1894.0	1916.0	1916.0	1931.0	1931.0	1931.0	1933.0	1933.0	1967.0	1967.0	1967.0	1966.0	1966.0	1982.0	1982.0	1982.0	2012.0	2012.0	1992.0	1992.0	1992.0	1979.0	1979.0	2039.0	2039.0	2039.0	2035.0	2035.0	2052.0	2052.0	2052.0	2040.0	2040.0	2077.0	2077.0	2077.0	2055.0	2055.0	2112.0	2112.0	2112.0	2062.0	2062.0	2086.0	2086.0	2086.0	2077.0	2077.0	2087.0	2087.0	2087.0	2107.0	2107.0	2105.0	2105.0	2100.0	2100.0	2100.0	2116.0	2116.0	2158.0	2158.0	2158.0	2166.0	2166.0	2166.0	2166.0	2166.0	2136.0	2136.0	2188.0	2188.0	2188.0	2139.0	2139.0	2169.0	2169.0	2169.0	2180.0	2180.0	2159.0	2159.0	2159.0	2163.0	2163.0	2151.0	2151.0	2151.0	2168.0	2168.0	2173.0	2173.0	2173.0	2198.0	2198.0	2203.0	2203.0	2203.0	2226.0	2226.0	2226.0	2226.0	2226.0	2176.0	2176.0	2201.0	2201.0	2201.0	2202.0	2202.0	2195.0	2195.0	2195.0	2204.0	2204.0	2188.0	2188.0	2188.0	2215.0	2215.0	2231.0	2231.0	2231.0	2187.0	2187.0	2182.0	2182.0	2182.0	2238.0	2238.0	2202.0	2202.0	2202.0	2186.0	2186.0	2239.0	2239.0	2239.0	2184.0	2184.0	2231.0	2231.0	2231.0	2246.0	2246.0	2203.0	2203.0	2203.0	2242.0	2242.0	2218.0	2218.0	2218.0	2192.0	2192.0	2209.0	2209.0	2209.0	2247.0	2247.0	2190.0	2190.0	2190.0	2246.0	2246.0	2189.0	2189.0	2189.0	2202.0	2202.0	2244.0	2244.0	2244.0	2229.0	2229.0	2187.0	2187.0	2187.0	2205.0	2205.0	2213.0	2213.0	2213.0	2210.0	2210.0	2196.0	2196.0	2196.0	2222.0	2222.0	2182.0	2182.0	2182.0	2220.0	2220.0	2168.0	2168.0	2168.0	2143.0	2143.0	2203.0	2203.0	2203.0	2155.0	2155.0	2178.0	2178.0	2178.0	2162.0	2162.0	2175.0	2175.0	2175.0	2122.0	2122.0	2105.0	2105.0	2105.0	2152.0	2152.0	2084.0	2084.0	2084.0	2083.0	2083.0	2095.0	2095.0	2095.0	2108.0	2108.0	2085.0	2085.0	2085.0	2113.0	2113.0	2057.0	2057.0	2057.0	2055.0	2055.0	2042.0	2042.0	2042.0	2062.0	2062.0	2095.0	2095.0	2095.0	2082.0	2082.0	2033.0	2033.0	2033.0	2076.0	2076.0	2077.0	2077.0	2077.0	2049.0	2049.0	2045.0	2045.0	2040.0	2040.0	2040.0	2068.0	2068.0	2006.0	2006.0	2006.0	2074.0	2074.0	2050.0	2050.0	2050.0	2007.0	2007.0	2006.0	2006.0	2006.0	1997.0	1997.0	2048.0	2048.0	2048.0	2036.0	2036.0	2016.0	2016.0	2016.0	2033.0	2033.0	2017.0	2017.0	2017.0	2050.0	2050.0	2051.0	2051.0	2051.0	2001.0	2001.0	1995.0	1995.0	1995.0	2022.0	2022.0	1993.0	1993.0	1993.0	1994.0	1994.0	2044.0	2044.0	2044.0	2027.0	2027.0	1996.0	1996.0	1996.0	2010.0	2010.0	2023.0	2023.0	2023.0	1982.0	1982.0	1967.0	1967.0	1967.0	2000.0	2000.0	1969.0	1969.0	1969.0	2019.0	2019.0	1975.0	1975.0	1975.0	2034.0	2034.0	1971.0	1971.0	1971.0	1962.0	1962.0	1995.0	1995.0	1995.0	1971.0	1971.0	1950.0	1950.0	1950.0	2008.0	2008.0	1964.0	1964.0	1964.0	2010.0	2010.0	1993.0	1993.0	1993.0	1948.0	1948.0	1952.0	1952.0	1952.0	1975.0	1975.0	1941.0	1941.0	1941.0	1968.0	1968.0	1945.0	1945.0	1945.0	1991.0	1991.0	1946.0	1946.0	1946.0	1936.0	1936.0	1959.0	1959.0	1959.0	1939.0	1939.0	1959.0	1959.0	1959.0	1934.0	1934.0	1922.0	1922.0	1922.0	1910.0	1910.0	1966.0	1966.0	1966.0	1958.0	1958.0	1902.0	1902.0	1902.0	1900.0	1900.0	1947.0	1947.0	1947.0	1899.0	1899.0	1886.0	1886.0	1886.0	1908.0	1908.0	1904.0	1904.0	1904.0	1940.0	1940.0	1895.0	1895.0	1895.0	1897.0	1897.0	1912.0	1912.0	1912.0	1875.0	1875.0	1931.0	1931.0	1931.0	1911.0	1911.0	1905.0	1905.0	1905.0	1909.0	1909.0	1865.0	1865.0	1865.0	1872.0	1872.0	1856.0	1856.0	1856.0	1899.0	1899.0	1881.0	1881.0	1881.0	1889.0	1889.0	1873.0	1873.0	1879.0	1879.0	1879.0	1890.0	1890.0	1871.0	1871.0	1871.0	1865.0	1865.0	1828.0	1828.0	1828.0	1850.0	1850.0	1863.0	1863.0	1863.0	1841.0	1841.0	1874.0	1874.0	1874.0	1822.0	1822.0	1823.0	1823.0	1823.0	1810.0	1810.0	1852.0	1852.0	1852.0	1803.0	1803.0	1809.0	1809.0	1809.0	1791.0	1791.0	1843.0	1843.0	1843.0	1803.0	1803.0	1826.0	1826.0	1826.0	1805.0	1805.0	1786.0	1786.0	1786.0	1844.0	1844.0	1841.0	1841.0	1841.0	1821.0	1821.0	1784.0	1784.0	1784.0	1798.0	1798.0	1777.0	1777.0	1777.0	1795.0	1795.0	1783.0	1783.0	1783.0	1771.0	1771.0	1831.0	1831.0	1831.0	1823.0	1823.0	1778.0	1778.0	1778.0	1781.0	1781.0	1810.0	1810.0	1810.0	1776.0	1776.0	1798.0	1798.0	1798.0	1774.0	1774.0	1814.0	1814.0	1814.0	1755.0	1755.0	1809.0	1809.0	1809.0	1780.0	1780.0	1773.0	1773.0	1773.0	1750.0	1750.0	1812.0	1812.0	1812.0	1781.0	1781.0	1772.0	1772.0	1772.0	1777.0	1777.0	1757.0	1757.0	1757.0	1739.0	1739.0	1802.0	1802.0	1802.0	1743.0	1743.0	1738.0	1738.0	1738.0	1759.0	1759.0	1740.0	1740.0	1740.0	1731.0	1731.0	1734.0	1734.0	1734.0	1801.0	1801.0	1782.0	1782.0	1782.0	1797.0	1797.0	1751.0	1751.0	1751.0	1785.0	1785.0	1722.0	1722.0	1722.0	1740.0	1740.0	1757.0	1757.0	1757.0	1735.0	1735.0	1784.0	1784.0	1784.0	1723.0	1723.0	1767.0	1767.0	1767.0	1721.0	1721.0	1718.0	1718.0	1718.0	1712.0	1712.0	1727.0	1727.0	1727.0	1716.0	1716.0	1723.0	1723.0	1723.0	1758.0	1758.0	1736.0	1736.0	1736.0	1718.0	1718.0	1727.0	1727.0	1727.0	1764.0	1764.0	1705.0	1705.0	1707.0	1707.0	1707.0	1710.0	1710.0	1701.0	1701.0	1701.0	1757.0	1757.0	1721.0	1721.0	1721.0	1754.0	1754.0	1709.0	1709.0	1709.0	1759.0	1759.0	1693.0	1693.0	1693.0	1706.0	1706.0	1740.0	1740.0	1740.0	1734.0	1734.0	1689.0	1689.0	1689.0	1713.0	1713.0	1748.0	1748.0	1748.0	1742.0	1742.0	1721.0	1721.0	1721.0	1721.0	1721.0	1721.0	1721.0	1721.0	1737.0	1737.0	1712.0	1712.0	1712.0	1732.0	1732.0	1744.0	1744.0	1744.0	1713.0	1713.0	1738.0	1738.0	1738.0	1724.0	1724.0	1691.0	1691.0	1691.0	1710.0	1710.0	1681.0	1681.0	1681.0	1715.0	1715.0	1673.0	1673.0	1673.0	1719.0	1719.0	1703.0	1703.0	1703.0	1715.0	1715.0	1722.0	1722.0	1722.0	1693.0	1693.0	1694.0	1694.0	1694.0	1670.0	1670.0	1693.0	1693.0	1693.0	1695.0	1695.0	1714.0	1714.0	1714.0	1670.0	1670.0	1703.0	1703.0	1703.0	1666.0	1666.0	1662.0	1662.0	1662.0	1697.0	1697.0	1717.0	1717.0	1717.0	1701.0	1701.0	1652.0	1652.0	1652.0	1670.0	1670.0	1703.0	1703.0	1703.0	1676.0	1676.0	1675.0	1675.0	1675.0	1676.0	1676.0	1664.0	1664.0	1664.0	1692.0	1692.0	1671.0	1671.0	1671.0	1660.0	1660.0	1699.0	1699.0	1699.0	1663.0	1663.0	1725.0	1725.0	1725.0	1678.0	1678.0	1712.0	1712.0	1712.0	1736.0	1736.0	1731.0	1731.0	1731.0	1761.0	1761.0	1770.0	1770.0	1770.0	1733.0	1733.0	1786.0	1786.0	1786.0	1770.0	1770.0	1825.0	1825.0	1825.0	1796.0	1796.0	1790.0	1790.0	1790.0	1851.0	1851.0	1879.0	1879.0	1879.0	1876.0	1876.0	1846.0	1846.0	1846.0	1894.0	1894.0	1891.0	1891.0	1891.0	1946.0	1946.0	1954.0	1954.0	1954.0	1972.0	1972.0	1974.0	1974.0	1997.0	1997.0	1997.0	1995.0	1995.0	2031.0	2031.0	2031.0	2067.0	2067.0	2079.0	2079.0	2079.0	2035.0	2035.0	2091.0	2091.0	2091.0	2074.0	2074.0	2104.0	2104.0	2104.0	2081.0	2081.0	2092.0	2092.0	2092.0	2151.0	2151.0	2172.0	2172.0	2172.0	2186.0	2186.0	2183.0	2183.0	2183.0	2151.0	2151.0	2166.0	2166.0	2166.0	2167.0	2167.0	2207.0	2207.0	2207.0	2168.0	2168.0	2232.0	2232.0	2232.0	2227.0	2227.0	2198.0	2198.0	2198.0	2253.0	2253.0	2201.0	2201.0	2201.0	2245.0	2245.0	2266.0	2266.0	2266.0	2243.0	2243.0	2217.0	2217.0	2217.0	2260.0	2260.0	2226.0	2226.0	2226.0	2281.0	2281.0	2274.0	2274.0	2274.0	2236.0	2236.0	2272.0	2272.0	2272.0	2293.0	2293.0	2261.0	2261.0	2261.0	2295.0	2295.0	2260.0	2260.0	2260.0	2302.0	2302.0	2300.0	2300.0	2300.0	2315.0	2315.0	2325.0	2325.0	2325.0	2269.0	2269.0	2296.0	2296.0	2296.0	2300.0	2300.0	2272.0	2272.0	2272.0	2281.0	2281.0	2310.0	2310.0	2310.0	2300.0	2300.0	2288.0	2288.0	2288.0	2283.0	2283.0	2285.0	2285.0	2285.0	2308.0	2308.0	2287.0	2287.0	2287.0	2329.0	2329.0	2291.0	2291.0	2291.0	2279.0	2279.0	2328.0	2328.0	2328.0	2334.0	2334.0	2313.0	2313.0	2313.0	2323.0	2323.0	2304.0	2304.0	2304.0	2270.0	2270.0	2307.0	2307.0	2307.0	2308.0	2308.0	2312.0	2312.0	2312.0	2318.0	2318.0	2308.0	2308.0	2308.0	2316.0	2316.0	2310.0	2310.0	2310.0	2287.0	2287.0	2313.0	2313.0	2313.0	2313.0	2313.0	2270.0	2270.0	2270.0	2277.0	2277.0	2298.0	2298.0	2298.0	2292.0	2292.0	2239.0	2239.0	2239.0	2263.0	2263.0	2275.0	2275.0	2248.0	2248.0	2248.0	2223.0	2223.0	2234.0	2234.0	2234.0	2259.0	2259.0	2206.0	2206.0	2206.0	2190.0	2190.0	2208.0	2208.0	2208.0	2224.0	2224.0	2193.0	2193.0	2193.0	2213.0	2213.0	2165.0	2165.0	2165.0	2153.0	2153.0	2143.0	2143.0	2143.0	2146.0	2146.0	2168.0	2168.0	2168.0	2141.0	2141.0	2171.0	2171.0	2171.0	2164.0	2164.0	2117.0	2117.0	2117.0	2151.0	2151.0	2139.0	2139.0	2139.0	2113.0	2113.0	2137.0	2137.0	2137.0	2118.0	2118.0	2118.0	2118.0	2118.0	2113.0	2113.0	2120.0	2120.0	2120.0	2143.0	