2351.0	2351.0	2337.0	2337.0	2335.0	2335.0	2335.0	2323.0	2323.0	2291.0	2291.0	2291.0	2283.0	2283.0	2301.0	2301.0	2301.0	2284.0	2284.0	2270.0	2270.0	2270.0	2291.0	2291.0	2272.0	2272.0	2272.0	2312.0	2312.0	2314.0	2314.0	2314.0	2284.0	2284.0	2256.0	2256.0	2256.0	2227.0	2227.0	2228.0	2228.0	2228.0	2255.0	2255.0	2257.0	2257.0	2257.0	2223.0	2223.0	2225.0	2225.0	2225.0	2249.0	2249.0	2244.0	2244.0	2244.0	2235.0	2235.0	2244.0	2244.0	2158.0	2158.0	2158.0	2174.0	2174.0	2174.0	2174.0	2174.0	2148.0	2148.0	2171.0	2171.0	2171.0	2176.0	2176.0	2201.0	2201.0	2201.0	2178.0	2178.0	2115.0	2115.0	2115.0	2119.0	2119.0	2152.0	2152.0	2152.0	2086.0	2086.0	2106.0	2106.0	2106.0	2082.0	2082.0	2116.0	2116.0	2116.0	2105.0	2105.0	2095.0	2095.0	2095.0	2075.0	2075.0	2069.0	2069.0	2069.0	2089.0	2089.0	2090.0	2090.0	2090.0	2020.0	2020.0	2085.0	2085.0	2085.0	2007.0	2007.0	2004.0	2004.0	2004.0	2014.0	2014.0	2008.0	2008.0	2008.0	1988.0	1988.0	2048.0	2048.0	2048.0	2022.0	2022.0	2011.0	2011.0	2011.0	2007.0	2007.0	2032.0	2032.0	2032.0	1980.0	1980.0	1974.0	1974.0	1974.0	2008.0	2008.0	1971.0	1971.0	1971.0	2010.0	2010.0	1965.0	1965.0	1965.0	1998.0	1998.0	1952.0	1952.0	1952.0	2008.0	2008.0	1990.0	1990.0	1990.0	1993.0	1993.0	1984.0	1984.0	1984.0	1977.0	1977.0	1957.0	1957.0	1957.0	1997.0	1997.0	1960.0	1960.0	1960.0	1936.0	1936.0	1949.0	1949.0	1949.0	1949.0	1949.0	1938.0	1938.0	1938.0	1951.0	1951.0	1994.0	1994.0	1994.0	1986.0	1986.0	1960.0	1960.0	1960.0	1985.0	1985.0	1993.0	1993.0	1993.0	1996.0	1996.0	1933.0	1933.0	1933.0	1928.0	1928.0	1980.0	1980.0	1980.0	1982.0	1982.0	1932.0	1932.0	1932.0	1971.0	1971.0	1977.0	1977.0	1977.0	1946.0	1946.0	1935.0	1935.0	1935.0	1980.0	1980.0	1915.0	1915.0	1915.0	1967.0	1967.0	1934.0	1934.0	1934.0	1904.0	1904.0	1960.0	1960.0	1960.0	1950.0	1950.0	1911.0	1911.0	1911.0	1907.0	1907.0	1901.0	1901.0	1901.0	1968.0	1968.0	1911.0	1911.0	1911.0	1905.0	1905.0	1955.0	1955.0	1960.0	1960.0	1960.0	1902.0	1902.0	1881.0	1881.0	1881.0	1889.0	1889.0	1924.0	1924.0	1924.0	1923.0	1923.0	1931.0	1931.0	1931.0	1916.0	1916.0	1919.0	1919.0	1919.0	1908.0	1908.0	1880.0	1880.0	1880.0	1878.0	1878.0	1914.0	1914.0	1914.0	1924.0	1924.0	1874.0	1874.0	1874.0	1886.0	1886.0	1863.0	1863.0	1863.0	1910.0	1910.0	1916.0	1916.0	1916.0	1851.0	1851.0	1846.0	1846.0	1846.0	1846.0	1846.0	1878.0	1878.0	1878.0	1908.0	1908.0	1848.0	1848.0	1848.0	1892.0	1892.0	1904.0	1904.0	1904.0	1849.0	1849.0	1883.0	1883.0	1883.0	1893.0	1893.0	1836.0	1836.0	1836.0	1880.0	1880.0	1879.0	1879.0	1879.0	1838.0	1838.0	1899.0	1899.0	1899.0	1862.0	1862.0	1850.0	1850.0	1850.0	1887.0	1887.0	1824.0	1824.0	1824.0	1830.0	1830.0	1818.0	1818.0	1818.0	1842.0	1842.0	1802.0	1802.0	1802.0	1871.0	1871.0	1810.0	1810.0	1810.0	1819.0	1819.0	1867.0	1867.0	1867.0	1796.0	1796.0	1812.0	1812.0	1812.0	1804.0	1804.0	1803.0	1803.0	1803.0	1800.0	1800.0	1836.0	1836.0	1836.0	1792.0	1792.0	1853.0	1853.0	1853.0	1845.0	1845.0	1790.0	1790.0	1790.0	1784.0	1784.0	1799.0	1799.0	1799.0	1813.0	1813.0	1846.0	1846.0	1846.0	1846.0	1846.0	1793.0	1793.0	1793.0	1779.0	1779.0	1806.0	1806.0	1806.0	1829.0	1829.0	1791.0	1791.0	1791.0	1804.0	1804.0	1797.0	1797.0	1797.0	1827.0	1827.0	1828.0	1828.0	1828.0	1791.0	1791.0	1773.0	1773.0	1773.0	1766.0	1766.0	1825.0	1825.0	1825.0	1824.0	1824.0	1760.0	1760.0	1760.0	1792.0	1792.0	1777.0	1777.0	1777.0	1824.0	1824.0	1824.0	1824.0	1799.0	1799.0	1799.0	1779.0	1779.0	1763.0	1763.0	1763.0	1819.0	1819.0	1777.0	1777.0	1777.0	1831.0	1831.0	1783.0	1783.0	1783.0	1819.0	1819.0	1812.0	1812.0	1812.0	1769.0	1769.0	1758.0	1758.0	1758.0	1830.0	1830.0	1791.0	1791.0	1791.0	1810.0	1810.0	1812.0	1812.0	1812.0	1777.0	1777.0	1754.0	1754.0	1754.0	1817.0	1817.0	1757.0	1757.0	1757.0	1763.0	1763.0	1751.0	1751.0	1751.0	1815.0	1815.0	1814.0	1814.0	1814.0	1792.0	1792.0	1747.0	1747.0	1747.0	1819.0	1819.0	1769.0	1769.0	1769.0	1784.0	1784.0	1756.0	1756.0	1756.0	1788.0	1788.0	1801.0	1801.0	1801.0	1807.0	1807.0	1782.0	1782.0	1782.0	1768.0	1768.0	1809.0	1809.0	1809.0	1788.0	1788.0	1744.0	1744.0	1744.0	1780.0	1780.0	1793.0	1793.0	1793.0	1799.0	1799.0	1739.0	1739.0	1739.0	1757.0	1757.0	1731.0	1731.0	1731.0	1789.0	1789.0	1784.0	1784.0	1784.0	1799.0	1799.0	1734.0	1734.0	1734.0	1735.0	1735.0	1784.0	1784.0	1784.0	1756.0	1756.0	1755.0	1755.0	1755.0	1743.0	1743.0	1729.0	1729.0	1729.0	1755.0	1755.0	1751.0	1751.0	1751.0	1761.0	1761.0	1742.0	1742.0	1742.0	1742.0	1742.0	1774.0	1774.0	1774.0	1704.0	1704.0	1745.0	1745.0	1745.0	1757.0	1757.0	1787.0	1787.0	1787.0	1763.0	1763.0	1719.0	1719.0	1719.0	1759.0	1759.0	1723.0	1723.0	1723.0	1724.0	1724.0	1728.0	1728.0	1728.0	1785.0	1785.0	1783.0	1783.0	1783.0	1779.0	1779.0	1760.0	1760.0	1760.0	1751.0	1751.0	1755.0	1755.0	1755.0	1770.0	1770.0	1732.0	1732.0	1732.0	1786.0	1786.0	1741.0	1741.0	1741.0	1780.0	1780.0	1807.0	1807.0	1795.0	1795.0	1795.0	1818.0	1818.0	1776.0	1776.0	1776.0	1802.0	1802.0	1813.0	1813.0	1813.0	1870.0	1870.0	1870.0	1870.0	1870.0	1898.0	1898.0	1916.0	1916.0	1916.0	1888.0	1888.0	1934.0	1934.0	1934.0	1962.0	1962.0	1966.0	1966.0	1966.0	2012.0	2012.0	1961.0	1961.0	1961.0	1992.0	1992.0	2003.0	2003.0	2003.0	2019.0	2019.0	2019.0	2019.0	2019.0	2090.0	2090.0	2102.0	2102.0	2102.0	2121.0	2121.0	2123.0	2123.0	2123.0	2128.0	2128.0	2140.0	2140.0	2140.0	2161.0	2161.0	2172.0	2172.0	2172.0	2189.0	2189.0	2248.0	2248.0	2248.0	2260.0	2260.0	2256.0	2256.0	2256.0	2314.0	2314.0	2252.0	2252.0	2252.0	2283.0	2283.0	2319.0	2319.0	2319.0	2326.0	2326.0	2351.0	2351.0	2351.0	2358.0	2358.0	2381.0	2381.0	2381.0	2356.0	2356.0	2383.0	2383.0	2383.0	2341.0	2341.0	2392.0	2392.0	2392.0	2395.0	2395.0	2403.0	2403.0	2403.0	2366.0	2366.0	2359.0	2359.0	2359.0	2392.0	2392.0	2397.0	2397.0	2397.0	2442.0	2442.0	2442.0	2442.0	2442.0	2433.0	2433.0	2390.0	2390.0	2390.0	2415.0	2415.0	2381.0	2381.0	2381.0	2406.0	2406.0	2453.0	2453.0	2453.0	2411.0	2411.0	2419.0	2419.0	2419.0	2415.0	2415.0	2396.0	2396.0	2396.0	2429.0	2429.0	2441.0	2441.0	2441.0	2454.0	2454.0	2405.0	2405.0	2405.0	2390.0	2390.0	2418.0	2418.0	2418.0	2441.0	2441.0	2406.0	2406.0	2406.0	2407.0	2407.0	2370.0	2370.0	2370.0	2401.0	2401.0	2392.0	2392.0	2392.0	2422.0	2422.0	2380.0	2380.0	2380.0	2435.0	2435.0	2372.0	2372.0	2372.0	2423.0	2423.0	2400.0	2400.0	2400.0	2400.0	2400.0	2423.0	2423.0	2423.0	2359.0	2359.0	2348.0	2348.0	2401.0	2401.0	2401.0	2338.0	2338.0	2344.0	2344.0	2344.0	2366.0	2366.0	2376.0	2376.0	2376.0	2374.0	2374.0	2321.0	2321.0	2321.0	2380.0	2380.0	2363.0	2363.0	2363.0	2358.0	2358.0	2350.0	2350.0	2350.0	2292.0	2292.0	2299.0	2299.0	2299.0	2331.0	2331.0	2282.0	2282.0	2282.0	2305.0	2305.0	2293.0	2293.0	2293.0	2316.0	2316.0	2277.0	2277.0	2277.0	2242.0	2242.0	2234.0	2234.0	2234.0	2268.0	2268.0	2237.0	2237.0	2237.0	2278.0	2278.0	2246.0	2246.0	2246.0	2268.0	2268.0	2247.0	2247.0	2247.0	2206.0	2206.0	2211.0	2211.0	2211.0	2236.0	2236.0	2191.0	2191.0	2191.0	2162.0	2162.0	2156.0	2156.0	2156.0	2138.0	2138.0	2166.0	2166.0	2166.0	2175.0	2175.0	2127.0	2127.0	2127.0	2101.0	2101.0	2104.0	2104.0	2104.0	2117.0	2117.0	2090.0	2090.0	2090.0	2094.0	2094.0	2119.0	2119.0	2119.0	2121.0	2121.0	2064.0	2064.0	2064.0	2076.0	2076.0	2051.0	2051.0	2051.0	2102.0	2102.0	2080.0	2080.0	2080.0	2080.0	2080.0	2027.0	2027.0	2027.0	2021.0	2021.0	2013.0	2013.0	2013.0	2038.0	2038.0	2021.0	2021.0	2021.0	2050.0	2050.0	2043.0	2043.0	2043.0	2065.0	2065.0	2027.0	2027.0	2027.0	2035.0	2035.0	1985.0	1985.0	1985.0	2023.0	2023.0	1996.0	1996.0	1996.0	1980.0	1980.0	1984.0	1984.0	1984.0	2019.0	2019.0	2033.0	2033.0	2033.0	2003.0	2003.0	1988.0	1988.0	1988.0	2007.0	2007.0	2000.0	2000.0	2000.0	2022.0	2022.0	2028.0	2028.0	2028.0	1991.0	1991.0	2032.0	2032.0	2032.0	1976.0	1976.0	1996.0	1996.0	1996.0	1979.0	1979.0	2025.0	2025.0	2025.0	2022.0	2022.0	2023.0	2023.0	2014.0	2014.0	2014.0	2004.0	2004.0	1990.0	1990.0	1990.0	2012.0	2012.0	1998.0	1998.0	1998.0	1958.0	1958.0	1976.0	1976.0	1976.0	1959.0	1959.0	1971.0	1971.0	1971.0	2024.0	2024.0	2025.0	2025.0	2025.0	1960.0	1960.0	1999.0	1999.0	1999.0	1993.0	1993.0	1978.0	1978.0	1978.0	1950.0	1950.0	1968.0	1968.0	1968.0	2007.0	2007.0	1945.0	1945.0	1945.0	1966.0	1966.0	1970.0	1970.0	1970.0	1969.0	1969.0	1963.0	1963.0	1963.0	1999.0	1999.0	1965.0	1965.0	1965.0	1974.0	1974.0	2000.0	2000.0	2000.0	1931.0	1931.0	1924.0	1924.0	1924.0	1976.0	1976.0	1946.0	1946.0	1946.0	1922.0	1922.0	1955.0	1955.0	1955.0	1949.0	1949.0	1943.0	1943.0	1943.0	1942.0	1942.0	1968.0	1968.0	1968.0	1944.0	1944.0	1956.0	1956.0	1956.0	1915.0	1915.0	1916.0	1916.0	1916.0	1958.0	1958.0	1905.0	1905.0	1905.0	1941.0	1941.0	1943.0	1943.0	1943.0	1951.0	1951.0	1949.0	1949.0	1949.0	1910.0	1910.0	1921.0	1921.0	1921.0	1893.0	1893.0	1946.0	1946.0	1946.0	1919.0	1919.0	1884.0	1884.0	1884.0	1888.0	1888.0	1926.0	1926.0	1926.0	1915.0	1915.0	1933.0	1933.0	1933.0	1893.0	1893.0	1926.0	1926.0	1926.0	1911.0	1911.0	1871.0	1871.0	1871.0	1879.0	1879.0	1873.0	1873.0	1873.0	1895.0	1895.0	1870.0	1870.0	1870.0	1863.0	1863.0	1911.0	1911.0	1911.0	1885.0	1885.0	1849.0	1849.0	1849.0	1831.0	1831.0	1882.0	1882.0	1882.0	1899.0	1899.0	1886.0	1886.0	1886.0	1875.0	1875.0	1834.0	1834.0	1834.0	1834.0	1834.0	1821.0	1821.0	1821.0	1881.0	1881.0	1812.0	1812.0	1812.0	1853.0	1853.0	1842.0	1842.0	1857.0	1857.0	1857.0	1849.0	1849.0	1843.0	1843.0	1843.0	1816.0	1816.0	1842.0	1842.0	1842.0	1854.0	1854.0	1825.0	1825.0	1825.0	1851.0	1851.0	1832.0	1832.0	1832.0	1847.0	1847.0	1800.0	1800.0	1800.0	1817.0	1817.0	1844.0	1844.0	1844.0	1800.0	1800.0	1797.0	1797.0	1797.0	1797.0	1797.0	1807.0	1807.0	1807.0	1800.0	1800.0	1800.0	1800.0	1800.0	1817.0	1817.0	1837.0	1837.0	1837.0	1821.0	1821.0	1798.0	1798.0	1798.0	1790.0	1790.0	1795.0	1795.0	1795.0	1779.0	1779.0	1794.0	1794.0	1794.0	1816.0	1816.0	1806.0	1806.0	1806.0	1839.0	1839.0	1830.0	1830.0	1830.0	1796.0	1796.0	1838.0	1838.0	1838.0	1790.0	1790.0	1838.0	1838.0	1838.0	1776.0	1776.0	1770.0	1770.0	1770.0	1776.0	1776.0	1782.0	1782.0	1782.0	1821.0	1821.0	1836.0	1836.0	1836.0	1843.0	1843.0	1790.0	1790.0	1790.0	1800.0	1800.0	1785.0	1785.0	1785.0	1831.0	1831.0	1817.0	1817.0	1817.0	1799.0	1799.0	1786.0	1786.0	1786.0	1808.0	1808.0	1797.0	1797.0	1797.0	1774.0	1774.0	1768.0	1768.0	1768.0	1822.0	1822.0	1774.0	1774.0	1774.0	1778.0	1778.0	1828.0	1828.0	1828.0	1836.0	1836.0	1774.0	1774.0	1774.0	1772.0	1772.0	1783.0	1783.0	1783.0	1805.0	1805.0	1767.0	1767.0	1767.0	1786.0	1786.0	1814.0	1814.0	1814.0	1766.0	1766.0	1797.0	1797.0	1797.0	1825.0	1825.0	1821.0	1821.0	1821.0	1796.0	1796.0	1778.0	1778.0	1778.0	1777.0	1777.0	1826.0	1826.0	1826.0	1818.0	1818.0	1827.0	1827.0	1827.0	1799.0	1799.0	1787.0	1787.0	1787.0	1818.0	1818.0	1796.0	1796.0	1796.0	1751.0	1751.0	1784.0	1784.0	1784.0	1770.0	1770.0	1785.0	1785.0	1754.0	1754.0	1754.0	1824.0	1824.0	1764.0	1764.0	1764.0	1777.0	1777.0	1819.0	1819.0	1819.0	1816.0	1816.0	1811.0	1811.0	1811.0	1823.0	1823.0	1827.0	1827.0	1827.0	1818.0	1818.0	1811.0	1811.0	1811.0	1783.0	1783.0	1774.0	1774.0	1774.0	1762.0	1762.0	1807.0	1807.0	1807.0	1756.0	1756.0	1798.0	1798.0	1798.0	1782.0	1782.0	1755.0	1755.0	1755.0	1799.0	1799.0	1793.0	1793.0	1793.0	1794.0	1794.0	1797.0	1797.0	1797.0	1826.0	1826.0	1793.0	1793.0	1793.0	1855.0	1855.0	1803.0	1803.0	1803.0	1824.0	1824.0	1884.0	1884.0	1884.0	1894.0	1894.0	1907.0	1907.0	1907.0	1883.0	1883.0	1870.0	1870.0	1870.0	1929.0	1929.0	1936.0	1936.0	1936.0	1910.0	1910.0	1922.0	1922.0	1922.0	2002.0	2002.0	2014.0	2014.0	2014.0	2039.0	2039.0	2023.0	2023.0	2023.0	2057.0	2057.0	2033.0	2033.0	2033.0	2052.0	2052.0	2100.0	2100.0	2100.0	2134.0	2134.0	2161.0	2161.0	2161.0	2160.0	2160.0	2197.0	2197.0	2197.0	2163.0	2163.0	2240.0	2240.0	2240.0	2254.0	2254.0	2242.0	2242.0	2242.0	2287.0	2287.0	2295.0	2295.0	2295.0	2285.0	2285.0	2319.0	2319.0	2319.0	2340.0	2340.0	2343.0	2343.0	2343.0	2323.0	2323.0	2344.0	2344.0	2344.0	2394.0	2394.0	2393.0	2393.0	2393.0	2375.0	2375.0	2369.0	2369.0	2369.0	2415.0	2415.0	2379.0	2379.0	2379.0	2396.0	2396.0	2396.0	2396.0	2396.0	2404.0	2404.0	2434.0	2434.0	2434.0	2472.0	2472.0	2409.0	2409.0	2409.0	2460.0	2460.0	2485.0	2485.0	2485.0	2423.0	2423.0	2431.0	2431.0	2431.0	2494.0	2494.0	2439.0	2439.0	2439.0	2476.0	2476.0	2431.0	2431.0	2438.0	2438.0	2438.0	2448.0	2448.0	2474.0	2474.0	2474.0	2472.0	2472.0	2482.0	2482.0	2482.0	2497.0	2497.0	2463.0	2463.0	2463.0	2502.0	2502.0	2485.0	2485.0	2485.0	2486.0	2486.0	2497.0	2497.0	2497.0	2451.0	2451.0	2437.0	2437.0	2437.0	2491.0	2491.0	2473.0	2473.0	2473.0	2425.0	2425.0	2424.0	2424.0	2424.0	2432.0	2432.0	2422.0	2422.0	2422.0	2429.0	2429.0	2456.0	2456.0	2456.0	2445.0	2445.0	2468.0	2468.0	2468.0	2405.0	2405.0	2420.0	2420.0	2420.0	2454.0	2454.0	2448.0	2448.0	2448.0	2435.0	2435.0	2410.0	2410.0	2410.0	2443.0	2443.0	2422.0	2422.0	2422.0	2434.0	2434.0	2426.0	2426.0	2426.0	2428.0	2428.0	2392.0	2392.0	2392.0	2364.0	2364.0	2403.0	2403.0	2403.0	2361.0	2361.0	2344.0	2344.0	2344.0	2344.0	2344.0	2347.0	2347.0	2347.0	2338.0	2338.0	2355.0	2355.0	2355.0	2351.0	2351.0	2326.0	2326.0	2326.0	2311.0	2311.0	2313.0	2313.0	2313.0	2326.0	2326.0	2287.0	2287.0	2287.0	2330.0	2330.0	2305.0	2305.0	2305.0	2264.0	2264.0	2270.0	2270.0	2270.0	2320.0	2320.0	2273.0	2273.0	2273.0	2292.0	2292.0	2280.0	2280.0	2280.0	2232.0	2232.0	2259.0	2259.0	2259.0	2255.0	2255.0	2230.0	2230.0	2230.0	2198.0	2198.0	2194.0	2194.0	2194.0	2163.0	2163.0	2214.0	2214.0	2214.0	2152.0	2152.0	2199.0	2199.0	2199.0	2143.0	2143.0	2127.0	2127.0	2127.0	2163.0	2163.0	2111.0	2111.0	2111.0	2110.0	2110.0	2092.0	2092.0	2092.0	2082.0	2082.0	2130.0	2130.0	2130.0	2123.0	2123.0	2120.0	2120.0	2120.0	2072.0	2072.0	2113.0	2113.0	2113.0	2073.0	2073.0	2079.0	2079.0	2079.0	2051.0	2051.0	2096.0	2096.0	2079.0	2079.0	2079.0	2027.0	2027.0	2061.0	2061.0	2061.0	2041.0	2041.0	2061.0	2061.0	2061.0	2010.0	2010.0	2014.0	2014.0	2014.0	2010.0	2010.0	2003.0	2003.0	2003.0	2066.0	2066.0	2017.0	2017.0	2017.0	2038.0	2038.0	2018.0	2018.0	2018.0	2005.0	2005.0	2045.0	2045.0	2045.0	2013.0	2013.0	2026.0	2026.0	2026.0	1990.0	1990.0	1995.0	1995.0	1995.0	1978.0	1978.0	1966.0	1966.0	1966.0	2038.0	2038.0	1973.0	1973.0	1973.0	2012.0	2012.0	1973.0	1973.0	1973.0	1993.0	1993.0	2010.0	2010.0	2010.0	1976.0	1976.0	1995.0	1995.0	1995.0	1973.0	1973.0	2012.0	2012.0	2012.0	2000.0	2000.0	1960.0	1960.0	1960.0	2015.0	2015.0	1972.0	1972.0	1972.0	1950.0	1950.0	1969.0	1969.0	1969.0	1982.0	1982.0	1950.0	1950.0	1950.0	1946.0	1946.0	1946.0	1946.0	1946.0	1930.0	1930.0	1942.0	1942.0	1942.0	1978.0	1978.0	1991.0	1991.0	1991.0	1939.0	1939.0	1955.0	1955.0	1955.0	1964.0	1964.0	1980.0	1980.0	1980.0	1985.0	1985.0	1958.0	1958.0	1958.0	1955.0	1955.0	1982.0	1982.0	1982.0	1943.0	1943.0	1981.0	1981.0	1981.0	1968.0	1968.0	1940.0	1940.0	1940.0	1905.0	1905.0	1950.0	1950.0	1950.0	1945.0	1945.0	1946.0	1946.0	1946.0	1919.0	1919.0	1961.0	1961.0	1961.0	1949.0	1949.0	1945.0	1945.0	1945.0	1935.0	1935.0	1926.0	1926.0	1926.0	1922.0	1922.0	1951.0	1951.0	1951.0	1924.0	1924.0	1924.0	1924.0	1924.0	1905.0	1905.0	1872.0	1872.0	1872.0	1929.0	1929.0	1912.0	1912.0	1912.0	1909.0	1909.0	1863.0	1863.0	1863.0	1921.0	1921.0	1881.0	1881.0	1881.0	1916.0	1916.0	1905.0	