2679.0	2695.0	2695.0	2676.0	2676.0	2676.0	2671.0	2671.0	2731.0	2731.0	2731.0	2654.0	2654.0	2647.0	2647.0	2647.0	2681.0	2681.0	2642.0	2642.0	2642.0	2640.0	2640.0	2644.0	2644.0	2644.0	2658.0	2658.0	2687.0	2687.0	2687.0	2630.0	2630.0	2666.0	2666.0	2666.0	2647.0	2647.0	2661.0	2661.0	2661.0	2569.0	2569.0	2605.0	2605.0	2605.0	2575.0	2575.0	2566.0	2566.0	2566.0	2626.0	2626.0	2585.0	2585.0	2585.0	2616.0	2616.0	2539.0	2539.0	2539.0	2532.0	2532.0	2521.0	2521.0	2521.0	2585.0	2585.0	2506.0	2506.0	2506.0	2492.0	2492.0	2530.0	2530.0	2530.0	2529.0	2529.0	2457.0	2457.0	2457.0	2480.0	2480.0	2442.0	2442.0	2442.0	2431.0	2431.0	2431.0	2431.0	2431.0	2412.0	2412.0	2455.0	2455.0	2455.0	2391.0	2391.0	2459.0	2459.0	2459.0	2370.0	2370.0	2413.0	2413.0	2413.0	2331.0	2331.0	2379.0	2379.0	2379.0	2317.0	2317.0	2301.0	2301.0	2301.0	2333.0	2333.0	2271.0	2271.0	2271.0	2259.0	2259.0	2241.0	2241.0	2241.0	2241.0	2241.0	2274.0	2274.0	2274.0	2248.0	2248.0	2228.0	2228.0	2228.0	2199.0	2199.0	2235.0	2235.0	2235.0	2219.0	2219.0	2151.0	2151.0	2151.0	2127.0	2127.0	2116.0	2116.0	2116.0	2174.0	2174.0	2134.0	2134.0	2134.0	2074.0	2074.0	2058.0	2058.0	2058.0	2126.0	2126.0	2052.0	2052.0	2052.0	2041.0	2041.0	2031.0	2031.0	2031.0	2024.0	2024.0	2022.0	2022.0	2022.0	2042.0	2042.0	2043.0	2043.0	2050.0	2050.0	2050.0	1999.0	1999.0	1985.0	1985.0	1985.0	2021.0	2021.0	1969.0	1969.0	1969.0	1975.0	1975.0	2031.0	2031.0	2031.0	1947.0	1947.0	1981.0	1981.0	1981.0	2022.0	2022.0	2001.0	2001.0	2001.0	2017.0	2017.0	1928.0	1928.0	1928.0	2002.0	2002.0	1964.0	1964.0	1964.0	1991.0	1991.0	1996.0	1996.0	1996.0	1914.0	1914.0	1990.0	1990.0	1990.0	1968.0	1968.0	1942.0	1942.0	1942.0	1983.0	1983.0	1945.0	1945.0	1945.0	1909.0	1909.0	1895.0	1895.0	1895.0	1935.0	1935.0	1902.0	1902.0	1902.0	1900.0	1900.0	1906.0	1906.0	1906.0	1892.0	1892.0	1945.0	1945.0	1945.0	1960.0	1960.0	1952.0	1952.0	1952.0	1893.0	1893.0	1907.0	1907.0	1907.0	1881.0	1881.0	1874.0	1874.0	1874.0	1885.0	1885.0	1869.0	1869.0	1869.0	1861.0	1861.0	1893.0	1893.0	1893.0	1869.0	1869.0	1849.0	1849.0	1849.0	1895.0	1895.0	1852.0	1852.0	1852.0	1911.0	1911.0	1848.0	1848.0	1848.0	1869.0	1869.0	1836.0	1836.0	1836.0	1832.0	1832.0	1838.0	1838.0	1838.0	1843.0	1843.0	1889.0	1889.0	1889.0	1835.0	1835.0	1835.0	1835.0	1835.0	1826.0	1826.0	1805.0	1805.0	1805.0	1801.0	1801.0	1871.0	1871.0	1871.0	1799.0	1799.0	1854.0	1854.0	1854.0	1826.0	1826.0	1784.0	1784.0	1784.0	1800.0	1800.0	1849.0	1849.0	1849.0	1780.0	1780.0	1838.0	1838.0	1838.0	1786.0	1786.0	1817.0	1817.0	1817.0	1832.0	1832.0	1782.0	1782.0	1782.0	1790.0	1790.0	1828.0	1828.0	1828.0	1813.0	1813.0	1777.0	1777.0	1777.0	1816.0	1816.0	1756.0	1756.0	1756.0	1792.0	1792.0	1755.0	1755.0	1755.0	1795.0	1795.0	1778.0	1778.0	1778.0	1729.0	1729.0	1760.0	1760.0	1719.0	1719.0	1719.0	1768.0	1768.0	1712.0	1712.0	1712.0	1720.0	1720.0	1715.0	1715.0	1715.0	1708.0	1708.0	1699.0	1699.0	1699.0	1760.0	1760.0	1754.0	1754.0	1754.0	1732.0	1732.0	1687.0	1687.0	1687.0	1691.0	1691.0	1712.0	1712.0	1712.0	1730.0	1730.0	1675.0	1675.0	1675.0	1727.0	1727.0	1711.0	1711.0	1711.0	1726.0	1726.0	1667.0	1667.0	1667.0	1667.0	1667.0	1679.0	1679.0	1679.0	1713.0	1713.0	1676.0	1676.0	1676.0	1700.0	1700.0	1691.0	1691.0	1691.0	1695.0	1695.0	1655.0	1655.0	1655.0	1705.0	1705.0	1646.0	1646.0	1646.0	1654.0	1654.0	1711.0	1711.0	1711.0	1679.0	1679.0	1696.0	1696.0	1696.0	1638.0	1638.0	1667.0	1667.0	1667.0	1637.0	1637.0	1657.0	1657.0	1657.0	1658.0	1658.0	1685.0	1685.0	1685.0	1650.0	1650.0	1667.0	1667.0	1667.0	1651.0	1651.0	1663.0	1663.0	1663.0	1669.0	1669.0	1643.0	1643.0	1643.0	1682.0	1682.0	1646.0	1646.0	1646.0	1667.0	1667.0	1624.0	1624.0	1624.0	1659.0	1659.0	1654.0	1654.0	1654.0	1618.0	1618.0	1644.0	1644.0	1644.0	1660.0	1660.0	1623.0	1623.0	1623.0	1671.0	1671.0	1627.0	1627.0	1627.0	1623.0	1623.0	1617.0	1617.0	1617.0	1618.0	1618.0	1613.0	1613.0	1613.0	1634.0	1634.0	1663.0	1663.0	1663.0	1663.0	1663.0	1662.0	1662.0	1662.0	1627.0	1627.0	1608.0	1608.0	1608.0	1601.0	1601.0	1644.0	1644.0	1644.0	1600.0	1600.0	1643.0	1643.0	1643.0	1611.0	1611.0	1647.0	1647.0	1647.0	1628.0	1628.0	1597.0	1597.0	1597.0	1627.0	1627.0	1655.0	1655.0	1655.0	1587.0	1587.0	1643.0	1643.0	1643.0	1601.0	1601.0	1594.0	1594.0	1604.0	1604.0	1604.0	1598.0	1598.0	1645.0	1645.0	1645.0	1643.0	1643.0	1625.0	1625.0	1625.0	1631.0	1631.0	1610.0	1610.0	1610.0	1614.0	1614.0	1597.0	1597.0	1597.0	1631.0	1631.0	1648.0	1648.0	1648.0	1647.0	1647.0	1623.0	1623.0	1623.0	1637.0	1637.0	1644.0	1644.0	1644.0	1591.0	1591.0	1590.0	1590.0	1590.0	1596.0	1596.0	1636.0	1636.0	1636.0	1618.0	1618.0	1593.0	1593.0	1593.0	1579.0	1579.0	1630.0	1630.0	1630.0	1591.0	1591.0	1587.0	1587.0	1587.0	1590.0	1590.0	1625.0	1625.0	1625.0	1620.0	1620.0	1606.0	1606.0	1606.0	1633.0	1633.0	1600.0	1600.0	1600.0	1602.0	1602.0	1589.0	1589.0	1589.0	1588.0	1588.0	1592.0	1592.0	1592.0	1597.0	1597.0	1623.0	1623.0	1623.0	1607.0	1607.0	1628.0	1628.0	1628.0	1641.0	1641.0	1636.0	1636.0	1636.0	1652.0	1652.0	1662.0	1662.0	1662.0	1659.0	1659.0	1665.0	1665.0	1665.0	1659.0	1659.0	1719.0	1719.0	1719.0	1694.0	1694.0	1707.0	1707.0	1707.0	1754.0	1754.0	1737.0	1737.0	1737.0	1814.0	1814.0	1798.0	1798.0	1798.0	1863.0	1863.0	1884.0	1884.0	1884.0	1923.0	1923.0	1947.0	1947.0	1947.0	1964.0	1964.0	2005.0	2005.0	2005.0	2015.0	2015.0	2046.0	2046.0	2046.0	2034.0	2034.0	2094.0	2094.0	2094.0	2161.0	2161.0	2126.0	2126.0	2126.0	2163.0	2163.0	2190.0	2190.0	2190.0	2223.0	2223.0	2274.0	2274.0	2274.0	2278.0	2278.0	2371.0	2371.0	2371.0	2396.0	2396.0	2388.0	2388.0	2388.0	2420.0	2420.0	2427.0	2427.0	2427.0	2450.0	2450.0	2446.0	2446.0	2446.0	2540.0	2540.0	2550.0	2550.0	2550.0	2505.0	2505.0	2578.0	2578.0	2535.0	2535.0	2535.0	2553.0	2553.0	2578.0	2578.0	2578.0	2644.0	2644.0	2663.0	2663.0	2663.0	2600.0	2600.0	2687.0	2687.0	2687.0	2697.0	2697.0	2662.0	2662.0	2662.0	2659.0	2659.0	2712.0	2712.0	2712.0	2649.0	2649.0	2663.0	2663.0	2663.0	2734.0	2734.0	2705.0	2705.0	2705.0	2670.0	2670.0	2684.0	2684.0	2684.0	2685.0	2685.0	2685.0	2685.0	2685.0	2751.0	2751.0	2770.0	2770.0	2770.0	2716.0	2716.0	2731.0	2731.0	2731.0	2760.0	2760.0	2760.0	2760.0	2760.0	2770.0	2770.0	2735.0	2735.0	2735.0	2710.0	2710.0	2731.0	2731.0	2731.0	2761.0	2761.0	2680.0	2680.0	2680.0	2674.0	2674.0	2696.0	2696.0	2696.0	2666.0	2666.0	2735.0	2735.0	2735.0	2718.0	2718.0	2725.0	2725.0	2725.0	2637.0	2637.0	2636.0	2636.0	2636.0	2641.0	2641.0	2621.0	2621.0	2621.0	2615.0	2615.0	2689.0	2689.0	2689.0	2676.0	2676.0	2616.0	2616.0	2616.0	2643.0	2643.0	2586.0	2586.0	2586.0	2655.0	2655.0	2571.0	2571.0	2571.0	2562.0	2562.0	2601.0	2601.0	2601.0	2603.0	2603.0	2562.0	2562.0	2562.0	2563.0	2563.0	2556.0	2556.0	2556.0	2523.0	2523.0	2522.0	2522.0	2522.0	2564.0	2564.0	2558.0	2558.0	2558.0	2487.0	2487.0	2476.0	2476.0	2476.0	2500.0	2500.0	2461.0	2461.0	2461.0	2524.0	2524.0	2457.0	2457.0	2457.0	2449.0	2449.0	2494.0	2494.0	2494.0	2411.0	2411.0	2422.0	2422.0	2422.0	2377.0	2377.0	2444.0	2444.0	2444.0	2355.0	2355.0	2364.0	2364.0	2364.0	2336.0	2336.0	2321.0	2321.0	2321.0	2350.0	2350.0	2335.0	2335.0	2335.0	2352.0	2352.0	2327.0	2327.0	2327.0	2249.0	2249.0	2240.0	2240.0	2240.0	2294.0	2294.0	2251.0	2251.0	2199.0	2199.0	2199.0	2227.0	2227.0	2253.0	2253.0	2253.0	2194.0	2194.0	2171.0	2171.0	2171.0	2199.0	2199.0	2204.0	2204.0	2204.0	2168.0	2168.0	2120.0	2120.0	2120.0	2097.0	2097.0	2162.0	2162.0	2162.0	2085.0	2085.0	2144.0	2144.0	2144.0	2064.0	2064.0	2096.0	2096.0	2096.0	2048.0	2048.0	2074.0	2074.0	2074.0	2090.0	2090.0	2090.0	2090.0	2090.0	2053.0	2053.0	2020.0	2020.0	2020.0	2065.0	2065.0	2025.0	2025.0	2025.0	2041.0	2041.0	2031.0	2031.0	2031.0	2013.0	2013.0	1980.0	1980.0	1980.0	2030.0	2030.0	2000.0	2000.0	2000.0	1991.0	1991.0	1991.0	1991.0	1991.0	1971.0	1971.0	1949.0	1949.0	1949.0	1931.0	1931.0	1980.0	1980.0	1980.0	1922.0	1922.0	1994.0	1994.0	1994.0	1941.0	1941.0	1936.0	1936.0	1936.0	1936.0	1936.0	1912.0	1912.0	1912.0	1981.0	1981.0	1980.0	1980.0	1980.0	1927.0	1927.0	1975.0	1975.0	1975.0	1937.0	1937.0	1917.0	1917.0	1917.0	1968.0	1968.0	1897.0	1897.0	1897.0	1895.0	1895.0	1889.0	1889.0	1889.0	1894.0	1894.0	1900.0	1900.0	1900.0	1893.0	1893.0	1906.0	1906.0	1906.0	1907.0	1907.0	1885.0	1885.0	1885.0	1880.0	1880.0	1937.0	1937.0	1937.0	1862.0	1862.0	1876.0	1876.0	1876.0	1925.0	1925.0	1924.0	1924.0	1924.0	1886.0	1886.0	1846.0	1846.0	1846.0	1862.0	1862.0	1907.0	1907.0	1907.0	1844.0	1844.0	1863.0	1863.0	1863.0	1909.0	1909.0	1852.0	1852.0	1852.0	1896.0	1896.0	1884.0	1884.0	1884.0	1839.0	1839.0	1830.0	1830.0	1830.0	1862.0	1862.0	1852.0	1852.0	1852.0	1872.0	1872.0	1842.0	1842.0	1842.0	1818.0	1818.0	1866.0	1866.0	1820.0	1820.0	1820.0	1802.0	1802.0	1803.0	1803.0	1803.0	1839.0	1839.0	1794.0	1794.0	1794.0	1780.0	1780.0	1795.0	1795.0	1795.0	1771.0	1771.0	1784.0	1784.0	1784.0	1793.0	1793.0	1780.0	1780.0	1780.0	1798.0	1798.0	1798.0	1798.0	1798.0	1790.0	1790.0	1778.0	1778.0	1778.0	1770.0	1770.0	1753.0	1753.0	1753.0	1799.0	1799.0	1803.0	1803.0	1803.0	1785.0	1785.0	1787.0	1787.0	1787.0	1767.0	1767.0	1770.0	1770.0	1770.0	1728.0	1728.0	1729.0	1729.0	1729.0	1752.0	1752.0	1711.0	1711.0	1711.0	1756.0	1756.0	1734.0	1734.0	1734.0	1753.0	1753.0	1710.0	1710.0	1710.0	1731.0	1731.0	1705.0	1705.0	1705.0	1716.0	1716.0	1702.0	1702.0	1702.0	1708.0	1708.0	1696.0	1696.0	1696.0	1732.0	1732.0	1696.0	1696.0	1696.0	1692.0	1692.0	1724.0	1724.0	1724.0	1672.0	1672.0	1721.0	1721.0	1721.0	1706.0	1706.0	1717.0	1717.0	1717.0	1686.0	1686.0	1729.0	1729.0	1729.0	1677.0	1677.0	1665.0	1665.0	1665.0	1684.0	1684.0	1700.0	1700.0	1700.0	1722.0	1722.0	1669.0	1669.0	1669.0	1699.0	1699.0	1713.0	1713.0	1713.0	1710.0	1710.0	1665.0	1665.0	1665.0	1676.0	1676.0	1652.0	1652.0	1652.0	1668.0	1668.0	1644.0	1644.0	1644.0	1661.0	1661.0	1648.0	1648.0	1648.0	1697.0	1697.0	1650.0	1650.0	1650.0	1696.0	1696.0	1636.0	1636.0	1636.0	1638.0	1638.0	1689.0	1689.0	1689.0	1666.0	1666.0	1655.0	1655.0	1655.0	1660.0	1660.0	1639.0	1639.0	1639.0	1679.0	1679.0	1680.0	1680.0	1680.0	1629.0	1629.0	1659.0	1659.0	1659.0	1632.0	1632.0	1630.0	1630.0	1630.0	1666.0	1666.0	1662.0	1662.0	1662.0	1628.0	1628.0	1634.0	1634.0	1631.0	1631.0	1631.0	1625.0	1625.0	1678.0	1678.0	1678.0	1627.0	1627.0	1618.0	1618.0	1618.0	1654.0	1654.0	1672.0	1672.0	1672.0	1619.0	1619.0	1670.0	1670.0	1670.0	1639.0	1639.0	1651.0	1651.0	1651.0	1645.0	1645.0	1654.0	1654.0	1654.0	1676.0	1676.0	1657.0	1657.0	1657.0	1667.0	1667.0	1645.0	1645.0	1645.0	1650.0	1650.0	1663.0	1663.0	1663.0	1647.0	1647.0	1613.0	1613.0	1613.0	1617.0	1617.0	1614.0	1614.0	1614.0	1658.0	1658.0	1625.0	1625.0	1625.0	1638.0	1638.0	1670.0	1670.0	1670.0	1660.0	1660.0	1653.0	1653.0	1653.0	1669.0	1669.0	1625.0	1625.0	1625.0	1627.0	1627.0	1625.0	1625.0	1625.0	1666.0	1666.0	1654.0	1654.0	1654.0	1636.0	1636.0	1645.0	1645.0	1645.0	1636.0	1636.0	1669.0	1669.0	1669.0	1660.0	1660.0	1626.0	1626.0	1626.0	1635.0	1635.0	1624.0	1624.0	1624.0	1628.0	1628.0	1663.0	1663.0	1663.0	1617.0	1617.0	1644.0	1644.0	1644.0	1612.0	1612.0	1643.0	1643.0	1643.0	1616.0	1616.0	1647.0	1647.0	1647.0	1614.0	1614.0	1611.0	1611.0	1611.0	1640.0	1640.0	1620.0	1620.0	1620.0	1607.0	1607.0	1612.0	1612.0	1612.0	1653.0	1653.0	1638.0	1638.0	1638.0	1627.0	1627.0	1648.0	1648.0	1648.0	1650.0	1650.0	1624.0	1624.0	1624.0	1668.0	1668.0	1678.0	1678.0	1678.0	1631.0	1631.0	1667.0	1667.0	1667.0	1682.0	1682.0	1668.0	1668.0	1668.0	1713.0	1713.0	1731.0	1731.0	1731.0	1738.0	1738.0	1730.0	1730.0	1730.0	1775.0	1775.0	1755.0	1755.0	1755.0	1825.0	1825.0	1799.0	1799.0	1799.0	1832.0	1832.0	1899.0	1899.0	1899.0	1879.0	1879.0	1953.0	1953.0	1925.0	1925.0	1925.0	1949.0	1949.0	2043.0	2043.0	2043.0	2040.0	2040.0	2057.0	2057.0	2057.0	2113.0	2113.0	2159.0	2159.0	2159.0	2172.0	2172.0	2194.0	2194.0	2194.0	2245.0	2245.0	2256.0	2256.0	2256.0	2243.0	2243.0	2318.0	2318.0	2318.0	2299.0	2299.0	2376.0	2376.0	2376.0	2414.0	2414.0	2450.0	2450.0	2450.0	2443.0	2443.0	2425.0	2425.0	2425.0	2500.0	2500.0	2465.0	2465.0	2465.0	2526.0	2526.0	2509.0	2509.0	2509.0	2524.0	2524.0	2601.0	2601.0	2601.0	2619.0	2619.0	2628.0	2628.0	2628.0	2636.0	2636.0	2618.0	2618.0	2618.0	2633.0	2633.0	2671.0	2671.0	2671.0	2647.0	2647.0	2636.0	2636.0	2636.0	2719.0	2719.0	2709.0	2709.0	2709.0	2658.0	2658.0	2735.0	2735.0	2735.0	2744.0	2744.0	2747.0	2747.0	2747.0	2673.0	2673.0	2679.0	2679.0	2679.0	2719.0	2719.0	2725.0	2725.0	2725.0	2734.0	2734.0	2684.0	2684.0	2684.0	2716.0	2716.0	2696.0	2696.0	2696.0	2727.0	2727.0	2699.0	2699.0	2699.0	2752.0	2752.0	2682.0	2682.0	2682.0	2732.0	2732.0	2762.0	2762.0	2762.0	2728.0	2728.0	2711.0	2711.0	2711.0	2688.0	2688.0	2686.0	2686.0	2686.0	2711.0	2711.0	2736.0	2736.0	2736.0	2701.0	2701.0	2718.0	2718.0	2718.0	2647.0	2647.0	2646.0	2646.0	2646.0	2658.0	2658.0	2644.0	2644.0	2644.0	2670.0	2670.0	2611.0	2611.0	2611.0	2690.0	2690.0	2598.0	2598.0	2598.0	2672.0	2672.0	2660.0	2660.0	2660.0	2615.0	2615.0	2592.0	2592.0	2592.0	2602.0	2602.0	2575.0	2575.0	2575.0	2547.0	2547.0	2556.0	2556.0	2556.0	2610.0	2610.0	2570.0	2570.0	2570.0	2593.0	2593.0	2576.0	2576.0	2544.0	2544.0	2544.0	2515.0	2515.0	2526.0	2526.0	2526.0	2546.0	2546.0	2538.0	2538.0	2538.0	2490.0	2490.0	2522.0	2522.0	2522.0	2467.0	2467.0	2430.0	2430.0	2430.0	2411.0	2411.0	2454.0	2454.0	2454.0	2388.0	2388.0	2427.0	2427.0	2427.0	2375.0	2375.0	2428.0	2428.0	2428.0	2411.0	2411.0	2392.0	2392.0	2392.0	2349.0	2349.0	2349.0	2349.0	2349.0	2371.0	2371.0	2283.0	2283.0	2283.0	2352.0	2352.0	2325.0	2325.0	2325.0	2268.0	2268.0	2241.0	2241.0	2241.0	2227.0	2227.0	2203.0	2203.0	2203.0	2190.0	2190.0	2177.0	2177.0	2177.0	2194.0	2194.0	2214.0	2214.0	2214.0	2145.0	2145.0	2154.0	2154.0	2154.0	2117.0	2117.0	2116.0	2116.0	2116.0	2171.0	2171.0	2084.0	2084.0	2084.0	2137.0	2137.0	2068.0	2068.0	2068.0	2065.0	2065.0	2106.0	2106.0	2106.0	2083.0	2083.0	2035.0	2035.0	2035.0	2095.0	2095.0	2089.0	2089.0	2089.0	2013.0	2013.0	2006.0	2006.0	2006.0	2056.0	2056.0	2001.0	2001.0	2001.0	1988.0	1988.0	1987.0	1987.0	1987.0	1999.0	1999.0	2048.0	2048.0	2048.0	2048.0	2048.0	1964.0	1964.0	1964.0	2016.0	2016.0	1976.0	1976.0	1976.0	1955.0	1955.0	2012.0	2012.0	2012.0	1987.0	1987.0	1996.0	1996.0	1996.0	2004.0	2004.0	1958.0	1958.0	1958.0	1980.0	1980.0	1957.0	1957.0	1957.0	1993.0	1993.0	1959.0	1959.0	1959.0	1964.0	1964.0	1991.0	1991.0	1991.0	1977.0	1977.0	1910.0	1910.0	1910.0	1909.0	1909.0	1905.0	1905.0	1905.0	1895.0	1895.0	1921.0	1921.0	1921.0	1963.0	1963.0	1939.0	1939.0	1939.0	1957.0	1957.0	1958.0	1958.0	1958.0	1880.0	1880.0	1882.0	1882.0	1882.0	1934.0	1934.0	1922.0	1922.0	1943.0	1943.0	1943.0	1893.0	1893.0	1871.0	1871.0	1871.0	1868.0	1868.0	1927.0	1927.0	1927.0	1910.0	1910.0	1863.0	1863.0	1863.0	1899.0	1899.0	1889.0	1889.0	1889.0	1853.0	1853.0	1916.0	1916.0	1916.0	1851.0	1851.0	1864.0	1864.0	1864.0	1898.0	1898.0	1896.0	1896.0	1896.0	1903.0	1903.0	1832.0	1832.0	1832.0	1896.0	1896.0	1855.0	1855.0	1855.0	1812.0	1812.0	1846.0	1846.0	1846.0	1849.0	1849.0	1881.0	1881.0	1881.0	1823.0	1823.0	1821.0	1821.0	1821.0	1843.0	1843.0	1796.0	1796.0	1796.0	1853.0	1853.0	1842.0	1842.0	1842.0	1790.0	1790.0	1790.0	1790.0	1790.0	1851.0	1851.0	1822.0	1822.0	