1949.0	1949.0	1967.0	1967.0	1967.0	1931.0	1931.0	1962.0	1962.0	1962.0	1963.0	1963.0	1935.0	1935.0	1935.0	1927.0	1927.0	1940.0	1940.0	1940.0	1911.0	1911.0	1936.0	1936.0	1936.0	1905.0	1905.0	1917.0	1917.0	1917.0	1913.0	1913.0	1924.0	1924.0	1924.0	1887.0	1887.0	1915.0	1915.0	1915.0	1886.0	1886.0	1909.0	1909.0	1909.0	1883.0	1883.0	1908.0	1908.0	1908.0	1885.0	1885.0	1863.0	1863.0	1863.0	1865.0	1865.0	1859.0	1859.0	1859.0	1863.0	1863.0	1867.0	1867.0	1867.0	1873.0	1873.0	1865.0	1865.0	1881.0	1881.0	1881.0	1849.0	1849.0	1887.0	1887.0	1887.0	1873.0	1873.0	1867.0	1867.0	1867.0	1872.0	1872.0	1871.0	1871.0	1871.0	1833.0	1833.0	1843.0	1843.0	1843.0	1850.0	1850.0	1849.0	1849.0	1849.0	1849.0	1849.0	1827.0	1827.0	1827.0	1847.0	1847.0	1839.0	1839.0	1839.0	1820.0	1820.0	1848.0	1848.0	1848.0	1856.0	1856.0	1832.0	1832.0	1832.0	1833.0	1833.0	1833.0	1833.0	1833.0	1819.0	1819.0	1815.0	1815.0	1815.0	1806.0	1806.0	1815.0	1815.0	1815.0	1800.0	1800.0	1826.0	1826.0	1826.0	1794.0	1794.0	1838.0	1838.0	1838.0	1837.0	1837.0	1823.0	1823.0	1823.0	1831.0	1831.0	1811.0	1811.0	1811.0	1818.0	1818.0	1849.0	1849.0	1849.0	1821.0	1821.0	1806.0	1806.0	1806.0	1800.0	1800.0	1802.0	1802.0	1802.0	1827.0	1827.0	1845.0	1845.0	1845.0	1831.0	1831.0	1821.0	1821.0	1821.0	1792.0	1792.0	1795.0	1795.0	1795.0	1799.0	1799.0	1823.0	1823.0	1823.0	1830.0	1830.0	1804.0	1804.0	1804.0	1807.0	1807.0	1787.0	1787.0	1787.0	1805.0	1805.0	1844.0	1844.0	1844.0	1829.0	1829.0	1840.0	1840.0	1840.0	1808.0	1808.0	1790.0	1790.0	1790.0	1805.0	1805.0	1821.0	1821.0	1821.0	1809.0	1809.0	1802.0	1802.0	1802.0	1833.0	1833.0	1798.0	1798.0	1798.0	1825.0	1825.0	1811.0	1811.0	1811.0	1801.0	1801.0	1824.0	1824.0	1824.0	1826.0	1826.0	1812.0	1812.0	1812.0	1831.0	1831.0	1820.0	1820.0	1820.0	1776.0	1776.0	1802.0	1802.0	1802.0	1790.0	1790.0	1816.0	1816.0	1816.0	1795.0	1795.0	1810.0	1810.0	1810.0	1806.0	1806.0	1776.0	1776.0	1776.0	1821.0	1821.0	1772.0	1772.0	1796.0	1796.0	1796.0	1800.0	1800.0	1810.0	1810.0	1810.0	1773.0	1773.0	1798.0	1798.0	1798.0	1787.0	1787.0	1808.0	1808.0	1808.0	1782.0	1782.0	1788.0	1788.0	1788.0	1804.0	1804.0	1813.0	1813.0	1813.0	1771.0	1771.0	1784.0	1784.0	1784.0	1764.0	1764.0	1799.0	1799.0	1799.0	1800.0	1800.0	1791.0	1791.0	1791.0	1805.0	1805.0	1805.0	1805.0	1805.0	1757.0	1757.0	1769.0	1769.0	1769.0	1756.0	1756.0	1781.0	1781.0	1781.0	1791.0	1791.0	1797.0	1797.0	1797.0	1804.0	1804.0	1791.0	1791.0	1791.0	1776.0	1776.0	1782.0	1782.0	1782.0	1790.0	1790.0	1775.0	1775.0	1775.0	1814.0	1814.0	1799.0	1799.0	1799.0	1809.0	1809.0	1804.0	1804.0	1804.0	1776.0	1776.0	1805.0	1805.0	1805.0	1804.0	1804.0	1809.0	1809.0	1809.0	1854.0	1854.0	1827.0	1827.0	1827.0	1867.0	1867.0	1854.0	1854.0	1854.0	1890.0	1890.0	1884.0	1884.0	1884.0	1895.0	1895.0	1883.0	1883.0	1883.0	1941.0	1941.0	1955.0	1955.0	1955.0	1939.0	1939.0	1978.0	1978.0	1978.0	1994.0	1994.0	1993.0	1993.0	1993.0	2028.0	2028.0	2032.0	2032.0	2032.0	2092.0	2092.0	2055.0	2055.0	2055.0	2087.0	2087.0	2130.0	2130.0	2130.0	2134.0	2134.0	2143.0	2143.0	2143.0	2166.0	2166.0	2170.0	2170.0	2170.0	2201.0	2201.0	2211.0	2211.0	2211.0	2214.0	2214.0	2239.0	2239.0	2239.0	2245.0	2245.0	2252.0	2252.0	2252.0	2277.0	2277.0	2291.0	2291.0	2291.0	2284.0	2284.0	2307.0	2307.0	2307.0	2298.0	2298.0	2331.0	2331.0	2331.0	2324.0	2324.0	2313.0	2313.0	2313.0	2348.0	2348.0	2336.0	2336.0	2336.0	2366.0	2366.0	2359.0	2359.0	2359.0	2372.0	2372.0	2359.0	2359.0	2367.0	2367.0	2367.0	2376.0	2376.0	2377.0	2377.0	2377.0	2366.0	2366.0	2374.0	2374.0	2374.0	2382.0	2382.0	2375.0	2375.0	2375.0	2401.0	2401.0	2385.0	2385.0	2385.0	2400.0	2400.0	2395.0	2395.0	2395.0	2369.0	2369.0	2390.0	2390.0	2390.0	2403.0	2403.0	2414.0	2414.0	2414.0	2369.0	2369.0	2382.0	2382.0	2382.0	2389.0	2389.0	2390.0	2390.0	2390.0	2363.0	2363.0	2378.0	2378.0	2378.0	2392.0	2392.0	2361.0	2361.0	2361.0	2370.0	2370.0	2370.0	2370.0	2370.0	2351.0	2351.0	2375.0	2375.0	2375.0	2351.0	2351.0	2353.0	2353.0	2353.0	2338.0	2338.0	2360.0	2360.0	2360.0	2355.0	2355.0	2340.0	2340.0	2340.0	2352.0	2352.0	2344.0	2344.0	2344.0	2328.0	2328.0	2312.0	2312.0	2312.0	2315.0	2315.0	2323.0	2323.0	2323.0	2304.0	2304.0	2305.0	2305.0	2305.0	2300.0	2300.0	2304.0	2304.0	2304.0	2303.0	2303.0	2275.0	2275.0	2275.0	2276.0	2276.0	2297.0	2297.0	2297.0	2268.0	2268.0	2285.0	2285.0	2285.0	2284.0	2284.0	2234.0	2234.0	2234.0	2260.0	2260.0	2260.0	2260.0	2260.0	2245.0	2245.0	2218.0	2218.0	2218.0	2230.0	2230.0	2242.0	2242.0	2242.0	2218.0	2218.0	2195.0	2195.0	2195.0	2179.0	2179.0	2162.0	2162.0	2162.0	2178.0	2178.0	2147.0	2147.0	2147.0	2153.0	2153.0	2137.0	2137.0	2137.0	2144.0	2144.0	2109.0	2109.0	2109.0	2141.0	2141.0	2122.0	2122.0	2122.0	2111.0	2111.0	2123.0	2123.0	2123.0	2105.0	2105.0	2099.0	2099.0	2099.0	2068.0	2068.0	2075.0	2075.0	2075.0	2057.0	2057.0	2052.0	2052.0	2052.0	2079.0	2079.0	2049.0	2049.0	2049.0	2070.0	2070.0	2058.0	2058.0	2048.0	2048.0	2048.0	2043.0	2043.0	2040.0	2040.0	2040.0	2058.0	2058.0	2056.0	2056.0	2056.0	2038.0	2038.0	2027.0	2027.0	2027.0	2023.0	2023.0	2033.0	2033.0	2033.0	2035.0	2035.0	2021.0	2021.0	2021.0	2020.0	2020.0	2001.0	2001.0	2001.0	2008.0	2008.0	2046.0	2046.0	2046.0	1996.0	1996.0	1994.0	1994.0	1994.0	2024.0	2024.0	2002.0	2002.0	2002.0	2023.0	2023.0	2026.0	2026.0	2026.0	2039.0	2039.0	1998.0	1998.0	1998.0	2004.0	2004.0	2017.0	2017.0	2017.0	2008.0	2008.0	2026.0	2026.0	2026.0	2013.0	2013.0	1991.0	1991.0	1991.0	2033.0	2033.0	1987.0	1987.0	1987.0	2029.0	2029.0	2003.0	2003.0	2003.0	2011.0	2011.0	2034.0	2034.0	2034.0	2027.0	2027.0	1997.0	1997.0	1997.0	2016.0	2016.0	2003.0	2003.0	2003.0	1994.0	1994.0	2010.0	2010.0	2010.0	2025.0	2025.0	1996.0	1996.0	1996.0	1981.0	1981.0	2008.0	2008.0	2008.0	1980.0	1980.0	2006.0	2006.0	2006.0	2004.0	2004.0	1986.0	1986.0	1986.0	1971.0	1971.0	1998.0	1998.0	1998.0	1992.0	1992.0	1955.0	1955.0	1955.0	1957.0	1957.0	1962.0	1962.0	1962.0	1967.0	1967.0	1970.0	1970.0	1970.0	1969.0	1969.0	1970.0	1970.0	1970.0	1968.0	1968.0	1959.0	1959.0	1959.0	1948.0	1948.0	1975.0	1975.0	1975.0	1977.0	1977.0	1950.0	1950.0	1950.0	1959.0	1959.0	1973.0	1973.0	1973.0	1960.0	1960.0	1937.0	1937.0	1937.0	1948.0	1948.0	1952.0	1952.0	1952.0	1954.0	1954.0	1907.0	1907.0	1907.0	1958.0	1958.0	1919.0	1919.0	1919.0	1922.0	1922.0	1915.0	1915.0	1915.0	1923.0	1923.0	1939.0	1939.0	1939.0	1921.0	1921.0	1935.0	1935.0	1917.0	1917.0	1917.0	1937.0	1937.0	1906.0	1906.0	1906.0	1900.0	1900.0	1930.0	1930.0	1930.0	1917.0	1917.0	1928.0	1928.0	1928.0	1882.0	1882.0	1892.0	1892.0	1892.0	1889.0	1889.0	1895.0	1895.0	1895.0	1907.0	1907.0	1872.0	1872.0	1872.0	1899.0	1899.0	1888.0	1888.0	1888.0	1863.0	1863.0	1883.0	1883.0	1883.0	1907.0	1907.0	1907.0	1907.0	1907.0	1882.0	1882.0	1898.0	1898.0	1898.0	1892.0	1892.0	1865.0	1865.0	1865.0	1888.0	1888.0	1881.0	1881.0	1881.0	1877.0	1877.0	1880.0	1880.0	1880.0	1855.0	1855.0	1885.0	1885.0	1885.0	1856.0	1856.0	1885.0	1885.0	1885.0	1861.0	1861.0	1879.0	1879.0	1879.0	1859.0	1859.0	1874.0	1874.0	1874.0	1844.0	1844.0	1876.0	1876.0	1876.0	1867.0	1867.0	1858.0	1858.0	1858.0	1842.0	1842.0	1856.0	1856.0	1856.0	1858.0	1858.0	1849.0	1849.0	1849.0	1866.0	1866.0	1864.0	1864.0	1864.0	1830.0	1830.0	1846.0	1846.0	1846.0	1850.0	1850.0	1845.0	1845.0	1845.0	1861.0	1861.0	1865.0	1865.0	1865.0	1825.0	1825.0	1852.0	1852.0	1852.0	1852.0	1852.0	1854.0	1854.0	1854.0	1849.0	1849.0	1842.0	1842.0	1842.0	1849.0	1849.0	1863.0	1863.0	1863.0	1856.0	1856.0	1842.0	1842.0	1842.0	1815.0	1815.0	1823.0	1823.0	1823.0	1813.0	1813.0	1841.0	1841.0	1841.0	1836.0	1836.0	1832.0	1832.0	1832.0	1846.0	1846.0	1839.0	1839.0	1839.0	1859.0	1859.0	1821.0	1821.0	1821.0	1838.0	1838.0	1857.0	1857.0	1857.0	1839.0	1839.0	1846.0	1846.0	1846.0	1835.0	1835.0	1841.0	1841.0	1841.0	1824.0	1824.0	1838.0	1838.0	1838.0	1819.0	1819.0	1858.0	1858.0	1858.0	1834.0	1834.0	1853.0	1853.0	1858.0	1858.0	1858.0	1847.0	1847.0	1848.0	1848.0	1848.0	1817.0	1817.0	1844.0	1844.0	1844.0	1857.0	1857.0	1821.0	1821.0	1821.0	1837.0	1837.0	1840.0	1840.0	1840.0	1837.0	1837.0	1831.0	1831.0	1831.0	1800.0	1800.0	1808.0	1808.0	1808.0	1822.0	1822.0	1814.0	1814.0	1814.0	1820.0	1820.0	1820.0	1820.0	1820.0	1823.0	1823.0	1798.0	1798.0	1798.0	1834.0	1834.0	1807.0	1807.0	1807.0	1793.0	1793.0	1834.0	1834.0	1834.0	1820.0	1820.0	1808.0	1808.0	1808.0	1800.0	1800.0	1822.0	1822.0	1822.0	1825.0	1825.0	1815.0	1815.0	1815.0	1834.0	1834.0	1809.0	1809.0	1809.0	1799.0	1799.0	1807.0	1807.0	1807.0	1826.0	1826.0	1797.0	1797.0	1797.0	1783.0	1783.0	1810.0	1810.0	1810.0	1800.0	1800.0	1822.0	1822.0	1822.0	1804.0	1804.0	1811.0	1811.0	1811.0	1793.0	1793.0	1814.0	1814.0	1814.0	1800.0	1800.0	1836.0	1836.0	1836.0	1840.0	1840.0	1846.0	1846.0	1846.0	1827.0	1827.0	1842.0	1842.0	1842.0	1870.0	1870.0	1863.0	1863.0	1863.0	1870.0	1870.0	1880.0	1880.0	1880.0	1890.0	1890.0	1907.0	1907.0	1907.0	1922.0	1922.0	1944.0	1944.0	1944.0	1951.0	1951.0	1969.0	1969.0	1969.0	1961.0	1961.0	2007.0	2007.0	2007.0	2027.0	2027.0	2048.0	2048.0	2048.0	2056.0	2056.0	2094.0	2094.0	2094.0	2106.0	2106.0	2117.0	2117.0	2117.0	2113.0	2113.0	2141.0	2141.0	2141.0	2169.0	2169.0	2190.0	2190.0	2190.0	2187.0	2187.0	2205.0	2205.0	2205.0	2245.0	2245.0	2223.0	2223.0	2223.0	2236.0	2236.0	2265.0	2265.0	2265.0	2264.0	2264.0	2304.0	2304.0	2304.0	2276.0	2276.0	2315.0	2315.0	2327.0	2327.0	2327.0	2337.0	2337.0	2328.0	2328.0	2328.0	2340.0	2340.0	2375.0	2375.0	2375.0	2373.0	2373.0	2376.0	2376.0	2376.0	2391.0	2391.0	2397.0	2397.0	2397.0	2394.0	2394.0	2401.0	2401.0	2401.0	2384.0	2384.0	2425.0	2425.0	2425.0	2417.0	2417.0	2404.0	2404.0	2404.0	2441.0	2441.0	2431.0	2431.0	2431.0	2422.0	2422.0	2442.0	2442.0	2442.0	2424.0	2424.0	2428.0	2428.0	2428.0	2435.0	2435.0	2427.0	2427.0	2427.0	2448.0	2448.0	2449.0	2449.0	2449.0	2439.0	2439.0	2457.0	2457.0	2457.0	2424.0	2424.0	2448.0	2448.0	2448.0	2452.0	2452.0	2437.0	2437.0	2437.0	2427.0	2427.0	2414.0	2414.0	2414.0	2453.0	2453.0	2419.0	2419.0	2419.0	2429.0	2429.0	2431.0	2431.0	2431.0	2460.0	2460.0	2419.0	2419.0	2419.0	2411.0	2411.0	2404.0	2404.0	2404.0	2414.0	2414.0	2417.0	2417.0	2417.0	2411.0	2411.0	2396.0	2396.0	2396.0	2411.0	2411.0	2412.0	2412.0	2412.0	2401.0	2401.0	2412.0	2412.0	2412.0	2397.0	2397.0	2397.0	2397.0	2397.0	2402.0	2402.0	2377.0	2377.0	2377.0	2374.0	2374.0	2384.0	2384.0	2384.0	2379.0	2379.0	2361.0	2361.0	2361.0	2372.0	2372.0	2364.0	2364.0	2364.0	2335.0	2335.0	2350.0	2350.0	2350.0	2340.0	2340.0	2324.0	2324.0	2324.0	2340.0	2340.0	2328.0	2328.0	2328.0	2324.0	2324.0	2306.0	2306.0	2306.0	2293.0	2293.0	2293.0	2293.0	2293.0	2278.0	2278.0	2278.0	2278.0	2278.0	2284.0	2284.0	2278.0	2278.0	2278.0	2246.0	2246.0	2247.0	2247.0	2247.0	2222.0	2222.0	2234.0	2234.0	2234.0	2204.0	2204.0	2202.0	2202.0	2202.0	2186.0	2186.0	2205.0	2205.0	2205.0	2185.0	2185.0	2190.0	2190.0	2188.0	2188.0	2188.0	2159.0	2159.0	2172.0	2172.0	2172.0	2123.0	2123.0	2147.0	2147.0	2147.0	2131.0	2131.0	2128.0	2128.0	2128.0	2106.0	2106.0	2088.0	2088.0	2088.0	2117.0	2117.0	2094.0	2094.0	2094.0	2103.0	2103.0	2117.0	2117.0	2117.0	2106.0	2106.0	2099.0	2099.0	2099.0	2084.0	2084.0	2077.0	2077.0	2077.0	2052.0	2052.0	2064.0	2064.0	2064.0	2074.0	2074.0	2058.0	2058.0	2058.0	2064.0	2064.0	2079.0	2079.0	2079.0	2095.0	2095.0	2048.0	2048.0	2048.0	2047.0	2047.0	2076.0	2076.0	2076.0	2058.0	2058.0	2064.0	2064.0	2064.0	2037.0	2037.0	2062.0	2062.0	2062.0	2075.0	2075.0	2046.0	2046.0	2046.0	2056.0	2056.0	2048.0	2048.0	2048.0	2048.0	2048.0	2039.0	2039.0	2039.0	2038.0	2038.0	2055.0	2055.0	2055.0	2044.0	2044.0	2035.0	2035.0	2035.0	2019.0	2019.0	2030.0	2030.0	2030.0	2059.0	2059.0	2053.0	2053.0	2053.0	2060.0	2060.0	2049.0	2049.0	2049.0	2040.0	2040.0	2025.0	2025.0	2025.0	2031.0	2031.0	2030.0	2030.0	2030.0	2028.0	2028.0	2048.0	2048.0	2048.0	2038.0	2038.0	2040.0	2040.0	2040.0	2025.0	2025.0	2046.0	2046.0	2046.0	2016.0	2016.0	1999.0	1999.0	1999.0	1991.0	1991.0	2027.0	2027.0	2027.0	2015.0	2015.0	1994.0	1994.0	1994.0	1998.0	1998.0	1993.0	1993.0	1993.0	2008.0	2008.0	2019.0	2019.0	2019.0	1996.0	1996.0	2008.0	2008.0	2008.0	1965.0	1965.0	1985.0	1985.0	1985.0	1987.0	1987.0	1995.0	1995.0	1995.0	1996.0	1996.0	1964.0	1964.0	1964.0	1962.0	1962.0	1992.0	1992.0	1992.0	1960.0	1960.0	1936.0	1936.0	1936.0	1962.0	1962.0	1946.0	1946.0	1981.0	1981.0	1981.0	1943.0	1943.0	1981.0	1981.0	1981.0	1961.0	1961.0	1962.0	1962.0	1962.0	1946.0	1946.0	1918.0	1918.0	1918.0	1917.0	1917.0	1931.0	1931.0	1931.0	1934.0	1934.0	1941.0	1941.0	1941.0	1931.0	1931.0	1908.0	1908.0	1908.0	1920.0	1920.0	1934.0	1934.0	1934.0	1912.0	1912.0	1924.0	1924.0	1924.0	1889.0	1889.0	1917.0	1917.0	1917.0	1926.0	1926.0	1891.0	1891.0	1891.0	1903.0	1903.0	1916.0	1916.0	1916.0	1878.0	1878.0	1891.0	1891.0	1891.0	1868.0	1868.0	1882.0	1882.0	1882.0	1899.0	1899.0	1893.0	1893.0	1893.0	1889.0	1889.0	1878.0	1878.0	1878.0	1889.0	1889.0	1891.0	1891.0	1891.0	1891.0	1891.0	1886.0	1886.0	1886.0	1891.0	1891.0	1872.0	1872.0	1872.0	1884.0	1884.0	1884.0	1884.0	1884.0	1866.0	1866.0	1871.0	1871.0	1871.0	1885.0	1885.0	1874.0	1874.0	1874.0	1851.0	1851.0	1868.0	1868.0	1868.0	1873.0	1873.0	1846.0	1846.0	1846.0	1885.0	1885.0	1849.0	1849.0	1849.0	1874.0	1874.0	1841.0	1841.0	1841.0	1874.0	1874.0	1844.0	1844.0	1844.0	1863.0	1863.0	1846.0	1846.0	1846.0	1825.0	1825.0	1860.0	1860.0	1860.0	1868.0	1868.0	1833.0	1833.0	1833.0	1854.0	1854.0	1870.0	1870.0	1870.0	1837.0	1837.0	1839.0	1839.0	1839.0	1839.0	1839.0	1832.0	1832.0	1832.0	1846.0	1846.0	1816.0	1816.0	1816.0	1851.0	1851.0	1856.0	1856.0	1856.0	1827.0	1827.0	1834.0	1834.0	1834.0	1842.0	1842.0	1821.0	1821.0	1821.0	1833.0	1833.0	1821.0	1821.0	1821.0	1857.0	1857.0	1846.0	1846.0	1846.0	1831.0	1831.0	1852.0	1852.0	1852.0	1826.0	1826.0	1831.0	1831.0	1824.0	1824.0	1824.0	1819.0	1819.0	1858.0	1858.0	1858.0	1854.0	1854.0	1838.0	1838.0	1838.0	1807.0	1807.0	1835.0	1835.0	1835.0	1843.0	1843.0	1811.0	1811.0	1811.0	1811.0	1811.0	1843.0	1843.0	1843.0	1853.0	1853.0	1834.0	1834.0	1834.0	1834.0	1834.0	1844.0	1844.0	1844.0	1839.0	1839.0	1845.0	1845.0	1845.0	1847.0	1847.0	1847.0	1847.0	1847.0	1838.0	1838.0	1807.0	1807.0	1807.0	1823.0	1823.0	1823.0	1823.0	1823.0	1850.0	1850.0	1830.0	1830.0	1830.0	1837.0	1837.0	1806.0	1806.0	1806.0	1808.0	1808.0	1854.0	1854.0	1854.0	1815.0	1815.0	1831.0	1831.0	1831.0	1845.0	1845.0	1829.0	1829.0	1829.0	1836.0	1836.0	1818.0	1818.0	1818.0	1812.0	1812.0	1818.0	1818.0	1818.0	1820.0	1820.0	1833.0	1833.0	1833.0	1838.0	1838.0	1814.0	1814.0	1814.0	1827.0	1827.0	1808.0	1808.0	1808.0	1794.0	1794.0	1815.0	1815.0	1815.0	1806.0	1806.0	1805.0	1805.0	1805.0	1817.0	1817.0	1822.0	1822.0	1822.0	1811.0	1811.0	1823.0	1823.0	1823.0	1816.0	1816.0	1818.0	1818.0	1818.0	1804.0	1804.0	1815.0	1815.0	1815.0	1842.0	1842.0	1827.0	1827.0	1827.0	1824.0	1824.0	1830.0	1830.0	1830.0	1824.0	1824.0	1845.0	1845.0	1845.0	1824.0	1824.0	1809.0	1809.0	1809.0	1819.0	1819.0	1834.0	1834.0	1834.0	1831.0	1831.0	1850.0	1850.0	1850.0	1847.0	1847.0	1840.0	1840.0	1840.0	1867.0	1867.0	1881.0	1881.0	1881.0	1922.0	1922.0	1901.0	1901.0	1901.0	1920.0	1920.0	1926.0	1926.0	1926.0	1953.0	1953.0	1958.0	1958.0	1958.0	1975.0	1975.0	1989.0	1989.0	1989.0	