1728.0	1728.0	1728.0	1720.0	1720.0	1680.0	1680.0	1680.0	1699.0	1699.0	1728.0	1728.0	1728.0	1699.0	1699.0	1688.0	1688.0	1672.0	1672.0	1672.0	1678.0	1678.0	1704.0	1704.0	1704.0	1685.0	1685.0	1695.0	1695.0	1695.0	1659.0	1659.0	1680.0	1680.0	1680.0	1668.0	1668.0	1656.0	1656.0	1656.0	1718.0	1718.0	1689.0	1689.0	1689.0	1685.0	1685.0	1657.0	1657.0	1657.0	1688.0	1688.0	1671.0	1671.0	1671.0	1699.0	1699.0	1683.0	1683.0	1683.0	1656.0	1656.0	1688.0	1688.0	1688.0	1692.0	1692.0	1646.0	1646.0	1646.0	1629.0	1629.0	1681.0	1681.0	1681.0	1614.0	1614.0	1616.0	1616.0	1616.0	1631.0	1631.0	1630.0	1630.0	1630.0	1657.0	1657.0	1617.0	1617.0	1617.0	1615.0	1615.0	1652.0	1652.0	1652.0	1679.0	1679.0	1678.0	1678.0	1678.0	1619.0	1619.0	1667.0	1667.0	1667.0	1646.0	1646.0	1666.0	1666.0	1666.0	1639.0	1639.0	1644.0	1644.0	1644.0	1615.0	1615.0	1669.0	1669.0	1669.0	1610.0	1610.0	1614.0	1614.0	1614.0	1625.0	1625.0	1658.0	1658.0	1658.0	1626.0	1626.0	1626.0	1626.0	1626.0	1604.0	1604.0	1680.0	1680.0	1680.0	1677.0	1677.0	1622.0	1622.0	1622.0	1680.0	1680.0	1616.0	1616.0	1616.0	1672.0	1672.0	1618.0	1618.0	1618.0	1604.0	1604.0	1659.0	1659.0	1659.0	1669.0	1669.0	1655.0	1655.0	1655.0	1653.0	1653.0	1661.0	1661.0	1661.0	1612.0	1612.0	1595.0	1595.0	1595.0	1588.0	1588.0	1660.0	1660.0	1660.0	1618.0	1618.0	1589.0	1589.0	1589.0	1653.0	1653.0	1611.0	1611.0	1611.0	1589.0	1589.0	1610.0	1610.0	1610.0	1626.0	1626.0	1619.0	1619.0	1619.0	1588.0	1588.0	1584.0	1584.0	1584.0	1625.0	1625.0	1600.0	1600.0	1600.0	1578.0	1578.0	1651.0	1651.0	1651.0	1615.0	1615.0	1621.0	1621.0	1639.0	1639.0	1639.0	1653.0	1653.0	1622.0	1622.0	1622.0	1630.0	1630.0	1572.0	1572.0	1572.0	1600.0	1600.0	1610.0	1610.0	1610.0	1645.0	1645.0	1578.0	1578.0	1578.0	1592.0	1592.0	1644.0	1644.0	1644.0	1577.0	1577.0	1583.0	1583.0	1583.0	1590.0	1590.0	1643.0	1643.0	1643.0	1640.0	1640.0	1606.0	1606.0	1606.0	1612.0	1612.0	1621.0	1621.0	1621.0	1598.0	1598.0	1656.0	1656.0	1656.0	1587.0	1587.0	1596.0	1596.0	1596.0	1623.0	1623.0	1655.0	1655.0	1655.0	1679.0	1679.0	1650.0	1650.0	1650.0	1681.0	1681.0	1638.0	1638.0	1638.0	1679.0	1679.0	1669.0	1669.0	1669.0	1712.0	1712.0	1741.0	1741.0	1741.0	1751.0	1751.0	1754.0	1754.0	1754.0	1765.0	1765.0	1771.0	1771.0	1771.0	1800.0	1800.0	1814.0	1814.0	1814.0	1854.0	1854.0	1883.0	1883.0	1883.0	1907.0	1907.0	1940.0	1940.0	1940.0	1972.0	1972.0	1995.0	1995.0	1995.0	2065.0	2065.0	2074.0	2074.0	2074.0	2149.0	2149.0	2121.0	2121.0	2121.0	2164.0	2164.0	2237.0	2237.0	2237.0	2287.0	2287.0	2303.0	2303.0	2303.0	2353.0	2353.0	2375.0	2375.0	2375.0	2401.0	2401.0	2409.0	2409.0	2409.0	2400.0	2400.0	2458.0	2458.0	2458.0	2478.0	2478.0	2528.0	2528.0	2528.0	2526.0	2526.0	2593.0	2593.0	2593.0	2570.0	2570.0	2625.0	2625.0	2625.0	2618.0	2618.0	2689.0	2689.0	2689.0	2662.0	2662.0	2663.0	2663.0	2663.0	2712.0	2712.0	2708.0	2708.0	2708.0	2713.0	2713.0	2730.0	2730.0	2730.0	2738.0	2738.0	2762.0	2762.0	2762.0	2782.0	2782.0	2772.0	2772.0	2772.0	2845.0	2845.0	2820.0	2820.0	2820.0	2828.0	2828.0	2853.0	2853.0	2811.0	2811.0	2811.0	2853.0	2853.0	2886.0	2886.0	2886.0	2856.0	2856.0	2863.0	2863.0	2863.0	2879.0	2879.0	2878.0	2878.0	2878.0	2846.0	2846.0	2856.0	2856.0	2856.0	2858.0	2858.0	2894.0	2894.0	2894.0	2848.0	2848.0	2841.0	2841.0	2841.0	2905.0	2905.0	2847.0	2847.0	2847.0	2849.0	2849.0	2868.0	2868.0	2868.0	2845.0	2845.0	2845.0	2845.0	2845.0	2909.0	2909.0	2887.0	2887.0	2887.0	2824.0	2824.0	2872.0	2872.0	2872.0	2820.0	2820.0	2829.0	2829.0	2829.0	2848.0	2848.0	2795.0	2795.0	2795.0	2834.0	2834.0	2837.0	2837.0	2837.0	2776.0	2776.0	2838.0	2838.0	2838.0	2802.0	2802.0	2804.0	2804.0	2804.0	2766.0	2766.0	2744.0	2744.0	2744.0	2737.0	2737.0	2722.0	2722.0	2722.0	2771.0	2771.0	2693.0	2693.0	2693.0	2712.0	2712.0	2728.0	2728.0	2728.0	2667.0	2667.0	2703.0	2703.0	2703.0	2661.0	2661.0	2640.0	2640.0	2640.0	2630.0	2630.0	2659.0	2659.0	2659.0	2647.0	2647.0	2623.0	2623.0	2623.0	2565.0	2565.0	2605.0	2605.0	2605.0	2554.0	2554.0	2508.0	2508.0	2508.0	2513.0	2513.0	2480.0	2480.0	2480.0	2463.0	2463.0	2491.0	2491.0	2491.0	2493.0	2493.0	2471.0	2471.0	2471.0	2460.0	2460.0	2441.0	2441.0	2441.0	2388.0	2388.0	2397.0	2397.0	2397.0	2395.0	2395.0	2370.0	2370.0	2370.0	2372.0	2372.0	2347.0	2347.0	2347.0	2279.0	2279.0	2263.0	2263.0	2263.0	2331.0	2331.0	2293.0	2293.0	2293.0	2260.0	2260.0	2286.0	2286.0	2286.0	2214.0	2214.0	2259.0	2259.0	2259.0	2193.0	2193.0	2213.0	2213.0	2213.0	2214.0	2214.0	2203.0	2203.0	2203.0	2163.0	2163.0	2205.0	2205.0	2205.0	2207.0	2207.0	2175.0	2175.0	2156.0	2156.0	2156.0	2156.0	2156.0	2151.0	2151.0	2151.0	2115.0	2115.0	2105.0	2105.0	2105.0	2170.0	2170.0	2151.0	2151.0	2151.0	2145.0	2145.0	2116.0	2116.0	2116.0	2090.0	2090.0	2143.0	2143.0	2143.0	2121.0	2121.0	2088.0	2088.0	2088.0	2072.0	2072.0	2135.0	2135.0	2135.0	2132.0	2132.0	2070.0	2070.0	2070.0	2120.0	2120.0	2104.0	2104.0	2104.0	2087.0	2087.0	2119.0	2119.0	2119.0	2094.0	2094.0	2066.0	2066.0	2066.0	2077.0	2077.0	2104.0	2104.0	2104.0	2093.0	2093.0	2032.0	2032.0	2032.0	2029.0	2029.0	2023.0	2023.0	2023.0	2033.0	2033.0	2073.0	2073.0	2073.0	2044.0	2044.0	2007.0	2007.0	2007.0	2072.0	2072.0	2074.0	2074.0	2074.0	2065.0	2065.0	1994.0	1994.0	1994.0	2031.0	2031.0	2047.0	2047.0	2047.0	1999.0	1999.0	2050.0	2050.0	2050.0	2025.0	2025.0	1991.0	1991.0	1991.0	2028.0	2028.0	1986.0	1986.0	1986.0	2029.0	2029.0	2005.0	2005.0	2005.0	1957.0	1957.0	1979.0	1979.0	1979.0	1948.0	1948.0	2003.0	2003.0	2003.0	1932.0	1932.0	1929.0	1929.0	1929.0	1981.0	1981.0	1987.0	1987.0	1987.0	1953.0	1953.0	1912.0	1912.0	1912.0	1914.0	1914.0	1961.0	1961.0	1961.0	1888.0	1888.0	1948.0	1948.0	1948.0	1893.0	1893.0	1881.0	1881.0	1881.0	1907.0	1907.0	1924.0	1924.0	1924.0	1899.0	1899.0	1846.0	1846.0	1846.0	1900.0	1900.0	1893.0	1893.0	1893.0	1825.0	1825.0	1855.0	1855.0	1855.0	1883.0	1883.0	1854.0	1854.0	1854.0	1793.0	1793.0	1831.0	1831.0	1831.0	1843.0	1843.0	1828.0	1828.0	1828.0	1784.0	1784.0	1759.0	1759.0	1759.0	1750.0	1750.0	1744.0	1744.0	1725.0	1725.0	1725.0	1794.0	1794.0	1764.0	1764.0	1764.0	1763.0	1763.0	1711.0	1711.0	1711.0	1691.0	1691.0	1717.0	1717.0	1717.0	1732.0	1732.0	1715.0	1715.0	1715.0	1652.0	1652.0	1651.0	1651.0	1651.0	1631.0	1631.0	1630.0	1630.0	1630.0	1638.0	1638.0	1647.0	1647.0	1647.0	1612.0	1612.0	1653.0	1653.0	1653.0	1627.0	1627.0	1580.0	1580.0	1580.0	1620.0	1620.0	1630.0	1630.0	1630.0	1612.0	1612.0	1579.0	1579.0	1579.0	1588.0	1588.0	1544.0	1544.0	1544.0	1578.0	1578.0	1547.0	1547.0	1547.0	1598.0	1598.0	1587.0	1587.0	1587.0	1575.0	1575.0	1535.0	1535.0	1535.0	1542.0	1542.0	1584.0	1584.0	1584.0	1563.0	1563.0	1514.0	1514.0	1514.0	1512.0	1512.0	1557.0	1557.0	1557.0	1502.0	1502.0	1565.0	1565.0	1565.0	1547.0	1547.0	1527.0	1527.0	1527.0	1560.0	1560.0	1529.0	1529.0	1529.0	1484.0	1484.0	1487.0	1487.0	1487.0	1547.0	1547.0	1534.0	1534.0	1534.0	1545.0	1545.0	1527.0	1527.0	1527.0	1547.0	1547.0	1503.0	1503.0	1503.0	1479.0	1479.0	1484.0	1484.0	1484.0	1519.0	1519.0	1525.0	1525.0	1525.0	1523.0	1523.0	1516.0	1516.0	1516.0	1500.0	1500.0	1492.0	1492.0	1492.0	1473.0	1473.0	1521.0	1521.0	1521.0	1541.0	1541.0	1503.0	1503.0	1503.0	1539.0	1539.0	1507.0	1507.0	1507.0	1520.0	1520.0	1511.0	1511.0	1511.0	1511.0	1511.0	1539.0	1539.0	1539.0	1503.0	1503.0	1551.0	1551.0	1551.0	1515.0	1515.0	1515.0	1515.0	1515.0	1544.0	1544.0	1511.0	1511.0	1511.0	1505.0	1505.0	1543.0	1543.0	1543.0	1508.0	1508.0	1506.0	1506.0	1506.0	1564.0	1564.0	1571.0	1571.0	1499.0	1499.0	1499.0	1528.0	1528.0	1512.0	1512.0	1512.0	1541.0	1541.0	1553.0	1553.0	1553.0	1539.0	1539.0	1569.0	1569.0	1569.0	1519.0	1519.0	1574.0	1574.0	1574.0	1526.0	1526.0	1531.0	1531.0	1531.0	1572.0	1572.0	1528.0	1528.0	1528.0	1526.0	1526.0	1587.0	1587.0	1587.0	1565.0	1565.0	1518.0	1518.0	1518.0	1585.0	1585.0	1585.0	1585.0	1585.0	1540.0	1540.0	1504.0	1504.0	1504.0	1511.0	1511.0	1539.0	1539.0	1539.0	1509.0	1509.0	1501.0	1501.0	1501.0	1519.0	1519.0	1498.0	1498.0	1498.0	1559.0	1559.0	1568.0	1568.0	1568.0	1491.0	1491.0	1496.0	1496.0	1496.0	1490.0	1490.0	1555.0	1555.0	1555.0	1489.0	1489.0	1515.0	1515.0	1515.0	1508.0	1508.0	1487.0	1487.0	1487.0	1545.0	1545.0	1536.0	1536.0	1536.0	1510.0	1510.0	1528.0	1528.0	1528.0	1485.0	1485.0	1475.0	1475.0	1475.0	1534.0	1534.0	1523.0	1523.0	1523.0	1472.0	1472.0	1523.0	1523.0	1523.0	1535.0	1535.0	1493.0	1493.0	1493.0	1517.0	1517.0	1474.0	1474.0	1474.0	1489.0	1489.0	1461.0	1461.0	1461.0	1530.0	1530.0	1523.0	1523.0	1523.0	1493.0	1493.0	1475.0	1475.0	1475.0	1478.0	1478.0	1517.0	1517.0	1517.0	1496.0	1496.0	1540.0	1540.0	1540.0	1475.0	1475.0	1557.0	1557.0	1557.0	1560.0	1560.0	1507.0	1507.0	1507.0	1563.0	1563.0	1568.0	1568.0	1568.0	1532.0	1532.0	1583.0	1583.0	1583.0	1588.0	1588.0	1624.0	1624.0	1624.0	1647.0	1647.0	1664.0	1664.0	1664.0	1668.0	1668.0	1749.0	1749.0	1749.0	1710.0	1710.0	1770.0	1770.0	1770.0	1827.0	1827.0	1870.0	1870.0	1870.0	1891.0	1891.0	1861.0	1861.0	1861.0	1901.0	1901.0	1958.0	1958.0	2009.0	2009.0	2009.0	2009.0	2009.0	2095.0	2095.0	2095.0	2126.0	2126.0	2101.0	2101.0	2101.0	2194.0	2194.0	2233.0	2233.0	2233.0	2205.0	2205.0	2288.0	2288.0	2288.0	2270.0	2270.0	2306.0	2306.0	2306.0	2371.0	2371.0	2381.0	2381.0	2381.0	2423.0	2423.0	2419.0	2419.0	2419.0	2490.0	2490.0	2498.0	2498.0	2498.0	2510.0	2510.0	2533.0	2533.0	2533.0	2564.0	2564.0	2560.0	2560.0	2560.0	2574.0	2574.0	2605.0	2605.0	2605.0	2643.0	2643.0	2696.0	2696.0	2696.0	2663.0	2663.0	2665.0	2665.0	2665.0	2723.0	2723.0	2707.0	2707.0	2707.0	2751.0	2751.0	2723.0	2723.0	2723.0	2742.0	2742.0	2742.0	2742.0	2742.0	2792.0	2792.0	2828.0	2828.0	2828.0	2824.0	2824.0	2787.0	2787.0	2787.0	2802.0	2802.0	2835.0	2835.0	2835.0	2851.0	2851.0	2875.0	2875.0	2875.0	2875.0	2875.0	2823.0	2823.0	2823.0	2816.0	2816.0	2849.0	2849.0	2849.0	2893.0	2893.0	2831.0	2831.0	2831.0	2852.0	2852.0	2838.0	2838.0	2838.0	2875.0	2875.0	2880.0	2880.0	2880.0	2871.0	2871.0	2828.0	2828.0	2828.0	2883.0	2883.0	2863.0	2863.0	2863.0	2862.0	2862.0	2837.0	2837.0	2837.0	2860.0	2860.0	2833.0	2833.0	2833.0	2871.0	2871.0	2859.0	2859.0	2859.0	2872.0	2872.0	2806.0	2806.0	2806.0	2801.0	2801.0	2815.0	2815.0	2815.0	2839.0	2839.0	2816.0	2816.0	2816.0	2798.0	2798.0	2835.0	2835.0	2835.0	2843.0	2843.0	2789.0	2789.0	2789.0	2791.0	2791.0	2758.0	2758.0	2758.0	2825.0	2825.0	2783.0	2783.0	2783.0	2804.0	2804.0	2743.0	2743.0	2743.0	2723.0	2723.0	2746.0	2746.0	2746.0	2767.0	2767.0	2725.0	2725.0	2740.0	2740.0	2740.0	2726.0	2726.0	2683.0	2683.0	2683.0	2693.0	2693.0	2691.0	2691.0	2691.0	2685.0	2685.0	2657.0	2657.0	2657.0	2656.0	2656.0	2623.0	2623.0	2623.0	2643.0	2643.0	2615.0	2615.0	2615.0	2640.0	2640.0	2610.0	2610.0	2610.0	2565.0	2565.0	2541.0	2541.0	2541.0	2577.0	2577.0	2496.0	2496.0	2496.0	2496.0	2496.0	2484.0	2484.0	2484.0	2527.0	2527.0	2455.0	2455.0	2455.0	2468.0	2468.0	2484.0	2484.0	2484.0	2457.0	2457.0	2427.0	2427.0	2427.0	2418.0	2418.0	2432.0	2432.0	2432.0	2350.0	2350.0	2411.0	2411.0	2411.0	2378.0	2378.0	2390.0	2390.0	2390.0	2369.0	2369.0	2312.0	2312.0	2312.0	2304.0	2304.0	2331.0	2331.0	2331.0	2308.0	2308.0	2283.0	2283.0	2283.0	2251.0	2251.0	2252.0	2252.0	2252.0	2291.0	2291.0	2221.0	2221.0	2221.0	2208.0	2208.0	2258.0	2258.0	2258.0	2184.0	2184.0	2179.0	2179.0	2179.0	2223.0	2223.0	2181.0	2181.0	2181.0	2207.0	2207.0	2175.0	2175.0	2175.0	2174.0	2174.0	2146.0	2146.0	2146.0	2160.0	2160.0	2099.0	2099.0	2099.0	2099.0	2099.0	2113.0	2113.0	2113.0	2152.0	2152.0	2140.0	2140.0	2140.0	2155.0	2155.0	2167.0	2167.0	2167.0	2131.0	2131.0	2181.0	2181.0	2181.0	2168.0	2168.0	2190.0	2190.0	2190.0	2161.0	2161.0	2169.0	2169.0	2169.0	2156.0	2156.0	2142.0	2142.0	2142.0	2167.0	2167.0	2145.0	2145.0	2145.0	2182.0	2182.0	2200.0	2200.0	2200.0	2153.0	2153.0	2140.0	2140.0	2140.0	2138.0	2138.0	2126.0	2126.0	2126.0	2172.0	2172.0	2168.0	2168.0	2168.0	2144.0	2144.0	2120.0	2120.0	2120.0	2135.0	2135.0	2103.0	2103.0	2103.0	2087.0	2087.0	2084.0	2084.0	2137.0	2137.0	2137.0	2128.0	2128.0	2064.0	2064.0	2064.0	2116.0	2116.0	2106.0	2106.0	2106.0	2033.0	2033.0	2046.0	2046.0	2046.0	2081.0	2081.0	2053.0	2053.0	2053.0	2068.0	2068.0	1994.0	1994.0	1994.0	2053.0	2053.0	1985.0	1985.0	1985.0	1999.0	1999.0	2033.0	2033.0	2033.0	2025.0	2025.0	2016.0	2016.0	2016.0	1951.0	1951.0	1969.0	1969.0	1969.0	1993.0	1993.0	1957.0	1957.0	1957.0	1959.0	1959.0	1917.0	1917.0	1917.0	1909.0	1909.0	1917.0	1917.0	1917.0	1885.0	1885.0	1891.0	1891.0	1891.0	1889.0	1889.0	1870.0	1870.0	1870.0	1923.0	1923.0	1887.0	1887.0	1887.0	1920.0	1920.0	1901.0	1901.0	1901.0	1895.0	1895.0	1880.0	1880.0	1880.0	1861.0	1861.0	1858.0	1858.0	1858.0	1839.0	1839.0	1846.0	1846.0	1846.0	1875.0	1875.0	1826.0	1826.0	1826.0	1859.0	1859.0	1842.0	1842.0	1842.0	1801.0	1801.0	1797.0	1797.0	1797.0	1856.0	1856.0	1826.0	1826.0	1826.0	1837.0	1837.0	1808.0	1808.0	1808.0	1792.0	1792.0	1809.0	1809.0	1809.0	1865.0	1865.0	1790.0	1790.0	1790.0	1792.0	1792.0	1853.0	1853.0	1853.0	1819.0	1819.0	1790.0	1790.0	1790.0	1827.0	1827.0	1848.0	1848.0	1848.0	1815.0	1815.0	1832.0	1832.0	1832.0	1792.0	1792.0	1803.0	1803.0	1803.0	1787.0	1787.0	1853.0	1853.0	1853.0	1825.0	1825.0	1777.0	1777.0	1777.0	1790.0	1790.0	1807.0	1807.0	1807.0	1821.0	1821.0	1834.0	1834.0	1834.0	1815.0	1815.0	1822.0	1822.0	1822.0	1813.0	1813.0	1803.0	1803.0	1803.0	1790.0	1790.0	1810.0	1810.0	1810.0	1830.0	1830.0	1818.0	1818.0	1818.0	1756.0	1756.0	1757.0	1757.0	1800.0	1800.0	1800.0	1819.0	1819.0	1779.0	1779.0	1779.0	1755.0	1755.0	1827.0	1827.0	1827.0	1825.0	1825.0	1776.0	1776.0	1776.0	1752.0	1752.0	1822.0	1822.0	1822.0	1813.0	1813.0	1823.0	1823.0	1823.0	1763.0	1763.0	1768.0	1768.0	1768.0	1808.0	1808.0	1784.0	1784.0	1784.0	1779.0	1779.0	1776.0	1776.0	1776.0	1837.0	1837.0	1823.0	1823.0	1823.0	1831.0	1831.0	1831.0	1831.0	1831.0	1778.0	1778.0	1844.0	1844.0	1844.0	1814.0	1814.0	1785.0	1785.0	1785.0	1856.0	1856.0	1788.0	1788.0	1788.0	1808.0	1808.0	1801.0	1801.0	1801.0	1789.0	1789.0	1854.0	1854.0	1854.0	1849.0	1849.0	1835.0	1835.0	1835.0	1839.0	1839.0	1859.0	1859.0	1859.0	1856.0	1856.0	1793.0	1793.0	1793.0	1828.0	1828.0	1809.0	1809.0	1809.0	1841.0	1841.0	1858.0	1858.0	1858.0	1809.0	1809.0	1793.0	1793.0	1793.0	1837.0	1837.0	1795.0	1795.0	1795.0	1847.0	1847.0	1795.0	1795.0	1795.0	1796.0	1796.0	1824.0	1824.0	1824.0	1794.0	1794.0	1788.0	1788.0	1788.0	1822.0	1822.0	1817.0	1817.0	1817.0	1779.0	1779.0	1745.0	1745.0	1745.0	1773.0	1773.0	1784.0	1784.0	1784.0	1760.0	1760.0	1784.0	1784.0	1784.0	1752.0	1752.0	1763.0	1763.0	1763.0	1737.0	1737.0	1764.0	1764.0	1764.0	1695.0	1695.0	1677.0	1677.0	1677.0	1733.0	1733.0	1671.0	1671.0	1671.0	1685.0	1685.0	1664.0	1664.0	1664.0	1650.0	1650.0	1650.0	1650.0	1650.0	1671.0	1671.0	1659.0	1659.0	1659.0	1696.0	1696.0	1698.0	1698.0	1698.0	1670.0	1670.0	1671.0	1671.0	1671.0	1608.0	1608.0	1630.0	1630.0	1630.0	1622.0	1622.0	1628.0	1628.0	1609.0	1609.0	1609.0	1593.0	1593.0	1587.0	1587.0	1587.0	1585.0	1585.0	1651.0	1651.0	1651.0	1645.0	1645.0	1611.0	1611.0	1611.0	1653.0	1653.0	1630.0	1630.0	1630.0	1655.0	1655.0	1623.0	1623.0	1623.0	1654.0	1654.0	1696.0	1696.0	1696.0	1663.0	1663.0	1682.0	1682.0	1682.0	1756.0	1756.0	1788.0	1788.0	1788.0	1797.0	1797.0	1797.0	1797.0	1797.0	