1833.0	1833.0	1814.0	1814.0	1842.0	1842.0	1842.0	1807.0	1807.0	1832.0	1832.0	1832.0	1816.0	1816.0	1813.0	1813.0	1813.0	1823.0	1823.0	1819.0	1819.0	1819.0	1820.0	1820.0	1830.0	1830.0	1830.0	1808.0	1808.0	1823.0	1823.0	1823.0	1803.0	1803.0	1800.0	1800.0	1800.0	1793.0	1793.0	1791.0	1791.0	1791.0	1829.0	1829.0	1820.0	1820.0	1820.0	1815.0	1815.0	1832.0	1832.0	1832.0	1792.0	1792.0	1799.0	1799.0	1799.0	1845.0	1845.0	1855.0	1855.0	1855.0	1817.0	1817.0	1828.0	1828.0	1828.0	1857.0	1857.0	1836.0	1836.0	1836.0	1849.0	1849.0	1887.0	1887.0	1887.0	1865.0	1865.0	1882.0	1882.0	1882.0	1912.0	1912.0	1941.0	1941.0	1941.0	1933.0	1933.0	1970.0	1970.0	1970.0	1981.0	1981.0	2008.0	2008.0	2008.0	1993.0	1993.0	2038.0	2038.0	2055.0	2055.0	2055.0	2085.0	2085.0	2069.0	2069.0	2069.0	2081.0	2081.0	2131.0	2131.0	2131.0	2134.0	2134.0	2136.0	2136.0	2136.0	2174.0	2174.0	2190.0	2190.0	2190.0	2208.0	2208.0	2206.0	2206.0	2206.0	2247.0	2247.0	2255.0	2255.0	2255.0	2239.0	2239.0	2271.0	2271.0	2271.0	2315.0	2315.0	2310.0	2310.0	2310.0	2337.0	2337.0	2325.0	2325.0	2325.0	2350.0	2350.0	2349.0	2349.0	2349.0	2360.0	2360.0	2352.0	2352.0	2352.0	2372.0	2372.0	2396.0	2396.0	2396.0	2385.0	2385.0	2388.0	2388.0	2388.0	2420.0	2420.0	2419.0	2419.0	2419.0	2415.0	2415.0	2437.0	2437.0	2437.0	2416.0	2416.0	2449.0	2449.0	2449.0	2446.0	2446.0	2443.0	2443.0	2443.0	2473.0	2473.0	2459.0	2459.0	2459.0	2437.0	2437.0	2449.0	2449.0	2449.0	2432.0	2432.0	2466.0	2466.0	2466.0	2438.0	2438.0	2486.0	2486.0	2486.0	2435.0	2435.0	2438.0	2438.0	2438.0	2466.0	2466.0	2475.0	2475.0	2475.0	2451.0	2451.0	2465.0	2465.0	2465.0	2460.0	2460.0	2465.0	2465.0	2465.0	2454.0	2454.0	2464.0	2464.0	2464.0	2451.0	2451.0	2431.0	2431.0	2431.0	2448.0	2448.0	2438.0	2438.0	2438.0	2428.0	2428.0	2426.0	2426.0	2426.0	2429.0	2429.0	2427.0	2427.0	2427.0	2418.0	2418.0	2406.0	2406.0	2406.0	2416.0	2416.0	2417.0	2417.0	2417.0	2411.0	2411.0	2439.0	2439.0	2439.0	2407.0	2407.0	2396.0	2396.0	2396.0	2419.0	2419.0	2406.0	2406.0	2406.0	2409.0	2409.0	2421.0	2421.0	2421.0	2400.0	2400.0	2361.0	2361.0	2361.0	2363.0	2363.0	2393.0	2393.0	2393.0	2358.0	2358.0	2363.0	2363.0	2363.0	2355.0	2355.0	2365.0	2365.0	2333.0	2333.0	2333.0	2332.0	2332.0	2356.0	2356.0	2356.0	2345.0	2345.0	2331.0	2331.0	2331.0	2304.0	2304.0	2319.0	2319.0	2319.0	2294.0	2294.0	2298.0	2298.0	2298.0	2275.0	2275.0	2256.0	2256.0	2256.0	2266.0	2266.0	2286.0	2286.0	2286.0	2235.0	2235.0	2239.0	2239.0	2239.0	2227.0	2227.0	2223.0	2223.0	2223.0	2211.0	2211.0	2223.0	2223.0	2223.0	2188.0	2188.0	2216.0	2216.0	2216.0	2174.0	2174.0	2180.0	2180.0	2180.0	2179.0	2179.0	2176.0	2176.0	2176.0	2152.0	2152.0	2160.0	2160.0	2160.0	2110.0	2110.0	2126.0	2126.0	2126.0	2123.0	2123.0	2138.0	2138.0	2138.0	2134.0	2134.0	2096.0	2096.0	2096.0	2124.0	2124.0	2110.0	2110.0	2110.0	2115.0	2115.0	2080.0	2080.0	2080.0	2076.0	2076.0	2096.0	2096.0	2096.0	2103.0	2103.0	2087.0	2087.0	2087.0	2082.0	2082.0	2085.0	2085.0	2085.0	2090.0	2090.0	2063.0	2063.0	2063.0	2054.0	2054.0	2072.0	2072.0	2072.0	2069.0	2069.0	2070.0	2070.0	2070.0	2079.0	2079.0	2055.0	2055.0	2055.0	2055.0	2055.0	2045.0	2045.0	2045.0	2047.0	2047.0	2074.0	2074.0	2074.0	2043.0	2043.0	2071.0	2071.0	2071.0	2053.0	2053.0	2030.0	2030.0	2030.0	2059.0	2059.0	2060.0	2060.0	2060.0	2039.0	2039.0	2036.0	2036.0	2036.0	2066.0	2066.0	2060.0	2060.0	2060.0	2063.0	2063.0	2049.0	2049.0	2049.0	2034.0	2034.0	2056.0	2056.0	2056.0	2032.0	2032.0	2061.0	2061.0	2061.0	2033.0	2033.0	2029.0	2029.0	2029.0	2022.0	2022.0	2013.0	2013.0	2013.0	2012.0	2012.0	2019.0	2019.0	2019.0	2045.0	2045.0	2014.0	2014.0	2014.0	2052.0	2052.0	2010.0	2010.0	2021.0	2021.0	2021.0	2031.0	2031.0	2015.0	2015.0	2015.0	1997.0	1997.0	2012.0	2012.0	2012.0	1973.0	1973.0	2013.0	2013.0	2013.0	2008.0	2008.0	1997.0	1997.0	1997.0	1981.0	1981.0	1987.0	1987.0	1987.0	1978.0	1978.0	1967.0	1967.0	1967.0	1966.0	1966.0	1961.0	1961.0	1961.0	1987.0	1987.0	1974.0	1974.0	1974.0	1972.0	1972.0	1972.0	1972.0	1972.0	1951.0	1951.0	1970.0	1970.0	1970.0	1940.0	1940.0	1953.0	1953.0	1953.0	1960.0	1960.0	1970.0	1970.0	1970.0	1928.0	1928.0	1967.0	1967.0	1967.0	1935.0	1935.0	1938.0	1938.0	1938.0	1928.0	1928.0	1919.0	1919.0	1919.0	1952.0	1952.0	1918.0	1918.0	1918.0	1902.0	1902.0	1911.0	1911.0	1911.0	1910.0	1910.0	1929.0	1929.0	1929.0	1921.0	1921.0	1910.0	1910.0	1910.0	1896.0	1896.0	1902.0	1902.0	1902.0	1893.0	1893.0	1896.0	1896.0	1896.0	1896.0	1896.0	1904.0	1904.0	1904.0	1915.0	1915.0	1874.0	1874.0	1874.0	1907.0	1907.0	1898.0	1898.0	1898.0	1881.0	1881.0	1908.0	1908.0	1908.0	1877.0	1877.0	1881.0	1881.0	1881.0	1869.0	1869.0	1855.0	1855.0	1855.0	1865.0	1865.0	1884.0	1884.0	1884.0	1870.0	1870.0	1877.0	1877.0	1877.0	1874.0	1874.0	1897.0	1897.0	1897.0	1863.0	1863.0	1852.0	1852.0	1852.0	1876.0	1876.0	1844.0	1844.0	1844.0	1860.0	1860.0	1839.0	1839.0	1839.0	1860.0	1860.0	1844.0	1844.0	1844.0	1830.0	1830.0	1864.0	1864.0	1864.0	1859.0	1859.0	1863.0	1863.0	1863.0	1840.0	1840.0	1865.0	1865.0	1865.0	1825.0	1825.0	1851.0	1851.0	1851.0	1826.0	1826.0	1842.0	1842.0	1842.0	1823.0	1823.0	1830.0	1830.0	1830.0	1864.0	1864.0	1836.0	1836.0	1840.0	1840.0	1840.0	1822.0	1822.0	1843.0	1843.0	1843.0	1815.0	1815.0	1814.0	1814.0	1814.0	1829.0	1829.0	1854.0	1854.0	1854.0	1836.0	1836.0	1831.0	1831.0	1831.0	1813.0	1813.0	1845.0	1845.0	1845.0	1839.0	1839.0	1844.0	1844.0	1844.0	1836.0	1836.0	1848.0	1848.0	1848.0	1817.0	1817.0	1847.0	1847.0	1847.0	1853.0	1853.0	1832.0	1832.0	1832.0	1822.0	1822.0	1828.0	1828.0	1828.0	1838.0	1838.0	1858.0	1858.0	1858.0	1837.0	1837.0	1858.0	1858.0	1858.0	1843.0	1843.0	1839.0	1839.0	1839.0	1834.0	1834.0	1851.0	1851.0	1851.0	1821.0	1821.0	1836.0	1836.0	1836.0	1845.0	1845.0	1822.0	1822.0	1822.0	1813.0	1813.0	1820.0	1820.0	1820.0	1820.0	1820.0	1843.0	1843.0	1843.0	1840.0	1840.0	1821.0	1821.0	1821.0	1816.0	1816.0	1826.0	1826.0	1826.0	1840.0	1840.0	1846.0	1846.0	1846.0	1823.0	1823.0	1822.0	1822.0	1822.0	1851.0	1851.0	1852.0	1852.0	1852.0	1844.0	1844.0	1834.0	1834.0	1834.0	1827.0	1827.0	1840.0	1840.0	1840.0	1859.0	1859.0	1831.0	1831.0	1831.0	1820.0	1820.0	1811.0	1811.0	1811.0	1810.0	1810.0	1843.0	1843.0	1843.0	1854.0	1854.0	1834.0	1834.0	1834.0	1825.0	1825.0	1828.0	1828.0	1828.0	1841.0	1841.0	1848.0	1848.0	1848.0	1803.0	1803.0	1824.0	1824.0	1824.0	1813.0	1813.0	1818.0	1818.0	1818.0	1840.0	1840.0	1831.0	1831.0	1831.0	1847.0	1847.0	1804.0	1804.0	1804.0	1821.0	1821.0	1805.0	1805.0	1805.0	1807.0	1807.0	1841.0	1841.0	1841.0	1796.0	1796.0	1829.0	1829.0	1829.0	1826.0	1826.0	1839.0	1839.0	1839.0	1815.0	1815.0	1804.0	1804.0	1827.0	1827.0	1827.0	1831.0	1831.0	1800.0	1800.0	1800.0	1797.0	1797.0	1830.0	1830.0	1830.0	1802.0	1802.0	1832.0	1832.0	1832.0	1800.0	1800.0	1797.0	1797.0	1797.0	1806.0	1806.0	1805.0	1805.0	1805.0	1821.0	1821.0	1842.0	1842.0	1842.0	1843.0	1843.0	1825.0	1825.0	1825.0	1836.0	1836.0	1829.0	1829.0	1829.0	1849.0	1849.0	1869.0	1869.0	1869.0	1869.0	1869.0	1880.0	1880.0	1880.0	1896.0	1896.0	1929.0	1929.0	1929.0	1918.0	1918.0	1924.0	1924.0	1924.0	1939.0	1939.0	1957.0	1957.0	1957.0	1965.0	1965.0	1984.0	1984.0	1984.0	1987.0	1987.0	2014.0	2014.0	2014.0	2055.0	2055.0	2038.0	2038.0	2038.0	2059.0	2059.0	2084.0	2084.0	2084.0	2098.0	2098.0	2109.0	2109.0	2109.0	2143.0	2143.0	2156.0	2156.0	2156.0	2170.0	2170.0	2189.0	2189.0	2189.0	2215.0	2215.0	2236.0	2236.0	2236.0	2267.0	2267.0	2255.0	2255.0	2255.0	2301.0	2301.0	2298.0	2298.0	2298.0	2278.0	2278.0	2306.0	2306.0	2306.0	2337.0	2337.0	2349.0	2349.0	2349.0	2334.0	2334.0	2352.0	2352.0	2352.0	2375.0	2375.0	2353.0	2353.0	2353.0	2377.0	2377.0	2385.0	2385.0	2385.0	2401.0	2401.0	2425.0	2425.0	2425.0	2419.0	2419.0	2445.0	2445.0	2445.0	2430.0	2430.0	2409.0	2409.0	2409.0	2421.0	2421.0	2435.0	2435.0	2435.0	2433.0	2433.0	2462.0	2462.0	2462.0	2424.0	2424.0	2453.0	2453.0	2453.0	2457.0	2457.0	2461.0	2461.0	2461.0	2464.0	2464.0	2465.0	2465.0	2465.0	2440.0	2440.0	2434.0	2434.0	2434.0	2430.0	2430.0	2441.0	2441.0	2441.0	2439.0	2439.0	2446.0	2446.0	2446.0	2431.0	2431.0	2461.0	2461.0	2461.0	2454.0	2454.0	2431.0	2431.0	2452.0	2452.0	2452.0	2430.0	2430.0	2458.0	2458.0	2458.0	2452.0	2452.0	2421.0	2421.0	2421.0	2446.0	2446.0	2445.0	2445.0	2445.0	2437.0	2437.0	2411.0	2411.0	2411.0	2408.0	2408.0	2404.0	2404.0	2404.0	2431.0	2431.0	2407.0	2407.0	2407.0	2401.0	2401.0	2386.0	2386.0	2386.0	2412.0	2412.0	2404.0	2404.0	2404.0	2415.0	2415.0	2379.0	2379.0	2379.0	2376.0	2376.0	2381.0	2381.0	2381.0	2377.0	2377.0	2387.0	2387.0	2387.0	2363.0	2363.0	2352.0	2352.0	2352.0	2363.0	2363.0	2359.0	2359.0	2359.0	2342.0	2342.0	2366.0	2366.0	2366.0	2344.0	2344.0	2322.0	2322.0	2322.0	2339.0	2339.0	2320.0	2320.0	2320.0	2338.0	2338.0	2326.0	2326.0	2326.0	2303.0	2303.0	2299.0	2299.0	2299.0	2288.0	2288.0	2276.0	2276.0	2276.0	2277.0	2277.0	2275.0	2275.0	2275.0	2252.0	2252.0	2231.0	2231.0	2231.0	2235.0	2235.0	2215.0	2215.0	2215.0	2228.0	2228.0	2191.0	2191.0	2191.0	2233.0	2233.0	2190.0	2190.0	2190.0	2209.0	2209.0	2211.0	2211.0	2211.0	2173.0	2173.0	2181.0	2181.0	2181.0	2174.0	2174.0	2156.0	2156.0	2156.0	2130.0	2130.0	2157.0	2157.0	2157.0	2130.0	2130.0	2117.0	2117.0	2117.0	2109.0	2109.0	2131.0	2131.0	2131.0	2118.0	2118.0	2107.0	2107.0	2107.0	2118.0	2118.0	2064.0	2064.0	2064.0	2104.0	2104.0	2075.0	2075.0	2075.0	2096.0	2096.0	2076.0	2076.0	2076.0	2087.0	2087.0	2074.0	2074.0	2074.0	2061.0	2061.0	2042.0	2042.0	2042.0	2040.0	2040.0	2057.0	2057.0	2057.0	2058.0	2058.0	2081.0	2081.0	2081.0	2068.0	2068.0	2052.0	2052.0	2052.0	2083.0	2083.0	2068.0	2068.0	2043.0	2043.0	2043.0	2069.0	2069.0	2049.0	2049.0	2049.0	2079.0	2079.0	2064.0	2064.0	2064.0	2049.0	2049.0	2050.0	2050.0	2050.0	2027.0	2027.0	2052.0	2052.0	2052.0	2046.0	2046.0	2049.0	2049.0	2049.0	2065.0	2065.0	2035.0	2035.0	2035.0	2033.0	2033.0	2055.0	2055.0	2055.0	2032.0	2032.0	2039.0	2039.0	2039.0	2020.0	2020.0	2021.0	2021.0	2021.0	2010.0	2010.0	2047.0	2047.0	2047.0	2043.0	2043.0	2017.0	2017.0	2017.0	2041.0	2041.0	2018.0	2018.0	2018.0	2017.0	2017.0	2018.0	2018.0	2018.0	2020.0	2020.0	2016.0	2016.0	2016.0	1998.0	1998.0	2005.0	2005.0	2005.0	1985.0	1985.0	1989.0	1989.0	1989.0	2023.0	2023.0	1980.0	1980.0	1980.0	1991.0	1991.0	1970.0	1970.0	1970.0	1977.0	1977.0	1979.0	1979.0	1979.0	2003.0	2003.0	1970.0	1970.0	1970.0	1965.0	1965.0	1958.0	1958.0	1958.0	1973.0	1973.0	1954.0	1954.0	1954.0	1943.0	1943.0	1951.0	1951.0	1951.0	1966.0	1966.0	1950.0	1950.0	1950.0	1983.0	1983.0	1938.0	1938.0	1938.0	1941.0	1941.0	1957.0	1957.0	1957.0	1932.0	1932.0	1933.0	1933.0	1933.0	1953.0	1953.0	1945.0	1945.0	1945.0	1933.0	1933.0	1911.0	1911.0	1911.0	1915.0	1915.0	1933.0	1933.0	1933.0	1936.0	1936.0	1902.0	1902.0	1902.0	1922.0	1922.0	1909.0	1909.0	1909.0	1901.0	1901.0	1885.0	1885.0	1885.0	1893.0	1893.0	1923.0	1923.0	1923.0	1921.0	1921.0	1893.0	1893.0	1893.0	1910.0	1910.0	1895.0	1895.0	1895.0	1884.0	1884.0	1890.0	1890.0	1890.0	1878.0	1878.0	1870.0	1870.0	1870.0	1876.0	1876.0	1896.0	1896.0	1896.0	1861.0	1861.0	1871.0	1871.0	1868.0	1868.0	1868.0	1876.0	1876.0	1885.0	1885.0	1885.0	1853.0	1853.0	1883.0	1883.0	1883.0	1871.0	1871.0	1879.0	1879.0	1879.0	1883.0	1883.0	1840.0	1840.0	1840.0	1856.0	1856.0	1859.0	1859.0	1859.0	1859.0	1859.0	1864.0	1864.0	1864.0	1871.0	1871.0	1843.0	1843.0	1843.0	1840.0	1840.0	1862.0	1862.0	1862.0	1839.0	1839.0	1839.0	1839.0	1839.0	1818.0	1818.0	1869.0	1869.0	1869.0	1836.0	1836.0	1848.0	1848.0	1848.0	1850.0	1850.0	1841.0	1841.0	1841.0	1837.0	1837.0	1849.0	1849.0	1849.0	1830.0	1830.0	1840.0	1840.0	1840.0	1828.0	1828.0	1828.0	1828.0	1828.0	1828.0	1828.0	1829.0	1829.0	1829.0	1818.0	1818.0	1813.0	1813.0	1813.0	1806.0	1806.0	1830.0	1830.0	1830.0	1817.0	1817.0	1843.0	1843.0	1843.0	1822.0	1822.0	1813.0	1813.0	1813.0	1831.0	1831.0	1836.0	1836.0	1836.0	1824.0	1824.0	1821.0	1821.0	1821.0	1855.0	1855.0	1813.0	1813.0	1813.0	1815.0	1815.0	1808.0	1808.0	1808.0	1824.0	1824.0	1815.0	1815.0	1815.0	1806.0	1806.0	1812.0	1812.0	1812.0	1825.0	1825.0	1796.0	1796.0	1796.0	1820.0	1820.0	1827.0	1827.0	1827.0	1830.0	1830.0	1845.0	1845.0	1845.0	1815.0	1815.0	1813.0	1813.0	1813.0	1812.0	1812.0	1831.0	1831.0	1831.0	1825.0	1825.0	1799.0	1799.0	1799.0	1821.0	1821.0	1817.0	1817.0	1817.0	1825.0	1825.0	1824.0	1824.0	1824.0	1834.0	1834.0	1840.0	1840.0	1840.0	1807.0	1807.0	1833.0	1833.0	1833.0	1794.0	1794.0	1820.0	1820.0	1820.0	1828.0	1828.0	1819.0	1819.0	1819.0	1804.0	1804.0	1807.0	1807.0	1807.0	1823.0	1823.0	1815.0	1815.0	1815.0	1829.0	1829.0	1829.0	1829.0	1813.0	1813.0	1813.0	1798.0	1798.0	1806.0	1806.0	1806.0	1787.0	1787.0	1832.0	1832.0	1832.0	1815.0	1815.0	1815.0	1815.0	1815.0	1810.0	1810.0	1807.0	1807.0	1807.0	1811.0	1811.0	1789.0	1789.0	1789.0	1802.0	1802.0	1814.0	1814.0	1814.0	1807.0	1807.0	1799.0	1799.0	1799.0	1790.0	1790.0	1791.0	1791.0	1791.0	1793.0	1793.0	1812.0	1812.0	1812.0	1792.0	1792.0	1817.0	1817.0	1817.0	1772.0	1772.0	1779.0	1779.0	1779.0	1786.0	1786.0	1795.0	1795.0	1795.0	1800.0	1800.0	1788.0	1788.0	1788.0	1777.0	1777.0	1782.0	1782.0	1782.0	1800.0	1800.0	1780.0	1780.0	1780.0	1776.0	1776.0	1774.0	1774.0	1774.0	1797.0	1797.0	1807.0	1807.0	1807.0	1778.0	1778.0	1789.0	1789.0	1789.0	1772.0	1772.0	1782.0	1782.0	1782.0	1805.0	1805.0	1786.0	1786.0	1786.0	1778.0	1778.0	1803.0	1803.0	1803.0	1821.0	1821.0	1841.0	1841.0	1841.0	1797.0	1797.0	1827.0	1827.0	1827.0	1843.0	1843.0	1832.0	1832.0	1832.0	1863.0	1863.0	1854.0	1854.0	1854.0	1895.0	1895.0	1874.0	1874.0	1874.0	1923.0	1923.0	1898.0	1898.0	1898.0	1924.0	1924.0	1930.0	1930.0	1930.0	1945.0	1945.0	1981.0	1981.0	1981.0	2013.0	2013.0	2037.0	2037.0	2037.0	2017.0	2017.0	2057.0	2057.0	2057.0	2047.0	2047.0	2091.0	2091.0	2091.0	2105.0	2105.0	2147.0	2147.0	2147.0	2141.0	2141.0	2147.0	2147.0	2147.0	2163.0	2163.0	2183.0	2183.0	2183.0	2198.0	2198.0	2206.0	2206.0	2206.0	2230.0	2230.0	2249.0	2249.0	2249.0	2254.0	2254.0	2270.0	2270.0	2270.0	2296.0	2296.0	2313.0	2313.0	2313.0	2308.0	2308.0	2313.0	2313.0	2310.0	2310.0	2310.0	2368.0	2368.0	2360.0	2360.0	2360.0	2342.0	2342.0	2363.0	2363.0	2363.0	2393.0	2393.0	2377.0	2377.0	2377.0	2390.0	2390.0	2411.0	2411.0	2411.0	2389.0	2389.0	2391.0	2391.0	2391.0	2391.0	2391.0	2415.0	2415.0	2415.0	2397.0	2397.0	2409.0	2409.0	2409.0	2411.0	2411.0	2441.0	2441.0	2441.0	2453.0	2453.0	2439.0	2439.0	2439.0	2398.0	2398.0	2430.0	2430.0	2430.0	2405.0	2405.0	2434.0	2434.0	2434.0	2405.0	2405.0	2431.0	2431.0	2431.0	2428.0	2428.0	2434.0	2434.0	2434.0	2411.0	2411.0	2406.0	2406.0	2406.0	2407.0	2407.0	2413.0	2413.0	2413.0	2407.0	2407.0	2412.0	2412.0	2412.0	2424.0	2424.0	2396.0	2396.0	2396.0	2391.0	2391.0	2413.0	2413.0	2413.0	2397.0	2397.0	2404.0	2404.0	2404.0	2370.0	2370.0	2383.0	2383.0	2383.0	2367.0	2367.0	2373.0	2373.0	2373.0	2386.0	2386.0	2361.0	2361.0	2361.0	2377.0	2377.0	2386.0	2386.0	2386.0	2341.0	2341.0	2355.0	2355.0	2355.0	2332.0	2332.0	2339.0	2339.0	2339.0	2329.0	2329.0	2360.0	2360.0	2360.0	2341.0	2341.0	2311.0	2311.0	2311.0	2336.0	2336.0	2350.0	2350.0	2350.0	2322.0	2322.0	2301.0	2301.0	2301.0	2291.0	2291.0	2306.0	2306.0	2306.0	2282.0	2282.0	2291.0	2291.0	2291.0	2268.0	2268.0	2265.0	2265.0	2265.0	2272.0	2272.0	2241.0	