1566.0	1566.0	1523.0	1523.0	1511.0	1511.0	1511.0	1471.0	1471.0	1479.0	1479.0	1479.0	1435.0	1435.0	1454.0	1454.0	1454.0	1432.0	1432.0	1429.0	1429.0	1429.0	1431.0	1431.0	1417.0	1417.0	1417.0	1414.0	1414.0	1443.0	1443.0	1443.0	1460.0	1460.0	1440.0	1440.0	1440.0	1428.0	1428.0	1444.0	1444.0	1444.0	1458.0	1458.0	1457.0	1457.0	1457.0	1436.0	1436.0	1449.0	1449.0	1449.0	1435.0	1435.0	1466.0	1466.0	1466.0	1458.0	1458.0	1453.0	1453.0	1453.0	1479.0	1479.0	1464.0	1464.0	1464.0	1453.0	1453.0	1496.0	1496.0	1496.0	1480.0	1480.0	1507.0	1507.0	1507.0	1485.0	1485.0	1491.0	1491.0	1502.0	1502.0	1502.0	1476.0	1476.0	1483.0	1483.0	1483.0	1504.0	1504.0	1521.0	1521.0	1521.0	1499.0	1499.0	1521.0	1521.0	1521.0	1518.0	1518.0	1507.0	1507.0	1507.0	1524.0	1524.0	1528.0	1528.0	1528.0	1528.0	1528.0	1540.0	1540.0	1540.0	1563.0	1563.0	1556.0	1556.0	1556.0	1565.0	1565.0	1573.0	1573.0	1573.0	1564.0	1564.0	1567.0	1567.0	1567.0	1568.0	1568.0	1601.0	1601.0	1601.0	1607.0	1607.0	1633.0	1633.0	1633.0	1647.0	1647.0	1650.0	1650.0	1650.0	1680.0	1680.0	1682.0	1682.0	1682.0	1716.0	1716.0	1687.0	1687.0	1687.0	1715.0	1715.0	1728.0	1728.0	1728.0	1749.0	1749.0	1760.0	1760.0	1760.0	1786.0	1786.0	1780.0	1780.0	1780.0	1828.0	1828.0	1841.0	1841.0	1841.0	1859.0	1859.0	1872.0	1872.0	1872.0	1899.0	1899.0	1899.0	1899.0	1899.0	1918.0	1918.0	1942.0	1942.0	1942.0	1936.0	1936.0	1960.0	1960.0	1960.0	1978.0	1978.0	1982.0	1982.0	1982.0	2013.0	2013.0	1984.0	1984.0	1984.0	2034.0	2034.0	2046.0	2046.0	2046.0	2025.0	2025.0	2038.0	2038.0	2038.0	2052.0	2052.0	2090.0	2090.0	2090.0	2090.0	2090.0	2090.0	2090.0	2090.0	2071.0	2071.0	2112.0	2112.0	2112.0	2093.0	2093.0	2133.0	2133.0	2133.0	2101.0	2101.0	2104.0	2104.0	2104.0	2093.0	2093.0	2106.0	2106.0	2106.0	2142.0	2142.0	2110.0	2110.0	2110.0	2130.0	2130.0	2103.0	2103.0	2103.0	2107.0	2107.0	2135.0	2135.0	2135.0	2116.0	2116.0	2124.0	2124.0	2124.0	2098.0	2098.0	2094.0	2094.0	2094.0	2106.0	2106.0	2082.0	2082.0	2082.0	2096.0	2096.0	2118.0	2118.0	2118.0	2093.0	2093.0	2095.0	2095.0	2107.0	2107.0	2107.0	2103.0	2103.0	2097.0	2097.0	2097.0	2090.0	2090.0	2118.0	2118.0	2118.0	2083.0	2083.0	2072.0	2072.0	2072.0	2094.0	2094.0	2079.0	2079.0	2079.0	2075.0	2075.0	2061.0	2061.0	2061.0	2078.0	2078.0	2062.0	2062.0	2062.0	2071.0	2071.0	2068.0	2068.0	2068.0	2053.0	2053.0	2048.0	2048.0	2048.0	2061.0	2061.0	2042.0	2042.0	2042.0	2039.0	2039.0	2037.0	2037.0	2037.0	2052.0	2052.0	2036.0	2036.0	2036.0	2024.0	2024.0	2048.0	2048.0	2048.0	2016.0	2016.0	2022.0	2022.0	2022.0	2024.0	2024.0	2020.0	2020.0	2020.0	2039.0	2039.0	2013.0	2013.0	2013.0	1996.0	1996.0	2000.0	2000.0	2000.0	1996.0	1996.0	1991.0	1991.0	1991.0	1981.0	1981.0	1983.0	1983.0	1983.0	1986.0	1986.0	1959.0	1959.0	1959.0	1973.0	1973.0	1983.0	1983.0	1983.0	1941.0	1941.0	1958.0	1958.0	1958.0	1978.0	1978.0	1941.0	1941.0	1941.0	1942.0	1942.0	1973.0	1973.0	1973.0	1934.0	1934.0	1928.0	1928.0	1928.0	1930.0	1930.0	1931.0	1931.0	1931.0	1901.0	1901.0	1909.0	1909.0	1909.0	1910.0	1910.0	1906.0	1906.0	1906.0	1909.0	1909.0	1903.0	1903.0	1903.0	1905.0	1905.0	1924.0	1924.0	1924.0	1896.0	1896.0	1931.0	1931.0	1931.0	1902.0	1902.0	1898.0	1898.0	1898.0	1900.0	1900.0	1911.0	1911.0	1911.0	1917.0	1917.0	1888.0	1888.0	1888.0	1880.0	1880.0	1880.0	1880.0	1880.0	1881.0	1881.0	1875.0	1875.0	1875.0	1894.0	1894.0	1880.0	1880.0	1880.0	1901.0	1901.0	1902.0	1902.0	1902.0	1895.0	1895.0	1881.0	1881.0	1881.0	1901.0	1901.0	1906.0	1906.0	1906.0	1878.0	1878.0	1894.0	1894.0	1894.0	1884.0	1884.0	1898.0	1898.0	1885.0	1885.0	1885.0	1886.0	1886.0	1897.0	1897.0	1897.0	1920.0	1920.0	1875.0	1875.0	1875.0	1879.0	1879.0	1884.0	1884.0	1884.0	1871.0	1871.0	1878.0	1878.0	1878.0	1918.0	1918.0	1889.0	1889.0	1889.0	1890.0	1890.0	1907.0	1907.0	1907.0	1893.0	1893.0	1879.0	1879.0	1879.0	1910.0	1910.0	1882.0	1882.0	1882.0	1867.0	1867.0	1893.0	1893.0	1893.0	1904.0	1904.0	1901.0	1901.0	1901.0	1892.0	1892.0	1913.0	1913.0	1913.0	1905.0	1905.0	1910.0	1910.0	1910.0	1892.0	1892.0	1894.0	1894.0	1894.0	1895.0	1895.0	1902.0	1902.0	1902.0	1900.0	1900.0	1876.0	1876.0	1876.0	1908.0	1908.0	1871.0	1871.0	1871.0	1876.0	1876.0	1883.0	1883.0	1883.0	1878.0	1878.0	1894.0	1894.0	1894.0	1867.0	1867.0	1891.0	1891.0	1891.0	1875.0	1875.0	1878.0	1878.0	1878.0	1900.0	1900.0	1876.0	1876.0	1876.0	1884.0	1884.0	1873.0	1873.0	1873.0	1868.0	1868.0	1878.0	1878.0	1878.0	1884.0	1884.0	1852.0	1852.0	1852.0	1889.0	1889.0	1874.0	1874.0	1874.0	1847.0	1847.0	1867.0	1867.0	1867.0	1882.0	1882.0	1874.0	1874.0	1874.0	1862.0	1862.0	1886.0	1886.0	1886.0	1875.0	1875.0	1851.0	1851.0	1851.0	1846.0	1846.0	1864.0	1864.0	1864.0	1851.0	1851.0	1865.0	1865.0	1865.0	1864.0	1864.0	1872.0	1872.0	1872.0	1883.0	1883.0	1851.0	1851.0	1851.0	1856.0	1856.0	1851.0	1851.0	1851.0	1848.0	1848.0	1831.0	1831.0	1831.0	1850.0	1850.0	1851.0	1851.0	1851.0	1862.0	1862.0	1870.0	1870.0	1870.0	1865.0	1865.0	1868.0	1868.0	1868.0	1863.0	1863.0	1863.0	1863.0	1863.0	1843.0	1843.0	1851.0	1851.0	1847.0	1847.0	1847.0	1850.0	1850.0	1852.0	1852.0	1852.0	1835.0	1835.0	1840.0	1840.0	1840.0	1868.0	1868.0	1829.0	1829.0	1829.0	1849.0	1849.0	1850.0	1850.0	1850.0	1825.0	1825.0	1847.0	1847.0	1847.0	1856.0	1856.0	1859.0	1859.0	1859.0	1839.0	1839.0	1836.0	1836.0	1836.0	1829.0	1829.0	1859.0	1859.0	1859.0	1855.0	1855.0	1847.0	1847.0	1847.0	1824.0	1824.0	1847.0	1847.0	1847.0	1835.0	1835.0	1853.0	1853.0	1853.0	1859.0	1859.0	1855.0	1855.0	1855.0	1843.0	1843.0	1826.0	1826.0	1826.0	1826.0	1826.0	1836.0	1836.0	1836.0	1820.0	1820.0	1821.0	1821.0	1821.0	1838.0	1838.0	1846.0	1846.0	1846.0	1830.0	1830.0	1826.0	1826.0	1826.0	1851.0	1851.0	1811.0	1811.0	1811.0	1848.0	1848.0	1826.0	1826.0	1826.0	1861.0	1861.0	1819.0	1819.0	1819.0	1837.0	1837.0	1832.0	1832.0	1832.0	1833.0	1833.0	1859.0	1859.0	1859.0	1838.0	1838.0	1825.0	1825.0	1825.0	1820.0	1820.0	1837.0	1837.0	1837.0	1838.0	1838.0	1834.0	1834.0	1834.0	1835.0	1835.0	1827.0	1827.0	1827.0	1845.0	1845.0	1818.0	1818.0	1818.0	1834.0	1834.0	1852.0	1852.0	1852.0	1862.0	1862.0	1816.0	1816.0	1816.0	1840.0	1840.0	1864.0	1864.0	1864.0	1830.0	1830.0	1822.0	1822.0	1822.0	1839.0	1839.0	1854.0	1854.0	1854.0	1840.0	1840.0	1851.0	1851.0	1851.0	1841.0	1841.0	1863.0	1863.0	1863.0	1843.0	1843.0	1848.0	1848.0	1848.0	1827.0	1827.0	1862.0	1862.0	1862.0	1838.0	1838.0	1830.0	1830.0	1830.0	1842.0	1842.0	1854.0	1854.0	1854.0	1851.0	1851.0	1864.0	1864.0	1864.0	1860.0	1860.0	1855.0	1855.0	1881.0	1881.0	1881.0	1872.0	1872.0	1891.0	1891.0	1891.0	1898.0	1898.0	1914.0	1914.0	1914.0	1925.0	1925.0	1947.0	1947.0	1947.0	1951.0	1951.0	1943.0	1943.0	1943.0	1983.0	1983.0	1988.0	1988.0	1988.0	1988.0	1988.0	2026.0	2026.0	2026.0	2023.0	2023.0	2047.0	2047.0	2047.0	2043.0	2043.0	2060.0	2060.0	2060.0	2072.0	2072.0	2072.0	2072.0	2072.0	2107.0	2107.0	2131.0	2131.0	2131.0	2143.0	2143.0	2145.0	2145.0	2145.0	2162.0	2162.0	2187.0	2187.0	2187.0	2202.0	2202.0	2205.0	2205.0	2205.0	2224.0	2224.0	2217.0	2217.0	2217.0	2231.0	2231.0	2223.0	2223.0	2223.0	2246.0	2246.0	2242.0	2242.0	2242.0	2250.0	2250.0	2256.0	2256.0	2256.0	2265.0	2265.0	2277.0	2277.0	2277.0	2280.0	2280.0	2266.0	2266.0	2266.0	2286.0	2286.0	2276.0	2276.0	2276.0	2280.0	2280.0	2283.0	2283.0	2283.0	2279.0	2279.0	2280.0	2280.0	2280.0	2284.0	2284.0	2263.0	2263.0	2263.0	2288.0	2288.0	2285.0	2285.0	2285.0	2297.0	2297.0	2296.0	2296.0	2296.0	2278.0	2278.0	2274.0	2274.0	2274.0	2292.0	2292.0	2262.0	2262.0	2262.0	2265.0	2265.0	2274.0	2274.0	2274.0	2270.0	2270.0	2244.0	2244.0	2244.0	2263.0	2263.0	2231.0	2231.0	2231.0	2220.0	2220.0	2233.0	2233.0	2233.0	2231.0	2231.0	2235.0	2235.0	2235.0	2208.0	2208.0	2209.0	2209.0	2209.0	2225.0	2225.0	2206.0	2206.0	2206.0	2219.0	2219.0	2212.0	2212.0	2212.0	2183.0	2183.0	2183.0	2183.0	2183.0	2191.0	2191.0	2162.0	2162.0	2162.0	2193.0	2193.0	2196.0	2196.0	2196.0	2196.0	2196.0	2162.0	2162.0	2162.0	2157.0	2157.0	2166.0	2166.0	2166.0	2145.0	2145.0	2165.0	2165.0	2145.0	2145.0	2145.0	2152.0	2152.0	2139.0	2139.0	2139.0	2125.0	2125.0	2133.0	2133.0	2133.0	2120.0	2120.0	2142.0	2142.0	2142.0	2110.0	2110.0	2134.0	2134.0	2134.0	2112.0	2112.0	2097.0	2097.0	2097.0	2124.0	2124.0	2119.0	2119.0	2119.0	2099.0	2099.0	2074.0	2074.0	2074.0	2075.0	2075.0	2080.0	2080.0	2080.0	2073.0	2073.0	2071.0	2071.0	2071.0	2080.0	2080.0	2061.0	2061.0	2061.0	2044.0	2044.0	2035.0	2035.0	2035.0	2039.0	2039.0	2067.0	2067.0	2067.0	2011.0	2011.0	2033.0	2033.0	2033.0	2014.0	2014.0	2029.0	2029.0	2029.0	2006.0	2006.0	2014.0	2014.0	2014.0	2030.0	2030.0	2005.0	2005.0	2005.0	1995.0	1995.0	1980.0	1980.0	1980.0	2016.0	2016.0	1980.0	1980.0	1980.0	1991.0	1991.0	2018.0	2018.0	2018.0	2010.0	2010.0	1999.0	1999.0	1999.0	1982.0	1982.0	1978.0	1978.0	1978.0	1994.0	1994.0	1975.0	1975.0	1975.0	1977.0	1977.0	1974.0	1974.0	1974.0	1960.0	1960.0	1971.0	1971.0	1971.0	1985.0	1985.0	1988.0	1988.0	1988.0	1984.0	1984.0	1986.0	1986.0	1986.0	1995.0	1995.0	1981.0	1981.0	1981.0	1976.0	1976.0	1956.0	1956.0	1956.0	1963.0	1963.0	1961.0	1961.0	1961.0	1989.0	1989.0	1956.0	1956.0	1956.0	1968.0	1968.0	1963.0	1963.0	1963.0	1968.0	1968.0	1970.0	1970.0	1970.0	1968.0	1968.0	1977.0	1977.0	1977.0	1975.0	1975.0	1962.0	1962.0	1962.0	1976.0	1976.0	1965.0	1965.0	1965.0	1963.0	1963.0	1967.0	1967.0	1967.0	1968.0	1968.0	1943.0	1943.0	1943.0	1963.0	1963.0	1957.0	1957.0	1957.0	1948.0	1948.0	1967.0	1967.0	1967.0	1969.0	1969.0	1938.0	1938.0	1962.0	1962.0	1962.0	1944.0	1944.0	1959.0	1959.0	1959.0	1948.0	1948.0	1946.0	1946.0	1946.0	1959.0	1959.0	1944.0	1944.0	1944.0	1931.0	1931.0	1937.0	1937.0	1937.0	1951.0	1951.0	1942.0	1942.0	1942.0	1936.0	1936.0	1946.0	1946.0	1946.0	1938.0	1938.0	1938.0	1938.0	1938.0	1947.0	1947.0	1927.0	1927.0	1927.0	1934.0	1934.0	1945.0	1945.0	1945.0	1936.0	1936.0	1932.0	1932.0	1932.0	1904.0	1904.0	1951.0	1951.0	1951.0	1931.0	1931.0	1928.0	1928.0	1928.0	1943.0	1943.0	1946.0	1946.0	1946.0	1934.0	1934.0	1910.0	1910.0	1910.0	1924.0	1924.0	1924.0	1924.0	1924.0	1931.0	1931.0	1917.0	1917.0	1917.0	1926.0	1926.0	1920.0	1920.0	1920.0	1927.0	1927.0	1914.0	1914.0	1914.0	1919.0	1919.0	1916.0	1916.0	1916.0	1923.0	1923.0	1894.0	1894.0	1894.0	1908.0	1908.0	1889.0	1889.0	1889.0	1888.0	1888.0	1885.0	1885.0	1885.0	1894.0	1894.0	1902.0	1902.0	1902.0	1895.0	1895.0	1895.0	1895.0	1895.0	1876.0	1876.0	1897.0	1897.0	1897.0	1902.0	1902.0	1892.0	1892.0	1892.0	1878.0	1878.0	1909.0	1909.0	1909.0	1873.0	1873.0	1872.0	1872.0	1872.0	1892.0	1892.0	1900.0	1900.0	1900.0	1879.0	1879.0	1885.0	1885.0	1885.0	1895.0	1895.0	1875.0	1875.0	1875.0	1881.0	1881.0	1900.0	1900.0	1900.0	1882.0	1882.0	1893.0	1893.0	1893.0	1880.0	1880.0	1895.0	1895.0	1895.0	1884.0	1884.0	1883.0	1883.0	1883.0	1859.0	1859.0	1880.0	1880.0	1880.0	1851.0	1851.0	1877.0	1877.0	1877.0	1899.0	1899.0	1866.0	1866.0	1866.0	1864.0	1864.0	1866.0	1866.0	1866.0	1859.0	1859.0	1887.0	1887.0	1887.0	1879.0	1879.0	1880.0	1880.0	1868.0	1868.0	1868.0	1850.0	1850.0	1885.0	1885.0	1885.0	1883.0	1883.0	1873.0	1873.0	1873.0	1869.0	1869.0	1845.0	1845.0	1845.0	1888.0	1888.0	1876.0	1876.0	1876.0	1857.0	1857.0	1850.0	1850.0	1850.0	1881.0	1881.0	1875.0	1875.0	1875.0	1853.0	1853.0	1861.0	1861.0	1861.0	1848.0	1848.0	1867.0	1867.0	1867.0	1849.0	1849.0	1862.0	1862.0	1862.0	1853.0	1853.0	1890.0	1890.0	1890.0	1892.0	1892.0	1863.0	1863.0	1863.0	1881.0	1881.0	1868.0	1868.0	1868.0	1888.0	1888.0	1866.0	1866.0	1866.0	1848.0	1848.0	1888.0	1888.0	1888.0	1858.0	1858.0	1863.0	1863.0	1863.0	1866.0	1866.0	1852.0	1852.0	1852.0	1858.0	1858.0	1887.0	1887.0	1887.0	1882.0	1882.0	1840.0	1840.0	1840.0	1858.0	1858.0	1868.0	1868.0	1868.0	1881.0	1881.0	1846.0	1846.0	1846.0	1856.0	1856.0	1870.0	1870.0	1870.0	1847.0	1847.0	1864.0	1864.0	1864.0	1844.0	1844.0	1851.0	1851.0	1851.0	1876.0	1876.0	1864.0	1864.0	1864.0	1865.0	1865.0	1887.0	1887.0	1887.0	1860.0	1860.0	1840.0	1840.0	1840.0	1861.0	1861.0	1850.0	1850.0	1850.0	1850.0	1850.0	1867.0	1867.0	1867.0	1871.0	1871.0	1870.0	1870.0	1870.0	1903.0	1903.0	1876.0	1876.0	1876.0	1906.0	1906.0	1888.0	1888.0	1888.0	1894.0	1894.0	1910.0	1910.0	1910.0	1942.0	1942.0	1941.0	1941.0	1941.0	1971.0	1971.0	1958.0	1958.0	1958.0	1977.0	1977.0	1981.0	1981.0	1981.0	1995.0	1995.0	2010.0	2010.0	2010.0	2027.0	2027.0	2032.0	2032.0	2032.0	2067.0	2067.0	2085.0	2085.0	2085.0	2109.0	2109.0	2118.0	2118.0	2118.0	2123.0	2123.0	2126.0	2126.0	2145.0	2145.0	2145.0	2159.0	2159.0	2160.0	2160.0	2160.0	2184.0	2184.0	2191.0	2191.0	2191.0	2203.0	2203.0	2210.0	2210.0	2210.0	2229.0	2229.0	2244.0	2244.0	2244.0	2231.0	2231.0	2240.0	2240.0	2240.0	2252.0	2252.0	2251.0	2251.0	2251.0	2283.0	2283.0	2266.0	2266.0	2266.0	2285.0	2285.0	2288.0	2288.0	2288.0	2280.0	2280.0	2309.0	2309.0	2309.0	2283.0	2283.0	2301.0	2301.0	2301.0	2297.0	2297.0	2301.0	2301.0	2301.0	2323.0	2323.0	2311.0	2311.0	2311.0	2322.0	2322.0	2288.0	2288.0	2288.0	2287.0	2287.0	2289.0	2289.0	2289.0	2300.0	2300.0	2294.0	2294.0	2294.0	2293.0	2293.0	2305.0	2305.0	2305.0	2295.0	2295.0	2268.0	2268.0	2268.0	2280.0	2280.0	2298.0	2298.0	2298.0	2297.0	2297.0	2289.0	2289.0	2289.0	2279.0	2279.0	2268.0	2268.0	2268.0	2290.0	2290.0	2274.0	2274.0	2274.0	2281.0	2281.0	2248.0	2248.0	2248.0	2239.0	2239.0	2257.0	2257.0	2257.0	2248.0	2248.0	2244.0	2244.0	2244.0	2212.0	2212.0	2212.0	2212.0	2212.0	2230.0	2230.0	2221.0	2221.0	2221.0	2202.0	2202.0	2218.0	2218.0	2218.0	2215.0	2215.0	2201.0	2201.0	2201.0	2215.0	2215.0	2210.0	2210.0	2210.0	2174.0	2174.0	2189.0	2189.0	2189.0	2165.0	2165.0	2174.0	2174.0	2174.0	2185.0	2185.0	2164.0	2164.0	2164.0	2170.0	2170.0	2144.0	2144.0	2144.0	2126.0	2126.0	2155.0	2155.0	2155.0	2122.0	2122.0	2130.0	2130.0	2130.0	2113.0	2113.0	2148.0	2148.0	2148.0	2138.0	2138.0	2108.0	2108.0	2108.0	2107.0	2107.0	2120.0	2120.0	2120.0	2098.0	2098.0	2108.0	2108.0	2108.0	2110.0	2110.0	2097.0	2097.0	2079.0	2079.0	2079.0	2089.0	2089.0	2093.0	2093.0	2093.0	2070.0	2070.0	2089.0	2089.0	2089.0	2051.0	2051.0	2049.0	2049.0	2049.0	2040.0	2040.0	2059.0	2059.0	2059.0	2044.0	2044.0	2030.0	2030.0	2030.0	2037.0	2037.0	2015.0	2015.0	2015.0	2010.0	2010.0	2016.0	2016.0	2016.0	2005.0	2005.0	2004.0	2004.0	2004.0	2027.0	2027.0	2027.0	2027.0	2027.0	2008.0	2008.0	2028.0	2028.0	2028.0	1994.0	1994.0	2015.0	2015.0	2015.0	2023.0	2023.0	2020.0	2020.0	2020.0	1992.0	1992.0	1974.0	1974.0	1974.0	1983.0	1983.0	2010.0	2010.0	2010.0	1982.0	1982.0	1980.0	1980.0	1980.0	1995.0	1995.0	1988.0	1988.0	1988.0	1992.0	1992.0	2001.0	2001.0	2001.0	1964.0	1964.0	1974.0	1974.0	1974.0	1982.0	1982.0	1975.0	1975.0	1975.0	1989.0	1989.0	1971.0	1971.0	1971.0	1985.0	1985.0	1976.0	1976.0	1976.0	1968.0	1968.0	1990.0	1990.0	1990.0	1990.0	1990.0	1984.0	1984.0	1984.0	1984.0	1984.0	1965.0	1965.0	1965.0	1965.0	1965.0	1976.0	1976.0	1976.0	1978.0	1978.0	1970.0	1970.0	1970.0	1966.0	1966.0	1948.0	1948.0	1948.0	1968.0	1968.0	1977.0	1977.0	1977.0	1954.0	1954.0	1953.0	1953.0	1953.0	1968.0	1968.0	1980.0	1980.0	1980.0	1976.0	1976.0	1951.0	1951.0	1951.0	1932.0	1932.0	1972.0	1972.0	1972.0	1951.0	1951.0	1959.0	1959.0	1959.0	1981.0	1981.0	1947.0	1947.0	1947.0	1949.0	1949.0	1969.0	1969.0	1969.0	1940.0	1940.0	1961.0	1961.0	1961.0	1951.0	1951.0	1966.0	