1858.0	1858.0	1858.0	1880.0	1880.0	1861.0	1861.0	1861.0	1839.0	1839.0	1873.0	1873.0	1873.0	1837.0	1837.0	1849.0	1849.0	1849.0	1847.0	1847.0	1863.0	1863.0	1863.0	1868.0	1868.0	1853.0	1853.0	1853.0	1842.0	1842.0	1838.0	1838.0	1838.0	1841.0	1841.0	1850.0	1850.0	1850.0	1823.0	1823.0	1860.0	1860.0	1860.0	1845.0	1845.0	1847.0	1847.0	1847.0	1832.0	1832.0	1859.0	1859.0	1822.0	1822.0	1822.0	1834.0	1834.0	1838.0	1838.0	1838.0	1834.0	1834.0	1841.0	1841.0	1841.0	1846.0	1846.0	1848.0	1848.0	1848.0	1850.0	1850.0	1822.0	1822.0	1822.0	1831.0	1831.0	1825.0	1825.0	1825.0	1840.0	1840.0	1824.0	1824.0	1824.0	1835.0	1835.0	1861.0	1861.0	1861.0	1850.0	1850.0	1833.0	1833.0	1833.0	1859.0	1859.0	1841.0	1841.0	1841.0	1821.0	1821.0	1807.0	1807.0	1807.0	1871.0	1871.0	1840.0	1840.0	1840.0	1863.0	1863.0	1819.0	1819.0	1819.0	1820.0	1820.0	1825.0	1825.0	1825.0	1853.0	1853.0	1860.0	1860.0	1860.0	1827.0	1827.0	1810.0	1810.0	1810.0	1831.0	1831.0	1847.0	1847.0	1847.0	1850.0	1850.0	1838.0	1838.0	1838.0	1848.0	1848.0	1826.0	1826.0	1826.0	1842.0	1842.0	1849.0	1849.0	1849.0	1840.0	1840.0	1865.0	1865.0	1865.0	1864.0	1864.0	1832.0	1832.0	1832.0	1821.0	1821.0	1835.0	1835.0	1835.0	1840.0	1840.0	1817.0	1817.0	1817.0	1829.0	1829.0	1841.0	1841.0	1841.0	1824.0	1824.0	1861.0	1861.0	1861.0	1862.0	1862.0	1833.0	1833.0	1833.0	1864.0	1864.0	1817.0	1817.0	1817.0	1843.0	1843.0	1810.0	1810.0	1810.0	1839.0	1839.0	1818.0	1818.0	1818.0	1815.0	1815.0	1820.0	1820.0	1820.0	1847.0	1847.0	1863.0	1863.0	1863.0	1854.0	1854.0	1815.0	1815.0	1815.0	1847.0	1847.0	1813.0	1813.0	1813.0	1820.0	1820.0	1843.0	1843.0	1843.0	1854.0	1854.0	1855.0	1855.0	1855.0	1858.0	1858.0	1810.0	1810.0	1810.0	1824.0	1824.0	1850.0	1850.0	1850.0	1820.0	1820.0	1822.0	1822.0	1822.0	1830.0	1830.0	1829.0	1829.0	1829.0	1855.0	1855.0	1835.0	1835.0	1813.0	1813.0	1813.0	1809.0	1809.0	1816.0	1816.0	1816.0	1835.0	1835.0	1841.0	1841.0	1841.0	1796.0	1796.0	1817.0	1817.0	1817.0	1844.0	1844.0	1831.0	1831.0	1831.0	1805.0	1805.0	1848.0	1848.0	1848.0	1811.0	1811.0	1865.0	1865.0	1865.0	1817.0	1817.0	1857.0	1857.0	1857.0	1851.0	1851.0	1838.0	1838.0	1838.0	1849.0	1849.0	1849.0	1849.0	1849.0	1818.0	1818.0	1833.0	1833.0	1833.0	1855.0	1855.0	1825.0	1825.0	1825.0	1828.0	1828.0	1841.0	1841.0	1841.0	1846.0	1846.0	1839.0	1839.0	1839.0	1835.0	1835.0	1862.0	1862.0	1862.0	1871.0	1871.0	1850.0	1850.0	1850.0	1882.0	1882.0	1858.0	1858.0	1858.0	1867.0	1867.0	1883.0	1883.0	1883.0	1899.0	1899.0	1884.0	1884.0	1884.0	1904.0	1904.0	1942.0	1942.0	1942.0	1931.0	1931.0	1943.0	1943.0	1943.0	1939.0	1939.0	1976.0	1976.0	1976.0	1948.0	1948.0	1975.0	1975.0	1975.0	1980.0	1980.0	1989.0	1989.0	1989.0	2030.0	2030.0	2044.0	2044.0	2044.0	2074.0	2074.0	2080.0	2080.0	2080.0	2088.0	2088.0	2082.0	2082.0	2082.0	2119.0	2119.0	2119.0	2119.0	2119.0	2147.0	2147.0	2134.0	2134.0	2134.0	2156.0	2156.0	2205.0	2205.0	2205.0	2189.0	2189.0	2214.0	2214.0	2214.0	2235.0	2235.0	2259.0	2259.0	2259.0	2251.0	2251.0	2247.0	2247.0	2247.0	2298.0	2298.0	2303.0	2303.0	2303.0	2304.0	2304.0	2285.0	2285.0	2285.0	2318.0	2318.0	2302.0	2302.0	2302.0	2347.0	2347.0	2348.0	2348.0	2348.0	2353.0	2353.0	2363.0	2363.0	2363.0	2360.0	2360.0	2374.0	2374.0	2374.0	2376.0	2376.0	2411.0	2411.0	2411.0	2394.0	2394.0	2399.0	2399.0	2399.0	2405.0	2405.0	2413.0	2413.0	2406.0	2406.0	2406.0	2418.0	2418.0	2425.0	2425.0	2425.0	2440.0	2440.0	2438.0	2438.0	2438.0	2467.0	2467.0	2465.0	2465.0	2465.0	2459.0	2459.0	2448.0	2448.0	2448.0	2455.0	2455.0	2452.0	2452.0	2452.0	2456.0	2456.0	2476.0	2476.0	2476.0	2484.0	2484.0	2475.0	2475.0	2475.0	2507.0	2507.0	2466.0	2466.0	2466.0	2483.0	2483.0	2465.0	2465.0	2465.0	2460.0	2460.0	2448.0	2448.0	2448.0	2473.0	2473.0	2504.0	2504.0	2504.0	2474.0	2474.0	2466.0	2466.0	2466.0	2466.0	2466.0	2466.0	2466.0	2466.0	2491.0	2491.0	2483.0	2483.0	2483.0	2476.0	2476.0	2470.0	2470.0	2470.0	2480.0	2480.0	2500.0	2500.0	2500.0	2479.0	2479.0	2472.0	2472.0	2472.0	2487.0	2487.0	2468.0	2468.0	2468.0	2481.0	2481.0	2473.0	2473.0	2473.0	2443.0	2443.0	2439.0	2439.0	2439.0	2431.0	2431.0	2432.0	2432.0	2432.0	2428.0	2428.0	2422.0	2422.0	2422.0	2431.0	2431.0	2419.0	2419.0	2419.0	2418.0	2418.0	2399.0	2399.0	2399.0	2427.0	2427.0	2398.0	2398.0	2398.0	2403.0	2403.0	2403.0	2403.0	2403.0	2396.0	2396.0	2380.0	2380.0	2380.0	2408.0	2408.0	2401.0	2401.0	2401.0	2394.0	2394.0	2359.0	2359.0	2359.0	2343.0	2343.0	2361.0	2361.0	2361.0	2364.0	2364.0	2342.0	2342.0	2342.0	2324.0	2324.0	2347.0	2347.0	2347.0	2305.0	2305.0	2318.0	2318.0	2318.0	2320.0	2320.0	2284.0	2284.0	2284.0	2257.0	2257.0	2271.0	2271.0	2271.0	2217.0	2217.0	2236.0	2236.0	2236.0	2246.0	2246.0	2248.0	2248.0	2248.0	2252.0	2252.0	2210.0	2210.0	2210.0	2203.0	2203.0	2197.0	2197.0	2197.0	2180.0	2180.0	2183.0	2183.0	2163.0	2163.0	2163.0	2148.0	2148.0	2151.0	2151.0	2151.0	2155.0	2155.0	2111.0	2111.0	2111.0	2109.0	2109.0	2102.0	2102.0	2102.0	2114.0	2114.0	2097.0	2097.0	2097.0	2078.0	2078.0	2105.0	2105.0	2105.0	2113.0	2113.0	2090.0	2090.0	2090.0	2072.0	2072.0	2073.0	2073.0	2073.0	2077.0	2077.0	2069.0	2069.0	2069.0	2045.0	2045.0	2082.0	2082.0	2082.0	2040.0	2040.0	2029.0	2029.0	2029.0	2055.0	2055.0	2061.0	2061.0	2061.0	2030.0	2030.0	2060.0	2060.0	2060.0	2023.0	2023.0	2034.0	2034.0	2034.0	2011.0	2011.0	2034.0	2034.0	2034.0	2007.0	2007.0	2034.0	2034.0	2034.0	2017.0	2017.0	2022.0	2022.0	2022.0	1999.0	1999.0	1982.0	1982.0	1982.0	1992.0	1992.0	2018.0	2018.0	2018.0	2008.0	2008.0	1992.0	1992.0	1992.0	2011.0	2011.0	2024.0	2024.0	2024.0	1977.0	1977.0	1991.0	1991.0	1991.0	1966.0	1966.0	1975.0	1975.0	1975.0	1978.0	1978.0	1981.0	1981.0	1981.0	2009.0	2009.0	1977.0	1977.0	1977.0	1993.0	1993.0	2004.0	2004.0	2004.0	1996.0	1996.0	1981.0	1981.0	1981.0	1973.0	1973.0	1975.0	1975.0	1975.0	1954.0	1954.0	1991.0	1991.0	1991.0	1962.0	1962.0	1950.0	1950.0	1950.0	1975.0	1975.0	1974.0	1974.0	1974.0	1959.0	1959.0	1952.0	1952.0	1952.0	1958.0	1958.0	1947.0	1947.0	1947.0	1964.0	1964.0	1966.0	1966.0	1966.0	1970.0	1970.0	1929.0	1929.0	1929.0	1919.0	1919.0	1944.0	1944.0	1944.0	1926.0	1926.0	1918.0	1918.0	1918.0	1897.0	1897.0	1923.0	1923.0	1923.0	1920.0	1920.0	1952.0	1952.0	1952.0	1899.0	1899.0	1917.0	1917.0	1917.0	1935.0	1935.0	1927.0	1927.0	1923.0	1923.0	1923.0	1884.0	1884.0	1930.0	1930.0	1930.0	1928.0	1928.0	1890.0	1890.0	1890.0	1883.0	1883.0	1889.0	1889.0	1889.0	1883.0	1883.0	1886.0	1886.0	1886.0	1908.0	1908.0	1866.0	1866.0	1866.0	1893.0	1893.0	1885.0	1885.0	1885.0	1885.0	1885.0	1889.0	1889.0	1889.0	1911.0	1911.0	1875.0	1875.0	1875.0	1870.0	1870.0	1870.0	1870.0	1870.0	1865.0	1865.0	1881.0	1881.0	1881.0	1885.0	1885.0	1847.0	1847.0	1847.0	1870.0	1870.0	1882.0	1882.0	1882.0	1888.0	1888.0	1888.0	1888.0	1888.0	1882.0	1882.0	1867.0	1867.0	1867.0	1888.0	1888.0	1890.0	1890.0	1890.0	1877.0	1877.0	1861.0	1861.0	1861.0	1849.0	1849.0	1867.0	1867.0	1867.0	1839.0	1839.0	1837.0	1837.0	1837.0	1837.0	1837.0	1871.0	1871.0	1871.0	1853.0	1853.0	1841.0	1841.0	1841.0	1837.0	1837.0	1864.0	1864.0	1864.0	1826.0	1826.0	1863.0	1863.0	1863.0	1853.0	1853.0	1832.0	1832.0	1832.0	1888.0	1888.0	1855.0	1855.0	1855.0	1836.0	1836.0	1844.0	1844.0	1844.0	1873.0	1873.0	1830.0	1830.0	1830.0	1836.0	1836.0	1836.0	1836.0	1836.0	1847.0	1847.0	1824.0	1824.0	1824.0	1825.0	1825.0	1815.0	1815.0	1815.0	1864.0	1864.0	1831.0	1831.0	1831.0	1842.0	1842.0	1831.0	1831.0	1831.0	1864.0	1864.0	1825.0	1825.0	1825.0	1865.0	1865.0	1813.0	1813.0	1813.0	1849.0	1849.0	1831.0	1831.0	1831.0	1860.0	1860.0	1822.0	1822.0	1822.0	1850.0	1850.0	1862.0	1862.0	1862.0	1826.0	1826.0	1837.0	1837.0	1837.0	1871.0	1871.0	1838.0	1838.0	1838.0	1843.0	1843.0	1825.0	1825.0	1825.0	1872.0	1872.0	1855.0	1855.0	1855.0	1822.0	1822.0	1842.0	1842.0	1841.0	1841.0	1841.0	1838.0	1838.0	1841.0	1841.0	1841.0	1823.0	1823.0	1812.0	1812.0	1812.0	1831.0	1831.0	1820.0	1820.0	1820.0	1863.0	1863.0	1867.0	1867.0	1867.0	1828.0	1828.0	1832.0	1832.0	1832.0	1817.0	1817.0	1835.0	1835.0	1835.0	1824.0	1824.0	1822.0	1822.0	1822.0	1814.0	1814.0	1815.0	1815.0	1815.0	1831.0	1831.0	1841.0	1841.0	1841.0	1837.0	1837.0	1821.0	1821.0	1821.0	1829.0	1829.0	1818.0	1818.0	1818.0	1825.0	1825.0	1854.0	1854.0	1854.0	1851.0	1851.0	1860.0	1860.0	1860.0	1855.0	1855.0	1853.0	1853.0	1853.0	1852.0	1852.0	1842.0	1842.0	1842.0	1840.0	1840.0	1839.0	1839.0	1839.0	1866.0	1866.0	1849.0	1849.0	1849.0	1856.0	1856.0	1861.0	1861.0	1861.0	1859.0	1859.0	1838.0	1838.0	1838.0	1832.0	1832.0	1834.0	1834.0	1834.0	1836.0	1836.0	1849.0	1849.0	1849.0	1844.0	1844.0	1826.0	1826.0	1826.0	1820.0	1820.0	1807.0	1807.0	1807.0	1821.0	1821.0	1837.0	1837.0	1837.0	1807.0	1807.0	1843.0	1843.0	1843.0	1840.0	1840.0	1837.0	1837.0	1837.0	1818.0	1818.0	1867.0	1867.0	1867.0	1831.0	1831.0	1855.0	1855.0	1855.0	1831.0	1831.0	1837.0	1837.0	1837.0	1823.0	1823.0	1816.0	1816.0	1816.0	1819.0	1819.0	1855.0	1855.0	1855.0	1856.0	1856.0	1852.0	1852.0	1852.0	1826.0	1826.0	1872.0	1872.0	1872.0	1838.0	1838.0	1852.0	1852.0	1852.0	1869.0	1869.0	1840.0	1840.0	1840.0	1863.0	1863.0	1861.0	1861.0	1861.0	1857.0	1857.0	1893.0	1893.0	1893.0	1881.0	1881.0	1913.0	1913.0	1913.0	1902.0	1902.0	1918.0	1918.0	1918.0	1914.0	1914.0	1940.0	1940.0	1943.0	1943.0	1943.0	1978.0	1978.0	1995.0	1995.0	1995.0	1984.0	1984.0	2022.0	2022.0	2022.0	2021.0	2021.0	2039.0	2039.0	2039.0	2059.0	2059.0	2044.0	2044.0	2044.0	2089.0	2089.0	2079.0	2079.0	2079.0	2125.0	2125.0	2128.0	2128.0	2128.0	2124.0	2124.0	2182.0	2182.0	2182.0	2201.0	2201.0	2157.0	2157.0	2157.0	2187.0	2187.0	2220.0	2220.0	2220.0	2233.0	2233.0	2264.0	2264.0	2264.0	2268.0	2268.0	2267.0	2267.0	2267.0	2286.0	2286.0	2305.0	2305.0	2305.0	2296.0	2296.0	2308.0	2308.0	2308.0	2364.0	2364.0	2351.0	2351.0	2351.0	2351.0	2351.0	2354.0	2354.0	2354.0	2390.0	2390.0	2406.0	2406.0	2406.0	2416.0	2416.0	2376.0	2376.0	2376.0	2390.0	2390.0	2436.0	2436.0	2436.0	2404.0	2404.0	2415.0	2415.0	2415.0	2412.0	2412.0	2454.0	2454.0	2454.0	2456.0	2456.0	2456.0	2456.0	2456.0	2480.0	2480.0	2480.0	2480.0	2480.0	2483.0	2483.0	2481.0	2481.0	2481.0	2491.0	2491.0	2506.0	2506.0	2506.0	2476.0	2476.0	2480.0	2480.0	2480.0	2493.0	2493.0	2481.0	2481.0	2481.0	2522.0	2522.0	2517.0	2517.0	2517.0	2494.0	2494.0	2506.0	2506.0	2506.0	2537.0	2537.0	2500.0	2500.0	2500.0	2501.0	2501.0	2533.0	2533.0	2533.0	2519.0	2519.0	2495.0	2495.0	2495.0	2520.0	2520.0	2527.0	2527.0	2527.0	2534.0	2534.0	2538.0	2538.0	2538.0	2510.0	2510.0	2493.0	2493.0	2493.0	2519.0	2519.0	2494.0	2494.0	2494.0	2537.0	2537.0	2508.0	2508.0	2508.0	2524.0	2524.0	2487.0	2487.0	2487.0	2495.0	2495.0	2495.0	2495.0	2495.0	2485.0	2485.0	2485.0	2485.0	2485.0	2498.0	2498.0	2513.0	2513.0	2513.0	2481.0	2481.0	2510.0	2510.0	2493.0	2493.0	2493.0	2488.0	2488.0	2491.0	2491.0	2491.0	2471.0	2471.0	2443.0	2443.0	2443.0	2476.0	2476.0	2476.0	2476.0	2476.0	2462.0	2462.0	2449.0	2449.0	2449.0	2460.0	2460.0	2458.0	2458.0	2458.0	2420.0	2420.0	2432.0	2432.0	2432.0	2422.0	2422.0	2420.0	2420.0	2420.0	2427.0	2427.0	2423.0	2423.0	2423.0	2402.0	2402.0	2367.0	2367.0	2367.0	2367.0	2367.0	2375.0	2375.0	2375.0	2364.0	2364.0	2348.0	2348.0	2348.0	2363.0	2363.0	2320.0	2320.0	2320.0	2339.0	2339.0	2330.0	2330.0	2330.0	2298.0	2298.0	2329.0	2329.0	2329.0	2307.0	2307.0	2267.0	2267.0	2267.0	2274.0	2274.0	2292.0	2292.0	2292.0	2241.0	2241.0	2261.0	2261.0	2261.0	2245.0	2245.0	2233.0	2233.0	2233.0	2222.0	2222.0	2220.0	2220.0	2220.0	2218.0	2218.0	2196.0	2196.0	2196.0	2186.0	2186.0	2188.0	2188.0	2188.0	2188.0	2188.0	2151.0	2151.0	2151.0	2143.0	2143.0	2156.0	2156.0	2156.0	2162.0	2162.0	2110.0	2110.0	2110.0	2110.0	2110.0	2143.0	2143.0	2143.0	2128.0	2128.0	2095.0	2095.0	2095.0	2091.0	2091.0	2128.0	2128.0	2128.0	2089.0	2089.0	2086.0	2086.0	2086.0	2089.0	2089.0	2063.0	2063.0	2063.0	2082.0	2082.0	2088.0	2088.0	2088.0	2050.0	2050.0	2050.0	2050.0	2050.0	2059.0	2059.0	2064.0	2064.0	2064.0	2078.0	2078.0	2036.0	2036.0	2036.0	2062.0	2062.0	2056.0	2056.0	2056.0	2017.0	2017.0	2036.0	2036.0	2036.0	2068.0	2068.0	2066.0	2066.0	2066.0	2023.0	2023.0	2056.0	2056.0	2056.0	2033.0	2033.0	2056.0	2056.0	2056.0	2032.0	2032.0	2042.0	2042.0	2042.0	2031.0	2031.0	2030.0	2030.0	2026.0	2026.0	2026.0	2001.0	2001.0	1997.0	1997.0	1997.0	1987.0	1987.0	2022.0	2022.0	2022.0	2032.0	2032.0	2018.0	2018.0	2018.0	1998.0	1998.0	2018.0	2018.0	2018.0	2010.0	2010.0	1970.0	1970.0	1970.0	1994.0	1994.0	1995.0	1995.0	1995.0	1998.0	1998.0	1960.0	1960.0	1960.0	1975.0	1975.0	1988.0	1988.0	1988.0	1991.0	1991.0	1972.0	1972.0	1972.0	1953.0	1953.0	1986.0	1986.0	1986.0	1976.0	1976.0	1959.0	1959.0	1959.0	1956.0	1956.0	1962.0	1962.0	1962.0	1946.0	1946.0	1951.0	1951.0	1951.0	1934.0	1934.0	1944.0	1944.0	1944.0	1978.0	1978.0	1974.0	1974.0	1974.0	1939.0	1939.0	1937.0	1937.0	1937.0	1969.0	1969.0	1954.0	1954.0	1954.0	1943.0	1943.0	1941.0	1941.0	1941.0	1975.0	1975.0	1937.0	1937.0	1937.0	1912.0	1912.0	1912.0	1912.0	1912.0	1922.0	1922.0	1913.0	1913.0	1913.0	1937.0	1937.0	1911.0	1911.0	1911.0	1902.0	1902.0	1942.0	1942.0	1942.0	1932.0	1932.0	1915.0	1915.0	1915.0	1940.0	1940.0	1944.0	1944.0	1944.0	1927.0	1927.0	1934.0	1934.0	1934.0	1918.0	1918.0	1916.0	1916.0	1916.0	1894.0	1894.0	1901.0	1901.0	1901.0	1910.0	1910.0	1902.0	1902.0	1902.0	1922.0	1922.0	1877.0	1877.0	1877.0	1898.0	1898.0	1865.0	1865.0	1865.0	1899.0	1899.0	1868.0	1868.0	1868.0	1890.0	1890.0	1864.0	1864.0	1864.0	1899.0	1899.0	1913.0	1913.0	1913.0	1870.0	1870.0	1885.0	1885.0	1885.0	1864.0	1864.0	1851.0	1851.0	1851.0	1898.0	1898.0	1852.0	1852.0	1852.0	1869.0	1869.0	1901.0	1901.0	1901.0	1880.0	1880.0	1870.0	1870.0	1870.0	1856.0	1856.0	1911.0	1911.0	1890.0	1890.0	1890.0	1852.0	1852.0	1872.0	1872.0	1872.0	1891.0	1891.0	1849.0	1849.0	1849.0	1887.0	1887.0	1849.0	1849.0	1849.0	1888.0	1888.0	1851.0	1851.0	1851.0	1871.0	1871.0	1850.0	1850.0	1850.0	1843.0	1843.0	1854.0	1854.0	1854.0	1843.0	1843.0	1891.0	1891.0	1891.0	1881.0	1881.0	1869.0	1869.0	1869.0	1846.0	1846.0	1846.0	1846.0	1846.0	1837.0	1837.0	1873.0	1873.0	1873.0	1842.0	1842.0	1862.0	1862.0	1862.0	1867.0	1867.0	1878.0	1878.0	1878.0	1871.0	1871.0	1850.0	1850.0	1850.0	1870.0	1870.0	1848.0	1848.0	1848.0	1875.0	1875.0	1860.0	1860.0	1860.0	1834.0	1834.0	1866.0	1866.0	1866.0	1870.0	1870.0	1827.0	1827.0	1827.0	1832.0	1832.0	1832.0	1832.0	1832.0	1880.0	1880.0	1830.0	1830.0	1830.0	1837.0	1837.0	1871.0	1871.0	1871.0	1853.0	1853.0	1840.0	1840.0	1840.0	1840.0	1840.0	1866.0	1866.0	1866.0	1824.0	1824.0	1816.0	1816.0	1816.0	1867.0	1867.0	1816.0	1816.0	1816.0	1839.0	1839.0	1830.0	1830.0	1830.0	1842.0	1842.0	1819.0	1819.0	1819.0	1823.0	1823.0	1847.0	1847.0	1847.0	1851.0	1851.0	1818.0	1818.0	1818.0	1837.0	1837.0	1819.0	1819.0	1819.0	1839.0	1839.0	1841.0	1841.0	1841.0	1846.0	1846.0	1817.0	1817.0	1817.0	1813.0	1813.0	1847.0	1847.0	1847.0	1819.0	1819.0	1821.0	1821.0	1821.0	1828.0	1828.0	1839.0	1839.0	1839.0	1833.0	1833.0	1815.0	1815.0	1815.0	1838.0	1838.0	1836.0	1836.0	1836.0	1843.0	1843.0	1819.0	1819.0	1819.0	1835.0	1835.0	1832.0	1832.0	1832.0	1847.0	1847.0	1845.0	1845.0	1845.0	1850.0	1850.0	1851.0	1851.0	1851.0	1873.0	1873.0	1852.0	1852.0	1863.0	1863.0	1863.0	1849.0	1849.0	1850.0	1850.0	1850.0	