2567.0	2567.0	2555.0	2555.0	2555.0	2490.0	2490.0	2478.0	2478.0	2478.0	2472.0	2472.0	2437.0	2437.0	2437.0	2415.0	2415.0	2416.0	2416.0	2416.0	2424.0	2424.0	2376.0	2376.0	2376.0	2341.0	2341.0	2364.0	2364.0	2364.0	2368.0	2368.0	2289.0	2289.0	2289.0	2344.0	2344.0	2295.0	2295.0	2295.0	2244.0	2244.0	2292.0	2292.0	2292.0	2295.0	2295.0	2250.0	2250.0	2250.0	2252.0	2252.0	2245.0	2245.0	2245.0	2208.0	2208.0	2216.0	2216.0	2216.0	2166.0	2166.0	2130.0	2130.0	2130.0	2162.0	2162.0	2170.0	2170.0	2170.0	2095.0	2095.0	2095.0	2095.0	2095.0	2163.0	2163.0	2145.0	2145.0	2145.0	2122.0	2122.0	2137.0	2137.0	2137.0	2078.0	2078.0	2114.0	2114.0	2114.0	2052.0	2052.0	2111.0	2111.0	2111.0	2101.0	2101.0	2053.0	2053.0	2053.0	2021.0	2021.0	2060.0	2060.0	2060.0	2026.0	2026.0	2074.0	2074.0	2074.0	2003.0	2003.0	2040.0	2040.0	2040.0	2034.0	2034.0	2024.0	2024.0	2024.0	1998.0	1998.0	2019.0	2019.0	2019.0	2005.0	2005.0	2022.0	2022.0	2022.0	2025.0	2025.0	2002.0	2002.0	2002.0	1999.0	1999.0	1959.0	1959.0	1959.0	2031.0	2031.0	1950.0	1950.0	1950.0	1965.0	1965.0	1961.0	1961.0	1961.0	1963.0	1963.0	1981.0	1981.0	1981.0	1941.0	1941.0	1938.0	1938.0	1938.0	1998.0	1998.0	1990.0	1990.0	1990.0	1966.0	1966.0	1925.0	1925.0	1925.0	1964.0	1964.0	1977.0	1977.0	1977.0	1894.0	1894.0	1937.0	1937.0	1937.0	1955.0	1955.0	1887.0	1887.0	1887.0	1903.0	1903.0	1888.0	1888.0	1888.0	1883.0	1883.0	1928.0	1928.0	1928.0	1924.0	1924.0	1902.0	1902.0	1902.0	1892.0	1892.0	1866.0	1866.0	1853.0	1853.0	1853.0	1909.0	1909.0	1837.0	1837.0	1837.0	1864.0	1864.0	1907.0	1907.0	1907.0	1890.0	1890.0	1851.0	1851.0	1851.0	1877.0	1877.0	1819.0	1819.0	1819.0	1818.0	1818.0	1867.0	1867.0	1867.0	1797.0	1797.0	1802.0	1802.0	1802.0	1868.0	1868.0	1791.0	1791.0	1791.0	1807.0	1807.0	1851.0	1851.0	1851.0	1827.0	1827.0	1827.0	1827.0	1827.0	1811.0	1811.0	1795.0	1795.0	1795.0	1773.0	1773.0	1765.0	1765.0	1765.0	1832.0	1832.0	1806.0	1806.0	1806.0	1821.0	1821.0	1814.0	1814.0	1814.0	1754.0	1754.0	1750.0	1750.0	1750.0	1767.0	1767.0	1728.0	1728.0	1728.0	1745.0	1745.0	1782.0	1782.0	1782.0	1739.0	1739.0	1760.0	1760.0	1760.0	1728.0	1728.0	1729.0	1729.0	1729.0	1730.0	1730.0	1719.0	1719.0	1719.0	1717.0	1717.0	1769.0	1769.0	1769.0	1708.0	1708.0	1720.0	1720.0	1720.0	1721.0	1721.0	1739.0	1739.0	1739.0	1701.0	1701.0	1704.0	1704.0	1704.0	1696.0	1696.0	1721.0	1721.0	1721.0	1765.0	1765.0	1734.0	1734.0	1734.0	1719.0	1719.0	1747.0	1747.0	1747.0	1712.0	1712.0	1676.0	1676.0	1676.0	1676.0	1676.0	1699.0	1699.0	1699.0	1726.0	1726.0	1671.0	1671.0	1671.0	1707.0	1707.0	1675.0	1675.0	1675.0	1665.0	1665.0	1720.0	1720.0	1720.0	1731.0	1731.0	1670.0	1670.0	1670.0	1705.0	1705.0	1665.0	1665.0	1665.0	1675.0	1675.0	1660.0	1660.0	1660.0	1675.0	1675.0	1648.0	1648.0	1648.0	1645.0	1645.0	1662.0	1662.0	1662.0	1651.0	1651.0	1654.0	1654.0	1654.0	1704.0	1704.0	1721.0	1721.0	1721.0	1724.0	1724.0	1657.0	1657.0	1657.0	1724.0	1724.0	1703.0	1703.0	1703.0	1705.0	1705.0	1698.0	1698.0	1706.0	1706.0	1706.0	1693.0	1693.0	1715.0	1715.0	1715.0	1642.0	1642.0	1690.0	1690.0	1690.0	1716.0	1716.0	1708.0	1708.0	1708.0	1640.0	1640.0	1643.0	1643.0	1643.0	1686.0	1686.0	1668.0	1668.0	1668.0	1679.0	1679.0	1687.0	1687.0	1687.0	1649.0	1649.0	1630.0	1630.0	1630.0	1648.0	1648.0	1707.0	1707.0	1707.0	1624.0	1624.0	1650.0	1650.0	1650.0	1650.0	1650.0	1689.0	1689.0	1689.0	1634.0	1634.0	1652.0	1652.0	1652.0	1658.0	1658.0	1694.0	1694.0	1694.0	1628.0	1628.0	1694.0	1694.0	1694.0	1691.0	1691.0	1669.0	1669.0	1669.0	1652.0	1652.0	1619.0	1619.0	1619.0	1620.0	1620.0	1688.0	1688.0	1688.0	1649.0	1649.0	1680.0	1680.0	1680.0	1635.0	1635.0	1629.0	1629.0	1629.0	1614.0	1614.0	1680.0	1680.0	1680.0	1645.0	1645.0	1610.0	1610.0	1610.0	1636.0	1636.0	1635.0	1635.0	1635.0	1629.0	1629.0	1619.0	1619.0	1619.0	1652.0	1652.0	1667.0	1667.0	1667.0	1615.0	1615.0	1603.0	1603.0	1603.0	1623.0	1623.0	1609.0	1609.0	1609.0	1658.0	1658.0	1682.0	1682.0	1682.0	1605.0	1605.0	1674.0	1674.0	1674.0	1691.0	1691.0	1667.0	1667.0	1667.0	1640.0	1640.0	1630.0	1630.0	1630.0	1623.0	1623.0	1684.0	1684.0	1684.0	1694.0	1694.0	1699.0	1699.0	1699.0	1694.0	1694.0	1707.0	1707.0	1707.0	1695.0	1695.0	1684.0	1684.0	1684.0	1750.0	1750.0	1685.0	1685.0	1685.0	1769.0	1769.0	1779.0	1779.0	1779.0	1755.0	1755.0	1821.0	1821.0	1821.0	1831.0	1831.0	1818.0	1818.0	1818.0	1825.0	1825.0	1856.0	1856.0	1856.0	1939.0	1939.0	1963.0	1963.0	1963.0	1984.0	1984.0	2030.0	2030.0	2040.0	2040.0	2040.0	2010.0	2010.0	2069.0	2069.0	2069.0	2110.0	2110.0	2147.0	2147.0	2147.0	2129.0	2129.0	2167.0	2167.0	2167.0	2262.0	2262.0	2244.0	2244.0	2244.0	2251.0	2251.0	2290.0	2290.0	2290.0	2342.0	2342.0	2342.0	2342.0	2342.0	2376.0	2376.0	2390.0	2390.0	2390.0	2407.0	2407.0	2478.0	2478.0	2478.0	2496.0	2496.0	2519.0	2519.0	2519.0	2551.0	2551.0	2543.0	2543.0	2543.0	2587.0	2587.0	2599.0	2599.0	2599.0	2635.0	2635.0	2589.0	2589.0	2589.0	2601.0	2601.0	2631.0	2631.0	2631.0	2635.0	2635.0	2661.0	2661.0	2661.0	2664.0	2664.0	2686.0	2686.0	2686.0	2702.0	2702.0	2777.0	2777.0	2777.0	2764.0	2764.0	2763.0	2763.0	2763.0	2778.0	2778.0	2790.0	2790.0	2790.0	2781.0	2781.0	2788.0	2788.0	2788.0	2857.0	2857.0	2832.0	2832.0	2832.0	2794.0	2794.0	2871.0	2871.0	2871.0	2833.0	2833.0	2847.0	2847.0	2847.0	2836.0	2836.0	2835.0	2835.0	2835.0	2911.0	2911.0	2870.0	2870.0	2870.0	2869.0	2869.0	2910.0	2910.0	2910.0	2903.0	2903.0	2855.0	2855.0	2855.0	2903.0	2903.0	2911.0	2911.0	2911.0	2882.0	2882.0	2854.0	2854.0	2854.0	2900.0	2900.0	2862.0	2862.0	2862.0	2931.0	2931.0	2903.0	2903.0	2903.0	2921.0	2921.0	2863.0	2863.0	2863.0	2860.0	2860.0	2908.0	2908.0	2908.0	2893.0	2893.0	2897.0	2897.0	2897.0	2826.0	2826.0	2889.0	2889.0	2889.0	2830.0	2830.0	2824.0	2824.0	2824.0	2817.0	2817.0	2821.0	2821.0	2821.0	2820.0	2820.0	2872.0	2872.0	2872.0	2777.0	2777.0	2857.0	2857.0	2857.0	2786.0	2786.0	2810.0	2810.0	2810.0	2828.0	2828.0	2764.0	2764.0	2764.0	2806.0	2806.0	2762.0	2762.0	2789.0	2789.0	2789.0	2783.0	2783.0	2722.0	2722.0	2722.0	2728.0	2728.0	2684.0	2684.0	2684.0	2742.0	2742.0	2731.0	2731.0	2731.0	2721.0	2721.0	2678.0	2678.0	2678.0	2699.0	2699.0	2672.0	2672.0	2672.0	2611.0	2611.0	2643.0	2643.0	2643.0	2570.0	2570.0	2619.0	2619.0	2619.0	2541.0	2541.0	2576.0	2576.0	2576.0	2506.0	2506.0	2530.0	2530.0	2530.0	2467.0	2467.0	2445.0	2445.0	2445.0	2465.0	2465.0	2452.0	2452.0	2452.0	2399.0	2399.0	2376.0	2376.0	2376.0	2352.0	2352.0	2358.0	2358.0	2358.0	2363.0	2363.0	2370.0	2370.0	2370.0	2343.0	2343.0	2324.0	2324.0	2324.0	2316.0	2316.0	2308.0	2308.0	2308.0	2240.0	2240.0	2279.0	2279.0	2279.0	2259.0	2259.0	2199.0	2199.0	2199.0	2206.0	2206.0	2200.0	2200.0	2200.0	2168.0	2168.0	2190.0	2190.0	2190.0	2132.0	2132.0	2171.0	2171.0	2171.0	2118.0	2118.0	2115.0	2115.0	2115.0	2146.0	2146.0	2144.0	2144.0	2144.0	2129.0	2129.0	2127.0	2127.0	2127.0	2118.0	2118.0	2120.0	2120.0	2120.0	2077.0	2077.0	2108.0	2108.0	2108.0	2045.0	2045.0	2099.0	2099.0	2099.0	2076.0	2076.0	2101.0	2101.0	2101.0	2031.0	2031.0	2019.0	2019.0	2019.0	2063.0	2063.0	2075.0	2075.0	2075.0	2067.0	2067.0	2032.0	2032.0	2032.0	2006.0	2006.0	2027.0	2027.0	2027.0	2024.0	2024.0	2006.0	2006.0	2006.0	2043.0	2043.0	1975.0	1975.0	1975.0	1983.0	1983.0	2015.0	2015.0	2015.0	1966.0	1966.0	2007.0	2007.0	2007.0	2030.0	2030.0	2012.0	2012.0	2012.0	1959.0	1959.0	1950.0	1950.0	1950.0	1987.0	1987.0	1960.0	1960.0	1960.0	1971.0	1971.0	1972.0	1972.0	1991.0	1991.0	1991.0	1920.0	1920.0	1938.0	1938.0	1938.0	1907.0	1907.0	1959.0	1959.0	1959.0	1945.0	1945.0	1919.0	1919.0	1919.0	1906.0	1906.0	1922.0	1922.0	1922.0	1887.0	1887.0	1923.0	1923.0	1923.0	1876.0	1876.0	1921.0	1921.0	1921.0	1912.0	1912.0	1903.0	1903.0	1903.0	1851.0	1851.0	1916.0	1916.0	1916.0	1910.0	1910.0	1858.0	1858.0	1858.0	1888.0	1888.0	1836.0	1836.0	1836.0	1913.0	1913.0	1854.0	1854.0	1854.0	1898.0	1898.0	1846.0	1846.0	1846.0	1879.0	1879.0	1814.0	1814.0	1814.0	1882.0	1882.0	1816.0	1816.0	1816.0	1844.0	1844.0	1870.0	1870.0	1870.0	1796.0	1796.0	1808.0	1808.0	1808.0	1853.0	1853.0	1852.0	1852.0	1852.0	1847.0	1847.0	1846.0	1846.0	1846.0	1821.0	1821.0	1779.0	1779.0	1779.0	1780.0	1780.0	1772.0	1772.0	1772.0	1763.0	1763.0	1818.0	1818.0	1818.0	1835.0	1835.0	1799.0	1799.0	1799.0	1763.0	1763.0	1825.0	1825.0	1825.0	1762.0	1762.0	1815.0	1815.0	1815.0	1813.0	1813.0	1739.0	1739.0	1739.0	1789.0	1789.0	1738.0	1738.0	1738.0	1743.0	1743.0	1775.0	1775.0	1775.0	1725.0	1725.0	1731.0	1731.0	1731.0	1744.0	1744.0	1742.0	1742.0	1742.0	1739.0	1739.0	1751.0	1751.0	1751.0	1746.0	1746.0	1737.0	1737.0	1737.0	1762.0	1762.0	1774.0	1774.0	1774.0	1751.0	1751.0	1697.0	1697.0	1697.0	1731.0	1731.0	1719.0	1719.0	1719.0	1759.0	1759.0	1748.0	1748.0	1748.0	1713.0	1713.0	1711.0	1711.0	1711.0	1724.0	1724.0	1711.0	1711.0	1711.0	1756.0	1756.0	1699.0	1699.0	1699.0	1736.0	1736.0	1722.0	1722.0	1722.0	1699.0	1699.0	1668.0	1668.0	1677.0	1677.0	1677.0	1675.0	1675.0	1740.0	1740.0	1740.0	1686.0	1686.0	1745.0	1745.0	1745.0	1735.0	1735.0	1692.0	1692.0	1692.0	1673.0	1673.0	1732.0	1732.0	1732.0	1679.0	1679.0	1685.0	1685.0	1685.0	1661.0	1661.0	1669.0	1669.0	1669.0	1702.0	1702.0	1729.0	1729.0	1729.0	1656.0	1656.0	1732.0	1732.0	1732.0	1692.0	1692.0	1692.0	1692.0	1692.0	1664.0	1664.0	1727.0	1727.0	1727.0	1667.0	1667.0	1707.0	1707.0	1707.0	1678.0	1678.0	1650.0	1650.0	1650.0	1696.0	1696.0	1702.0	1702.0	1702.0	1673.0	1673.0	1652.0	1652.0	1652.0	1644.0	1644.0	1668.0	1668.0	1668.0	1651.0	1651.0	1688.0	1688.0	1688.0	1652.0	1652.0	1682.0	1682.0	1682.0	1712.0	1712.0	1645.0	1645.0	1645.0	1665.0	1665.0	1642.0	1642.0	1642.0	1656.0	1656.0	1659.0	1659.0	1659.0	1713.0	1713.0	1699.0	1699.0	1699.0	1651.0	1651.0	1670.0	1670.0	1670.0	1651.0	1651.0	1648.0	1648.0	1648.0	1643.0	1643.0	1686.0	1686.0	1686.0	1686.0	1686.0	1660.0	1660.0	1660.0	1632.0	1632.0	1701.0	1701.0	1701.0	1688.0	1688.0	1663.0	1663.0	1663.0	1676.0	1676.0	1655.0	1655.0	1655.0	1633.0	1633.0	1688.0	1688.0	1688.0	1621.0	1621.0	1690.0	1690.0	1690.0	1622.0	1622.0	1678.0	1678.0	1678.0	1619.0	1619.0	1615.0	1615.0	1615.0	1630.0	1630.0	1674.0	1674.0	1674.0	1674.0	1674.0	1612.0	1612.0	1612.0	1604.0	1604.0	1631.0	1631.0	1631.0	1639.0	1639.0	1677.0	1677.0	1677.0	1656.0	1656.0	1597.0	1597.0	1597.0	1614.0	1614.0	1609.0	1609.0	1609.0	1599.0	1599.0	1675.0	1675.0	1675.0	1604.0	1604.0	1609.0	1609.0	1609.0	1664.0	1664.0	1639.0	1639.0	1614.0	1614.0	1614.0	1655.0	1655.0	1619.0	1619.0	1619.0	1665.0	1665.0	1658.0	1658.0	1658.0	1679.0	1679.0	1635.0	1635.0	1635.0	1682.0	1682.0	1674.0	1674.0	1674.0	1732.0	1732.0	1731.0	1731.0	1731.0	1744.0	1744.0	1744.0	1744.0	1744.0	1714.0	1714.0	1719.0	1719.0	1719.0	1788.0	1788.0	1806.0	1806.0	1806.0	1808.0	1808.0	1855.0	1855.0	1855.0	1838.0	1838.0	1816.0	1816.0	1816.0	1853.0	1853.0	1896.0	1896.0	1896.0	1964.0	1964.0	1980.0	1980.0	1980.0	1959.0	1959.0	1971.0	1971.0	1971.0	2072.0	2072.0	2077.0	2077.0	2077.0	2102.0	2102.0	2152.0	2152.0	2152.0	2183.0	2183.0	2160.0	2160.0	2160.0	2237.0	2237.0	2236.0	2236.0	2236.0	2252.0	2252.0	2266.0	2266.0	2266.0	2304.0	2304.0	2399.0	2399.0	2399.0	2416.0	2416.0	2449.0	2449.0	2449.0	2443.0	2443.0	2481.0	2481.0	2481.0	2460.0	2460.0	2496.0	2496.0	2496.0	2574.0	2574.0	2552.0	2552.0	2552.0	2597.0	2597.0	2644.0	2644.0	2644.0	2602.0	2602.0	2664.0	2664.0	2664.0	2660.0	2660.0	2665.0	2665.0	2665.0	2656.0	2656.0	2691.0	2691.0	2691.0	2751.0	2751.0	2731.0	2731.0	2731.0	2778.0	2778.0	2775.0	2775.0	2775.0	2796.0	2796.0	2810.0	2810.0	2810.0	2815.0	2815.0	2781.0	2781.0	2781.0	2841.0	2841.0	2795.0	2795.0	2795.0	2861.0	2861.0	2875.0	2875.0	2875.0	2882.0	2882.0	2877.0	2877.0	2877.0	2890.0	2890.0	2903.0	2903.0	2903.0	2845.0	2845.0	2916.0	2916.0	2916.0	2865.0	2865.0	2875.0	2875.0	2875.0	2892.0	2892.0	2918.0	2918.0	2918.0	2874.0	2874.0	2925.0	2925.0	2925.0	2878.0	2878.0	2901.0	2901.0	2877.0	2877.0	2877.0	2892.0	2892.0	2921.0	2921.0	2921.0	2889.0	2889.0	2879.0	2879.0	2879.0	2879.0	2879.0	2929.0	2929.0	2929.0	2930.0	2930.0	2869.0	2869.0	2869.0	2903.0	2903.0	2918.0	2918.0	2918.0	2894.0	2894.0	2906.0	2906.0	2906.0	2866.0	2866.0	2891.0	2891.0	2891.0	2840.0	2840.0	2878.0	2878.0	2878.0	2829.0	2829.0	2857.0	2857.0	2857.0	2828.0	2828.0	2862.0	2862.0	2862.0	2817.0	2817.0	2852.0	2852.0	2852.0	2793.0	2793.0	2785.0	2785.0	2785.0	2860.0	2860.0	2814.0	2814.0	2814.0	2763.0	2763.0	2818.0	2818.0	2818.0	2777.0	2777.0	2808.0	2808.0	2808.0	2745.0	2745.0	2725.0	2725.0	2725.0	2730.0	2730.0	2750.0	2750.0	2750.0	2770.0	2770.0	2699.0	2699.0	2699.0	2734.0	2734.0	2663.0	2663.0	2663.0	2713.0	2713.0	2646.0	2646.0	2646.0	2625.0	2625.0	2662.0	2662.0	2662.0	2601.0	2601.0	2596.0	2596.0	2596.0	2564.0	2564.0	2611.0	2611.0	2611.0	2538.0	2538.0	2538.0	2538.0	2538.0	2574.0	2574.0	2496.0	2496.0	2496.0	2468.0	2468.0	2462.0	2462.0	2462.0	2442.0	2442.0	2450.0	2450.0	2450.0	2471.0	2471.0	2380.0	2380.0	2380.0	2383.0	2383.0	2420.0	2420.0	2420.0	2363.0	2363.0	2361.0	2361.0	2361.0	2317.0	2317.0	2323.0	2323.0	2323.0	2311.0	2311.0	2265.0	2265.0	2265.0	2258.0	2258.0	2253.0	2253.0	2253.0	2227.0	2227.0	2259.0	2259.0	2259.0	2222.0	2222.0	2252.0	2252.0	2252.0	2183.0	2183.0	2186.0	2186.0	2186.0	2218.0	2218.0	2201.0	2201.0	2201.0	2166.0	2166.0	2146.0	2146.0	2146.0	2192.0	2192.0	2179.0	2179.0	2179.0	2177.0	2177.0	2121.0	2121.0	2121.0	2106.0	2106.0	2134.0	2134.0	2082.0	2082.0	2082.0	2100.0	2100.0	2068.0	2068.0	2068.0	2099.0	2099.0	2063.0	2063.0	2063.0	2071.0	2071.0	2053.0	2053.0	2053.0	2053.0	2053.0	2036.0	2036.0	2036.0	2081.0	2081.0	2075.0	2075.0	2075.0	2004.0	2004.0	2041.0	2041.0	2041.0	2006.0	2006.0	1996.0	1996.0	1996.0	2035.0	2035.0	2035.0	2035.0	2035.0	2040.0	2040.0	2021.0	2021.0	2021.0	1989.0	1989.0	1947.0	1947.0	1947.0	1960.0	1960.0	2006.0	2006.0	2006.0	1950.0	1950.0	1938.0	1938.0	1938.0	1977.0	1977.0	1922.0	1922.0	1922.0	1911.0	1911.0	1959.0	1959.0	1959.0	1892.0	1892.0	1888.0	1888.0	1888.0	1935.0	1935.0	1937.0	1937.0	1937.0	1869.0	1869.0	1861.0	1861.0	1861.0	1880.0	1880.0	1877.0	1877.0	1877.0	1856.0	1856.0	1871.0	1871.0	1871.0	1862.0	1862.0	1876.0	1876.0	1876.0	1890.0	1890.0	1821.0	1821.0	1821.0	1880.0	1880.0	1820.0	1820.0	1820.0	1796.0	1796.0	1804.0	1804.0	1804.0	1785.0	1785.0	1782.0	1782.0	1782.0	1825.0	1825.0	1835.0	1835.0	1835.0	1766.0	1766.0	1783.0	1783.0	1783.0	1802.0	1802.0	1762.0	1762.0	1762.0	1802.0	1802.0	1775.0	1775.0	1775.0	1754.0	1754.0	1725.0	1725.0	1725.0	1724.0	1724.0	1769.0	1769.0	1769.0	1775.0	1775.0	1706.0	1706.0	1706.0	1738.0	1738.0	1748.0	1748.0	1748.0	1707.0	1707.0	1736.0	1736.0	1736.0	1702.0	1702.0	1674.0	1674.0	1674.0	1752.0	1752.0	1743.0	1743.0	1743.0	1698.0	1698.0	1682.0	1682.0	1682.0	1672.0	1672.0	1718.0	1718.0	1718.0	1696.0	1696.0	1665.0	1665.0	1665.0	1711.0	1711.0	1695.0	1695.0	1695.0	1661.0	1661.0	1697.0	1697.0	1649.0	1649.0	1649.0	1669.0	1669.0	1693.0	1693.0	1693.0	1699.0	1699.0	1663.0	1663.0	1663.0	1615.0	1615.0	1668.0	1668.0	1668.0	1682.0	1682.0	1694.0	1694.0	1694.0	1702.0	1702.0	1621.0	1621.0	1621.0	1615.0	1615.0	1648.0	1648.0	1648.0	1612.0	1612.0	1641.0	1641.0	1641.0	1661.0	1661.0	1671.0	1671.0	1671.0	1651.0	1651.0	1672.0	1672.0	1672.0	1659.0	1659.0	1599.0	1599.0	1599.0	1620.0	1620.0	1610.0	1610.0	1610.0	