1614.0	1671.0	1671.0	1671.0	1665.0	1665.0	1621.0	1621.0	1621.0	1613.0	1613.0	1607.0	1607.0	1607.0	1647.0	1647.0	1617.0	1617.0	1617.0	1620.0	1620.0	1611.0	1611.0	1611.0	1639.0	1639.0	1612.0	1612.0	1659.0	1659.0	1659.0	1601.0	1601.0	1620.0	1620.0	1620.0	1582.0	1582.0	1590.0	1590.0	1590.0	1575.0	1575.0	1652.0	1652.0	1652.0	1623.0	1623.0	1651.0	1651.0	1651.0	1590.0	1590.0	1570.0	1570.0	1570.0	1578.0	1578.0	1634.0	1634.0	1634.0	1627.0	1627.0	1587.0	1587.0	1587.0	1580.0	1580.0	1646.0	1646.0	1646.0	1648.0	1648.0	1648.0	1648.0	1648.0	1606.0	1606.0	1621.0	1621.0	1621.0	1643.0	1643.0	1594.0	1594.0	1594.0	1594.0	1594.0	1580.0	1580.0	1580.0	1648.0	1648.0	1603.0	1603.0	1603.0	1570.0	1570.0	1619.0	1619.0	1619.0	1643.0	1643.0	1643.0	1643.0	1643.0	1623.0	1623.0	1632.0	1632.0	1632.0	1575.0	1575.0	1636.0	1636.0	1636.0	1646.0	1646.0	1610.0	1610.0	1610.0	1574.0	1574.0	1574.0	1574.0	1574.0	1639.0	1639.0	1589.0	1589.0	1589.0	1573.0	1573.0	1627.0	1627.0	1627.0	1600.0	1600.0	1619.0	1619.0	1619.0	1607.0	1607.0	1578.0	1578.0	1578.0	1591.0	1591.0	1590.0	1590.0	1590.0	1569.0	1569.0	1609.0	1609.0	1609.0	1564.0	1564.0	1623.0	1623.0	1623.0	1594.0	1594.0	1594.0	1594.0	1594.0	1612.0	1612.0	1584.0	1584.0	1584.0	1611.0	1611.0	1627.0	1627.0	1627.0	1621.0	1621.0	1615.0	1615.0	1615.0	1626.0	1626.0	1599.0	1599.0	1599.0	1553.0	1553.0	1584.0	1584.0	1584.0	1568.0	1568.0	1597.0	1597.0	1597.0	1620.0	1620.0	1565.0	1565.0	1565.0	1557.0	1557.0	1546.0	1546.0	1546.0	1555.0	1555.0	1616.0	1616.0	1616.0	1616.0	1616.0	1549.0	1549.0	1549.0	1550.0	1550.0	1571.0	1571.0	1571.0	1575.0	1575.0	1576.0	1576.0	1576.0	1562.0	1562.0	1584.0	1584.0	1584.0	1575.0	1575.0	1571.0	1571.0	1640.0	1640.0	1640.0	1596.0	1596.0	1622.0	1622.0	1622.0	1637.0	1637.0	1651.0	1651.0	1651.0	1620.0	1620.0	1627.0	1627.0	1627.0	1617.0	1617.0	1681.0	1681.0	1681.0	1675.0	1675.0	1652.0	1652.0	1652.0	1723.0	1723.0	1736.0	1736.0	1736.0	1699.0	1699.0	1779.0	1779.0	1779.0	1741.0	1741.0	1756.0	1756.0	1756.0	1822.0	1822.0	1795.0	1795.0	1795.0	1874.0	1874.0	1830.0	1830.0	1830.0	1858.0	1858.0	1897.0	1897.0	1897.0	1934.0	1934.0	1964.0	1964.0	1964.0	1959.0	1959.0	2021.0	2021.0	2021.0	2069.0	2069.0	2087.0	2087.0	2087.0	2147.0	2147.0	2126.0	2126.0	2126.0	2160.0	2160.0	2147.0	2147.0	2147.0	2199.0	2199.0	2228.0	2228.0	2228.0	2251.0	2251.0	2314.0	2314.0	2314.0	2319.0	2319.0	2379.0	2379.0	2379.0	2374.0	2374.0	2409.0	2409.0	2409.0	2427.0	2427.0	2398.0	2398.0	2398.0	2438.0	2438.0	2502.0	2502.0	2502.0	2498.0	2498.0	2481.0	2481.0	2481.0	2506.0	2506.0	2533.0	2533.0	2533.0	2530.0	2530.0	2546.0	2546.0	2546.0	2601.0	2601.0	2611.0	2611.0	2611.0	2631.0	2631.0	2606.0	2606.0	2606.0	2608.0	2608.0	2636.0	2636.0	2636.0	2677.0	2677.0	2718.0	2718.0	2718.0	2726.0	2726.0	2668.0	2668.0	2668.0	2742.0	2742.0	2752.0	2752.0	2752.0	2717.0	2717.0	2715.0	2715.0	2715.0	2755.0	2755.0	2708.0	2708.0	2708.0	2770.0	2770.0	2770.0	2770.0	2770.0	2721.0	2721.0	2742.0	2742.0	2742.0	2743.0	2743.0	2759.0	2759.0	2759.0	2767.0	2767.0	2789.0	2789.0	2789.0	2786.0	2786.0	2765.0	2765.0	2765.0	2776.0	2776.0	2762.0	2762.0	2762.0	2763.0	2763.0	2778.0	2778.0	2755.0	2755.0	2755.0	2808.0	2808.0	2749.0	2749.0	2749.0	2733.0	2733.0	2811.0	2811.0	2811.0	2736.0	2736.0	2744.0	2744.0	2744.0	2759.0	2759.0	2747.0	2747.0	2747.0	2802.0	2802.0	2766.0	2766.0	2766.0	2740.0	2740.0	2772.0	2772.0	2772.0	2701.0	2701.0	2726.0	2726.0	2726.0	2755.0	2755.0	2752.0	2752.0	2752.0	2712.0	2712.0	2695.0	2695.0	2695.0	2716.0	2716.0	2730.0	2730.0	2730.0	2718.0	2718.0	2705.0	2705.0	2705.0	2729.0	2729.0	2723.0	2723.0	2723.0	2715.0	2715.0	2636.0	2636.0	2636.0	2630.0	2630.0	2660.0	2660.0	2660.0	2597.0	2597.0	2610.0	2610.0	2610.0	2598.0	2598.0	2636.0	2636.0	2636.0	2622.0	2622.0	2560.0	2560.0	2560.0	2595.0	2595.0	2542.0	2542.0	2542.0	2531.0	2531.0	2512.0	2512.0	2512.0	2517.0	2517.0	2525.0	2525.0	2525.0	2465.0	2465.0	2513.0	2513.0	2513.0	2440.0	2440.0	2434.0	2434.0	2434.0	2437.0	2437.0	2432.0	2432.0	2432.0	2355.0	2355.0	2353.0	2353.0	2353.0	2330.0	2330.0	2334.0	2334.0	2334.0	2275.0	2275.0	2328.0	2328.0	2328.0	2239.0	2239.0	2293.0	2293.0	2293.0	2214.0	2214.0	2205.0	2205.0	2205.0	2240.0	2240.0	2216.0	2216.0	2216.0	2138.0	2138.0	2184.0	2184.0	2184.0	2128.0	2128.0	2167.0	2167.0	2167.0	2080.0	2080.0	2072.0	2072.0	2072.0	2064.0	2064.0	2068.0	2068.0	2068.0	2029.0	2029.0	2042.0	2042.0	2042.0	2040.0	2040.0	2018.0	2018.0	2018.0	1989.0	1989.0	1992.0	1992.0	1992.0	2022.0	2022.0	2001.0	2001.0	2001.0	2017.0	2017.0	2008.0	2008.0	2008.0	2012.0	2012.0	2006.0	2006.0	2006.0	1982.0	1982.0	1977.0	1977.0	1950.0	1950.0	1950.0	1912.0	1912.0	1966.0	1966.0	1966.0	1916.0	1916.0	1928.0	1928.0	1928.0	1893.0	1893.0	1916.0	1916.0	1916.0	1895.0	1895.0	1884.0	1884.0	1884.0	1918.0	1918.0	1867.0	1867.0	1867.0	1927.0	1927.0	1869.0	1869.0	1869.0	1916.0	1916.0	1867.0	1867.0	1867.0	1913.0	1913.0	1877.0	1877.0	1877.0	1911.0	1911.0	1911.0	1911.0	1911.0	1859.0	1859.0	1851.0	1851.0	1851.0	1886.0	1886.0	1874.0	1874.0	1874.0	1864.0	1864.0	1880.0	1880.0	1880.0	1882.0	1882.0	1801.0	1801.0	1801.0	1811.0	1811.0	1798.0	1798.0	1798.0	1814.0	1814.0	1857.0	1857.0	1857.0	1808.0	1808.0	1852.0	1852.0	1852.0	1844.0	1844.0	1837.0	1837.0	1837.0	1773.0	1773.0	1796.0	1796.0	1796.0	1779.0	1779.0	1781.0	1781.0	1781.0	1813.0	1813.0	1756.0	1756.0	1756.0	1764.0	1764.0	1755.0	1755.0	1755.0	1752.0	1752.0	1781.0	1781.0	1781.0	1754.0	1754.0	1740.0	1740.0	1740.0	1783.0	1783.0	1723.0	1723.0	1723.0	1724.0	1724.0	1769.0	1769.0	1769.0	1713.0	1713.0	1776.0	1776.0	1776.0	1763.0	1763.0	1758.0	1758.0	1758.0	1739.0	1739.0	1730.0	1730.0	1730.0	1740.0	1740.0	1748.0	1748.0	1748.0	1678.0	1678.0	1735.0	1735.0	1735.0	1675.0	1675.0	1727.0	1727.0	1727.0	1733.0	1733.0	1701.0	1701.0	1701.0	1666.0	1666.0	1733.0	1733.0	1733.0	1665.0	1665.0	1667.0	1667.0	1667.0	1715.0	1715.0	1678.0	1678.0	1678.0	1655.0	1655.0	1633.0	1633.0	1633.0	1661.0	1661.0	1634.0	1634.0	1634.0	1639.0	1639.0	1655.0	1655.0	1655.0	1699.0	1699.0	1683.0	1683.0	1683.0	1646.0	1646.0	1647.0	1647.0	1647.0	1688.0	1688.0	1699.0	1699.0	1687.0	1687.0	1687.0	1683.0	1683.0	1609.0	1609.0	1609.0	1647.0	1647.0	1614.0	1614.0	1614.0	1615.0	1615.0	1600.0	1600.0	1600.0	1662.0	1662.0	1667.0	1667.0	1667.0	1632.0	1632.0	1610.0	1610.0	1610.0	1606.0	1606.0	1630.0	1630.0	1630.0	1596.0	1596.0	1588.0	1588.0	1588.0	1660.0	1660.0	1641.0	1641.0	1641.0	1606.0	1606.0	1651.0	1651.0	1651.0	1592.0	1592.0	1590.0	1590.0	1590.0	1626.0	1626.0	1616.0	1616.0	1616.0	1624.0	1624.0	1631.0	1631.0	1631.0	1575.0	1575.0	1624.0	1624.0	1624.0	1638.0	1638.0	1639.0	1639.0	1639.0	1655.0	1655.0	1653.0	1653.0	1653.0	1611.0	1611.0	1648.0	1648.0	1648.0	1617.0	1617.0	1577.0	1577.0	1577.0	1576.0	1576.0	1583.0	1583.0	1583.0	1618.0	1618.0	1589.0	1589.0	1589.0	1618.0	1618.0	1647.0	1647.0	1647.0	1611.0	1611.0	1634.0	1634.0	1634.0	1593.0	1593.0	1609.0	1609.0	1609.0	1559.0	1559.0	1569.0	1569.0	1569.0	1567.0	1567.0	1563.0	1563.0	1563.0	1634.0	1634.0	1616.0	1616.0	1616.0	1624.0	1624.0	1552.0	1552.0	1552.0	1593.0	1593.0	1562.0	1562.0	1562.0	1597.0	1597.0	1571.0	1571.0	1571.0	1565.0	1565.0	1563.0	1563.0	1563.0	1581.0	1581.0	1573.0	1573.0	1573.0	1540.0	1540.0	1566.0	1566.0	1566.0	1548.0	1548.0	1545.0	1545.0	1545.0	1576.0	1576.0	1546.0	1546.0	1546.0	1560.0	1560.0	1566.0	1566.0	1566.0	1551.0	1551.0	1557.0	1557.0	1557.0	1547.0	1547.0	1576.0	1576.0	1576.0	1591.0	1591.0	1556.0	1556.0	1556.0	1573.0	1573.0	1570.0	1570.0	1570.0	1623.0	1623.0	1603.0	1603.0	1603.0	1587.0	1587.0	1634.0	1634.0	1561.0	1561.0	1561.0	1612.0	1612.0	1608.0	1608.0	1608.0	1574.0	1574.0	1578.0	1578.0	1578.0	1580.0	1580.0	1590.0	1590.0	1590.0	1606.0	1606.0	1656.0	1656.0	1656.0	1629.0	1629.0	1636.0	1636.0	1636.0	1623.0	1623.0	1644.0	1644.0	1644.0	1673.0	1673.0	1730.0	1730.0	1730.0	1740.0	1740.0	1761.0	1761.0	1761.0	1735.0	1735.0	1731.0	1731.0	1731.0	1751.0	1751.0	1774.0	1774.0	1774.0	1787.0	1787.0	1818.0	1818.0	1818.0	1879.0	1879.0	1932.0	1932.0	1932.0	1944.0	1944.0	1907.0	1907.0	1907.0	1936.0	1936.0	2029.0	2029.0	2029.0	2035.0	2035.0	2075.0	2075.0	2075.0	2067.0	2067.0	2142.0	2142.0	2142.0	2107.0	2107.0	2179.0	2179.0	2179.0	2236.0	2236.0	2243.0	2243.0	2243.0	2218.0	2218.0	2254.0	2254.0	2254.0	2343.0	2343.0	2313.0	2313.0	2313.0	2334.0	2334.0	2341.0	2341.0	2341.0	2360.0	2360.0	2382.0	2382.0	2382.0	2415.0	2415.0	2444.0	2444.0	2444.0	2479.0	2479.0	2514.0	2514.0	2514.0	2508.0	2508.0	2507.0	2507.0	2507.0	2563.0	2563.0	2594.0	2594.0	2594.0	2542.0	2542.0	2559.0	2559.0	2559.0	2575.0	2575.0	2578.0	2578.0	2578.0	2595.0	2595.0	2614.0	2614.0	2614.0	2639.0	2639.0	2657.0	2657.0	2657.0	2623.0	2623.0	2628.0	2628.0	2628.0	2667.0	2667.0	2685.0	2685.0	2685.0	2711.0	2711.0	2678.0	2678.0	2678.0	2666.0	2666.0	2685.0	2685.0	2685.0	2738.0	2738.0	2692.0	2692.0	2692.0	2688.0	2688.0	2753.0	2753.0	2753.0	2737.0	2737.0	2756.0	2756.0	2756.0	2708.0	2708.0	2714.0	2714.0	2714.0	2713.0	2713.0	2746.0	2746.0	2746.0	2728.0	2728.0	2716.0	2716.0	2716.0	2749.0	2749.0	2751.0	2751.0	2743.0	2743.0	2743.0	2710.0	2710.0	2772.0	2772.0	2772.0	2784.0	2784.0	2711.0	2711.0	2711.0	2766.0	2766.0	2765.0	2765.0	2765.0	2771.0	2771.0	2760.0	2760.0	2760.0	2715.0	2715.0	2734.0	2734.0	2734.0	2711.0	2711.0	2745.0	2745.0	2745.0	2702.0	2702.0	2690.0	2690.0	2690.0	2696.0	2696.0	2731.0	2731.0	2731.0	2700.0	2700.0	2686.0	2686.0	2686.0	2715.0	2715.0	2694.0	2694.0	2694.0	2691.0	2691.0	2657.0	2657.0	2657.0	2686.0	2686.0	2625.0	2625.0	2625.0	2618.0	2618.0	2650.0	2650.0	2650.0	2638.0	2638.0	2639.0	2639.0	2639.0	2588.0	2588.0	2635.0	2635.0	2635.0	2546.0	2546.0	2531.0	2531.0	2531.0	2557.0	2557.0	2541.0	2541.0	2541.0	2499.0	2499.0	2538.0	2538.0	2538.0	2543.0	2543.0	2490.0	2490.0	2490.0	2434.0	2434.0	2435.0	2435.0	2435.0	2488.0	2488.0	2460.0	2460.0	2460.0	2445.0	2445.0	2415.0	2415.0	2415.0	2401.0	2401.0	2331.0	2331.0	2331.0	2332.0	2332.0	2310.0	2310.0	2310.0	2275.0	2275.0	2309.0	2309.0	2309.0	2253.0	2253.0	2231.0	2231.0	2231.0	2209.0	2209.0	2187.0	2187.0	2187.0	2174.0	2174.0	2221.0	2221.0	2221.0	2140.0	2140.0	2118.0	2118.0	2118.0	2158.0	2158.0	2092.0	2092.0	2092.0	2093.0	2093.0	2060.0	2060.0	2060.0	2036.0	2036.0	2047.0	2047.0	2047.0	2025.0	2025.0	2029.0	2029.0	2029.0	2048.0	2048.0	2044.0	2044.0	2044.0	2036.0	2036.0	1988.0	1988.0	1988.0	1956.0	1956.0	1948.0	1948.0	1948.0	1960.0	1960.0	1935.0	1935.0	1935.0	1960.0	1960.0	1935.0	1935.0	1935.0	1908.0	1908.0	1963.0	1963.0	1963.0	1913.0	1913.0	1910.0	1910.0	1913.0	1913.0	1913.0	1940.0	1940.0	1941.0	1941.0	1941.0	1937.0	1937.0	1913.0	1913.0	1913.0	1913.0	1913.0	1932.0	1932.0	1932.0	1915.0	1915.0	1862.0	1862.0	1862.0	1850.0	1850.0	1921.0	1921.0	1921.0	1913.0	1913.0	1901.0	1901.0	1901.0	1858.0	1858.0	1892.0	1892.0	1892.0	1891.0	1891.0	1883.0	1883.0	1883.0	1855.0	1855.0	1826.0	1826.0	1826.0	1825.0	1825.0	1811.0	1811.0	1811.0	1834.0	1834.0	1813.0	1813.0	1813.0	1848.0	1848.0	1801.0	1801.0	1801.0	1809.0	1809.0	1782.0	1782.0	1782.0	1842.0	1842.0	1838.0	1838.0	1838.0	1817.0	1817.0	1756.0	1756.0	1756.0	1831.0	1831.0	1764.0	1764.0	1764.0	1782.0	1782.0	1775.0	1775.0	1775.0	1798.0	1798.0	1755.0	1755.0	1755.0	1767.0	1767.0	1813.0	1813.0	1813.0	1765.0	1765.0	1762.0	1762.0	1762.0	1776.0	1776.0	1739.0	1739.0	1739.0	1778.0	1778.0	1767.0	1767.0	1767.0	1714.0	1714.0	1724.0	1724.0	1724.0	1760.0	1760.0	1741.0	1741.0	1741.0	1709.0	1709.0	1715.0	1715.0	1715.0	1759.0	1759.0	1748.0	1748.0	1748.0	1681.0	1681.0	1740.0	1740.0	1740.0	1723.0	1723.0	1728.0	1728.0	1728.0	1673.0	1673.0	1683.0	1683.0	1683.0	1721.0	1721.0	1695.0	1695.0	1695.0	1706.0	1706.0	1705.0	1705.0	1705.0	1654.0	1654.0	1735.0	1735.0	1735.0	1663.0	1663.0	1658.0	1658.0	1658.0	1709.0	1709.0	1709.0	1709.0	1709.0	1640.0	1640.0	1641.0	1641.0	1641.0	1690.0	1690.0	1669.0	1669.0	1669.0	1649.0	1649.0	1647.0	1647.0	1647.0	1671.0	1671.0	1617.0	1617.0	1617.0	1678.0	1678.0	1675.0	1675.0	1675.0	1667.0	1667.0	1663.0	1663.0	1618.0	1618.0	1618.0	1632.0	1632.0	1638.0	1638.0	1638.0	1642.0	1642.0	1652.0	1652.0	1652.0	1675.0	1675.0	1651.0	1651.0	1651.0	1602.0	1602.0	1652.0	1652.0	1652.0	1600.0	1600.0	1612.0	1612.0	1612.0	1596.0	1596.0	1595.0	1595.0	1595.0	1585.0	1585.0	1579.0	1579.0	1579.0	1649.0	1649.0	1620.0	1620.0	1620.0	1635.0	1635.0	1635.0	1635.0	1635.0	1634.0	1634.0	1585.0	1585.0	1585.0	1586.0	1586.0	1603.0	1603.0	1603.0	1629.0	1629.0	1649.0	1649.0	1649.0	1650.0	1650.0	1647.0	1647.0	1647.0	1636.0	1636.0	1639.0	1639.0	1639.0	1580.0	1580.0	1568.0	1568.0	1568.0	1566.0	1566.0	1642.0	1642.0	1642.0	1584.0	1584.0	1577.0	1577.0	1577.0	1583.0	1583.0	1641.0	1641.0	1641.0	1600.0	1600.0	1601.0	1601.0	1601.0	1636.0	1636.0	1619.0	1619.0	1619.0	1617.0	1617.0	1606.0	1606.0	1606.0	1638.0	1638.0	1622.0	1622.0	1622.0	1592.0	1592.0	1624.0	1624.0	1624.0	1625.0	1625.0	1628.0	1628.0	1628.0	1587.0	1587.0	1591.0	1591.0	1591.0	1563.0	1563.0	1628.0	1628.0	1628.0	1559.0	1559.0	1554.0	1554.0	1554.0	1553.0	1553.0	1553.0	1553.0	1553.0	1573.0	1573.0	1564.0	1564.0	1564.0	1558.0	1558.0	1569.0	1569.0	1569.0	1579.0	1579.0	1561.0	1561.0	1561.0	1561.0	1561.0	1559.0	1559.0	1559.0	1615.0	1615.0	1568.0	1568.0	1568.0	1609.0	1609.0	1575.0	1575.0	1575.0	1589.0	1589.0	1591.0	1591.0	1591.0	1587.0	1587.0	1593.0	1593.0	1593.0	1553.0	1553.0	1606.0	1606.0	1606.0	1566.0	1566.0	1601.0	1601.0	1601.0	1558.0	1558.0	1548.0	1548.0	1548.0	1633.0	1633.0	1626.0	1626.0	1626.0	1582.0	1582.0	1619.0	1619.0	1607.0	1607.0	1607.0	1588.0	1588.0	1541.0	1541.0	1541.0	1555.0	1555.0	1624.0	1624.0	1624.0	1553.0	1553.0	1543.0	1543.0	1543.0	1615.0	1615.0	1561.0	1561.0	1561.0	1578.0	1578.0	1570.0	1570.0	1570.0	1590.0	1590.0	1548.0	1548.0	1548.0	1599.0	1599.0	1628.0	1628.0	1628.0	1591.0	1591.0	1559.0	1559.0	1559.0	1567.0	1567.0	1593.0	1593.0	1593.0	1635.0	1635.0	1583.0	1583.0	1583.0	1628.0	1628.0	1657.0	1657.0	1657.0	1641.0	1641.0	1652.0	1652.0	1652.0	1641.0	1641.0	1657.0	1657.0	1657.0	1664.0	1664.0	1696.0	1696.0	1696.0	1711.0	1711.0	1695.0	1695.0	1695.0	1722.0	1722.0	1763.0	1763.0	1763.0	1781.0	1781.0	1798.0	1798.0	1798.0	1810.0	1810.0	1844.0	1844.0	1844.0	1802.0	1802.0	1891.0	1891.0	1891.0	1856.0	1856.0	1916.0	1916.0	1916.0	1960.0	1960.0	1961.0	1961.0	1961.0	1984.0	1984.0	2028.0	2028.0	2028.0	2058.0	2058.0	2086.0	2086.0	2086.0	2086.0	2086.0	2142.0	2142.0	2142.0	2104.0	2104.0	2199.0	2199.0	2199.0	2164.0	2164.0	2222.0	2222.0	2222.0	2235.0	2235.0	2259.0	2259.0	2259.0	2263.0	2263.0	2312.0	2312.0	2312.0	2391.0	2391.0	2353.0	2353.0	2353.0	2365.0	2365.0	2395.0	2395.0	2395.0	2406.0	2406.0	2427.0	2427.0	2427.0	2459.0	2459.0	2513.0	2513.0	2513.0	2481.0	2481.0	2502.0	2502.0	2502.0	2514.0	2514.0	2582.0	2582.0	2582.0	2603.0	2603.0	2585.0	2585.0	2585.0	2577.0	2577.0	2625.0	2625.0	2625.0	2651.0	2651.0	2660.0	2660.0	2660.0	2670.0	2670.0	2667.0	2667.0	2667.0	2712.0	2712.0	2675.0	2675.0	2675.0	2709.0	2709.0	2686.0	2686.0	2689.0	2689.0	2689.0	2698.0	2698.0	2750.0	2750.0	2750.0	2707.0	2707.0	2738.0	2738.0	2738.0	2723.0	2723.0	2716.0	2716.0	2716.0	2720.0	2720.0	2732.0	2732.0	2732.0	2740.0	2740.0	2732.0	2732.0	2732.0	2741.0	2741.0	2777.0	2777.0	