2059.0	2058.0	2058.0	2018.0	2018.0	2018.0	2025.0	2025.0	2006.0	2006.0	2006.0	2008.0	2008.0	1999.0	1999.0	1999.0	2014.0	2014.0	2001.0	2001.0	2001.0	1976.0	1976.0	2006.0	2006.0	2006.0	2013.0	2013.0	1963.0	1963.0	1963.0	1948.0	1948.0	2007.0	2007.0	2007.0	1945.0	1945.0	1990.0	1990.0	1990.0	1990.0	1990.0	2001.0	2001.0	2001.0	1995.0	1995.0	1995.0	1995.0	1995.0	1948.0	1948.0	1935.0	1935.0	1935.0	1940.0	1940.0	1962.0	1962.0	1962.0	1933.0	1933.0	1932.0	1932.0	1932.0	1928.0	1928.0	1959.0	1959.0	1959.0	1920.0	1920.0	1928.0	1928.0	1928.0	1955.0	1955.0	1942.0	1942.0	1942.0	1925.0	1925.0	1884.0	1884.0	1884.0	1891.0	1891.0	1901.0	1901.0	1901.0	1886.0	1886.0	1914.0	1914.0	1914.0	1894.0	1894.0	1902.0	1902.0	1902.0	1860.0	1860.0	1879.0	1879.0	1879.0	1902.0	1902.0	1887.0	1887.0	1887.0	1852.0	1852.0	1886.0	1886.0	1886.0	1882.0	1882.0	1892.0	1892.0	1892.0	1851.0	1851.0	1863.0	1863.0	1863.0	1887.0	1887.0	1830.0	1830.0	1830.0	1861.0	1861.0	1828.0	1828.0	1828.0	1850.0	1850.0	1856.0	1856.0	1856.0	1856.0	1856.0	1835.0	1835.0	1835.0	1881.0	1881.0	1812.0	1812.0	1812.0	1820.0	1820.0	1833.0	1833.0	1833.0	1857.0	1857.0	1838.0	1838.0	1838.0	1834.0	1834.0	1846.0	1846.0	1846.0	1811.0	1811.0	1852.0	1852.0	1852.0	1851.0	1851.0	1831.0	1831.0	1831.0	1820.0	1820.0	1816.0	1816.0	1816.0	1815.0	1815.0	1794.0	1794.0	1794.0	1792.0	1792.0	1834.0	1834.0	1834.0	1780.0	1780.0	1786.0	1786.0	1786.0	1794.0	1794.0	1803.0	1803.0	1803.0	1815.0	1815.0	1820.0	1820.0	1820.0	1752.0	1752.0	1809.0	1809.0	1760.0	1760.0	1760.0	1752.0	1752.0	1766.0	1766.0	1766.0	1750.0	1750.0	1782.0	1782.0	1782.0	1789.0	1789.0	1767.0	1767.0	1767.0	1794.0	1794.0	1811.0	1811.0	1811.0	1784.0	1784.0	1748.0	1748.0	1748.0	1791.0	1791.0	1805.0	1805.0	1805.0	1784.0	1784.0	1800.0	1800.0	1800.0	1759.0	1759.0	1740.0	1740.0	1740.0	1785.0	1785.0	1759.0	1759.0	1759.0	1747.0	1747.0	1743.0	1743.0	1743.0	1793.0	1793.0	1767.0	1767.0	1767.0	1766.0	1766.0	1766.0	1766.0	1766.0	1766.0	1766.0	1771.0	1771.0	1771.0	1792.0	1792.0	1754.0	1754.0	1754.0	1781.0	1781.0	1784.0	1784.0	1784.0	1738.0	1738.0	1775.0	1775.0	1775.0	1735.0	1735.0	1749.0	1749.0	1749.0	1779.0	1779.0	1737.0	1737.0	1737.0	1769.0	1769.0	1732.0	1732.0	1732.0	1747.0	1747.0	1761.0	1761.0	1761.0	1743.0	1743.0	1725.0	1725.0	1725.0	1719.0	1719.0	1751.0	1751.0	1751.0	1709.0	1709.0	1717.0	1717.0	1717.0	1714.0	1714.0	1723.0	1723.0	1723.0	1718.0	1718.0	1758.0	1758.0	1758.0	1772.0	1772.0	1745.0	1745.0	1745.0	1759.0	1759.0	1755.0	1755.0	1755.0	1727.0	1727.0	1777.0	1777.0	1777.0	1735.0	1735.0	1750.0	1750.0	1750.0	1803.0	1803.0	1816.0	1816.0	1816.0	1800.0	1800.0	1800.0	1800.0	1800.0	1832.0	1832.0	1866.0	1866.0	1866.0	1892.0	1892.0	1898.0	1898.0	1898.0	1902.0	1902.0	1909.0	1909.0	1909.0	1928.0	1928.0	1958.0	1958.0	1958.0	2005.0	2005.0	2022.0	2022.0	2022.0	2035.0	2035.0	2075.0	2075.0	2075.0	2040.0	2040.0	2099.0	2099.0	2099.0	2137.0	2137.0	2129.0	2129.0	2129.0	2130.0	2130.0	2193.0	2193.0	2222.0	2222.0	2222.0	2183.0	2183.0	2212.0	2212.0	2212.0	2246.0	2246.0	2307.0	2307.0	2307.0	2257.0	2257.0	2325.0	2325.0	2325.0	2280.0	2280.0	2339.0	2339.0	2339.0	2335.0	2335.0	2366.0	2366.0	2366.0	2342.0	2342.0	2353.0	2353.0	2353.0	2345.0	2345.0	2355.0	2355.0	2355.0	2363.0	2363.0	2383.0	2383.0	2383.0	2413.0	2413.0	2383.0	2383.0	2383.0	2440.0	2440.0	2398.0	2398.0	2398.0	2447.0	2447.0	2457.0	2457.0	2457.0	2406.0	2406.0	2451.0	2451.0	2451.0	2445.0	2445.0	2459.0	2459.0	2459.0	2451.0	2451.0	2459.0	2459.0	2459.0	2488.0	2488.0	2448.0	2448.0	2448.0	2480.0	2480.0	2431.0	2431.0	2431.0	2423.0	2423.0	2447.0	2447.0	2447.0	2442.0	2442.0	2472.0	2472.0	2472.0	2422.0	2422.0	2470.0	2470.0	2470.0	2459.0	2459.0	2418.0	2418.0	2418.0	2480.0	2480.0	2429.0	2429.0	2429.0	2450.0	2450.0	2424.0	2424.0	2424.0	2467.0	2467.0	2450.0	2450.0	2450.0	2460.0	2460.0	2406.0	2406.0	2406.0	2452.0	2452.0	2407.0	2407.0	2407.0	2384.0	2384.0	2424.0	2424.0	2424.0	2400.0	2400.0	2376.0	2376.0	2376.0	2398.0	2398.0	2381.0	2381.0	2381.0	2398.0	2398.0	2406.0	2406.0	2406.0	2374.0	2374.0	2365.0	2365.0	2365.0	2363.0	2363.0	2367.0	2367.0	2367.0	2351.0	2351.0	2316.0	2316.0	2316.0	2339.0	2339.0	2304.0	2304.0	2304.0	2316.0	2316.0	2309.0	2309.0	2309.0	2280.0	2280.0	2266.0	2266.0	2266.0	2293.0	2293.0	2290.0	2290.0	2290.0	2271.0	2271.0	2210.0	2210.0	2210.0	2201.0	2201.0	2203.0	2203.0	2203.0	2175.0	2175.0	2194.0	2194.0	2194.0	2200.0	2200.0	2186.0	2186.0	2186.0	2159.0	2159.0	2125.0	2125.0	2134.0	2134.0	2134.0	2142.0	2142.0	2092.0	2092.0	2092.0	2137.0	2137.0	2136.0	2136.0	2136.0	2073.0	2073.0	2060.0	2060.0	2060.0	2051.0	2051.0	2102.0	2102.0	2102.0	2044.0	2044.0	2027.0	2027.0	2027.0	2067.0	2067.0	2046.0	2046.0	2046.0	2022.0	2022.0	2028.0	2028.0	2028.0	2025.0	2025.0	1987.0	1987.0	1987.0	2033.0	2033.0	1977.0	1977.0	1977.0	2016.0	2016.0	2023.0	2023.0	2023.0	1976.0	1976.0	1963.0	1963.0	1963.0	1971.0	1971.0	1992.0	1992.0	1992.0	1967.0	1967.0	1945.0	1945.0	1945.0	1990.0	1990.0	1972.0	1972.0	1972.0	1943.0	1943.0	1974.0	1974.0	1974.0	1948.0	1948.0	1933.0	1933.0	1933.0	1968.0	1968.0	1966.0	1966.0	1966.0	1974.0	1974.0	1981.0	1981.0	1981.0	1942.0	1942.0	1913.0	1913.0	1913.0	1949.0	1949.0	1937.0	1937.0	1937.0	1933.0	1933.0	1909.0	1909.0	1909.0	1922.0	1922.0	1899.0	1899.0	1899.0	1941.0	1941.0	1904.0	1904.0	1904.0	1901.0	1901.0	1877.0	1877.0	1877.0	1883.0	1883.0	1885.0	1885.0	1885.0	1923.0	1923.0	1918.0	1918.0	1918.0	1883.0	1883.0	1909.0	1909.0	1909.0	1897.0	1897.0	1919.0	1919.0	1919.0	1886.0	1886.0	1856.0	1856.0	1856.0	1895.0	1895.0	1873.0	1873.0	1873.0	1878.0	1878.0	1874.0	1874.0	1874.0	1862.0	1862.0	1836.0	1836.0	1836.0	1872.0	1872.0	1893.0	1893.0	1893.0	1857.0	1857.0	1849.0	1849.0	1849.0	1826.0	1826.0	1881.0	1881.0	1881.0	1864.0	1864.0	1857.0	1857.0	1857.0	1827.0	1827.0	1822.0	1822.0	1822.0	1852.0	1852.0	1809.0	1809.0	1809.0	1863.0	1863.0	1814.0	1814.0	1814.0	1863.0	1863.0	1807.0	1807.0	1816.0	1816.0	1816.0	1853.0	1853.0	1850.0	1850.0	1850.0	1783.0	1783.0	1832.0	1832.0	1832.0	1818.0	1818.0	1814.0	1814.0	1814.0	1819.0	1819.0	1830.0	1830.0	1830.0	1834.0	1834.0	1835.0	1835.0	1835.0	1774.0	1774.0	1790.0	1790.0	1790.0	1832.0	1832.0	1779.0	1779.0	1779.0	1822.0	1822.0	1801.0	1801.0	1801.0	1827.0	1827.0	1817.0	1817.0	1817.0	1764.0	1764.0	1795.0	1795.0	1795.0	1795.0	1795.0	1784.0	1784.0	1784.0	1820.0	1820.0	1778.0	1778.0	1778.0	1799.0	1799.0	1767.0	1767.0	1767.0	1743.0	1743.0	1753.0	1753.0	1753.0	1746.0	1746.0	1752.0	1752.0	1752.0	1789.0	1789.0	1737.0	1737.0	1737.0	1795.0	1795.0	1798.0	1798.0	1798.0	1795.0	1795.0	1740.0	1740.0	1740.0	1794.0	1794.0	1801.0	1801.0	1801.0	1795.0	1795.0	1781.0	1781.0	1781.0	1740.0	1740.0	1786.0	1786.0	1786.0	1778.0	1778.0	1779.0	1779.0	1779.0	1735.0	1735.0	1792.0	1792.0	1792.0	1788.0	1788.0	1737.0	1737.0	1737.0	1767.0	1767.0	1722.0	1722.0	1722.0	1770.0	1770.0	1719.0	1719.0	1719.0	1741.0	1741.0	1770.0	1770.0	1770.0	1718.0	1718.0	1722.0	1722.0	1722.0	1787.0	1787.0	1737.0	1737.0	1737.0	1730.0	1730.0	1744.0	1744.0	1744.0	1723.0	1723.0	1756.0	1756.0	1756.0	1764.0	1764.0	1719.0	1719.0	1719.0	1739.0	1739.0	1713.0	1713.0	1713.0	1719.0	1719.0	1719.0	1719.0	1719.0	1731.0	1731.0	1753.0	1753.0	1753.0	1720.0	1720.0	1780.0	1780.0	1780.0	1790.0	1790.0	1780.0	1780.0	1780.0	1785.0	1785.0	1746.0	1746.0	1746.0	1788.0	1788.0	1823.0	1823.0	1823.0	1819.0	1819.0	1787.0	1787.0	1833.0	1833.0	1833.0	1811.0	1811.0	1834.0	1834.0	1834.0	1871.0	1871.0	1899.0	1899.0	1899.0	1899.0	1899.0	1906.0	1906.0	1906.0	1910.0	1910.0	1958.0	1958.0	1958.0	1955.0	1955.0	1970.0	1970.0	1970.0	2028.0	2028.0	2016.0	2016.0	2016.0	2059.0	2059.0	2114.0	2114.0	2114.0	2084.0	2084.0	2128.0	2128.0	2128.0	2113.0	2113.0	2113.0	2113.0	2113.0	2151.0	2151.0	2213.0	2213.0	2213.0	2199.0	2199.0	2267.0	2267.0	2267.0	2239.0	2239.0	2272.0	2272.0	2272.0	2276.0	2276.0	2262.0	2262.0	2262.0	2293.0	2293.0	2282.0	2282.0	2282.0	2329.0	2329.0	2298.0	2298.0	2298.0	2322.0	2322.0	2339.0	2339.0	2339.0	2332.0	2332.0	2388.0	2388.0	2388.0	2351.0	2351.0	2402.0	2402.0	2402.0	2420.0	2420.0	2429.0	2429.0	2429.0	2379.0	2379.0	2380.0	2380.0	2380.0	2428.0	2428.0	2425.0	2425.0	2425.0	2400.0	2400.0	2441.0	2441.0	2441.0	2392.0	2392.0	2446.0	2446.0	2446.0	2405.0	2405.0	2428.0	2428.0	2428.0	2457.0	2457.0	2428.0	2428.0	2428.0	2454.0	2454.0	2438.0	2438.0	2438.0	2404.0	2404.0	2404.0	2404.0	2404.0	2466.0	2466.0	2422.0	2422.0	2422.0	2457.0	2457.0	2434.0	2434.0	2434.0	2444.0	2444.0	2419.0	2419.0	2419.0	2440.0	2440.0	2398.0	2398.0	2398.0	2396.0	2396.0	2390.0	2390.0	2390.0	2426.0	2426.0	2396.0	2396.0	2396.0	2442.0	2442.0	2415.0	2415.0	2415.0	2401.0	2401.0	2403.0	2403.0	2403.0	2367.0	2367.0	2419.0	2419.0	2419.0	2378.0	2378.0	2342.0	2342.0	2342.0	2342.0	2342.0	2388.0	2388.0	2388.0	2323.0	2323.0	2339.0	2339.0	2339.0	2310.0	2310.0	2293.0	2293.0	2293.0	2290.0	2290.0	2320.0	2320.0	2296.0	2296.0	2296.0	2309.0	2309.0	2268.0	2268.0	2268.0	2253.0	2253.0	2228.0	2228.0	2228.0	2274.0	2274.0	2268.0	2268.0	2268.0	2222.0	2222.0	2236.0	2236.0	2236.0	2174.0	2174.0	2200.0	2200.0	2200.0	2160.0	2160.0	2178.0	2178.0	2178.0	2148.0	2148.0	2128.0	2128.0	2128.0	2127.0	2127.0	2153.0	2153.0	2153.0	2138.0	2138.0	2132.0	2132.0	2132.0	2104.0	2104.0	2115.0	2115.0	2115.0	2074.0	2074.0	2119.0	2119.0	2119.0	2072.0	2072.0	2071.0	2071.0	2071.0	2049.0	2049.0	2041.0	2041.0	2041.0	2028.0	2028.0	2036.0	2036.0	2036.0	2040.0	2040.0	2059.0	2059.0	2059.0	2054.0	2054.0	1997.0	1997.0	1997.0	2004.0	2004.0	2039.0	2039.0	2039.0	1987.0	1987.0	2042.0	2042.0	2042.0	2045.0	2045.0	1998.0	1998.0	1998.0	2033.0	2033.0	2026.0	2026.0	2026.0	2014.0	2014.0	1972.0	1972.0	1972.0	1954.0	1954.0	1991.0	1991.0	1991.0	2000.0	2000.0	1971.0	1971.0	1971.0	2003.0	2003.0	1955.0	1955.0	1955.0	2000.0	2000.0	1988.0	1988.0	1988.0	2002.0	2002.0	1993.0	1993.0	1993.0	1989.0	1989.0	1926.0	1926.0	1926.0	1926.0	1926.0	1957.0	1957.0	1957.0	1969.0	1969.0	1972.0	1972.0	1972.0	1969.0	1969.0	1932.0	1932.0	1932.0	1928.0	1928.0	1923.0	1923.0	1923.0	1949.0	1949.0	1903.0	1903.0	1903.0	1909.0	1909.0	1920.0	1920.0	1920.0	1921.0	1921.0	1910.0	1910.0	1910.0	1958.0	1958.0	1911.0	1911.0	1911.0	1894.0	1894.0	1895.0	1895.0	1895.0	1915.0	1915.0	1899.0	1899.0	1899.0	1886.0	1886.0	1922.0	1922.0	1922.0	1901.0	1901.0	1885.0	1885.0	1885.0	1882.0	1882.0	1884.0	1884.0	1899.0	1899.0	1899.0	1867.0	1867.0	1920.0	1920.0	1920.0	1911.0	1911.0	1864.0	1864.0	1864.0	1908.0	1908.0	1875.0	1875.0	1875.0	1862.0	1862.0	1885.0	1885.0	1885.0	1898.0	1898.0	1888.0	1888.0	1888.0	1867.0	1867.0	1890.0	1890.0	1890.0	1857.0	1857.0	1855.0	1855.0	1855.0	1902.0	1902.0	1878.0	1878.0	1878.0	1855.0	1855.0	1828.0	1828.0	1828.0	1884.0	1884.0	1868.0	1868.0	1868.0	1835.0	1835.0	1888.0	1888.0	1888.0	1823.0	1823.0	1877.0	1877.0	1877.0	1848.0	1848.0	1839.0	1839.0	1839.0	1845.0	1845.0	1875.0	1875.0	1875.0	1859.0	1859.0	1836.0	1836.0	1836.0	1835.0	1835.0	1842.0	1842.0	1842.0	1829.0	1829.0	1805.0	1805.0	1805.0	1855.0	1855.0	1835.0	1835.0	1835.0	1840.0	1840.0	1797.0	1797.0	1797.0	1802.0	1802.0	1823.0	1823.0	1823.0	1787.0	1787.0	1804.0	1804.0	1804.0	1839.0	1839.0	1844.0	1844.0	1844.0	1828.0	1828.0	1789.0	1789.0	1789.0	1788.0	1788.0	1793.0	1793.0	1793.0	1791.0	1791.0	1832.0	1832.0	1832.0	1820.0	1820.0	1851.0	1851.0	1851.0	1777.0	1777.0	1793.0	1793.0	1793.0	1813.0	1813.0	1808.0	1808.0	1808.0	1806.0	1806.0	1823.0	1823.0	1823.0	1767.0	1767.0	1806.0	1806.0	1806.0	1824.0	1824.0	1788.0	1788.0	1788.0	1766.0	1766.0	1782.0	1782.0	1782.0	1784.0	1784.0	1758.0	1758.0	1758.0	1779.0	1779.0	1768.0	1768.0	1768.0	1773.0	1773.0	1763.0	1763.0	1763.0	1747.0	1747.0	1772.0	1772.0	1772.0	1758.0	1758.0	1753.0	1753.0	1753.0	1760.0	1760.0	1776.0	1776.0	1776.0	1771.0	1771.0	1734.0	1734.0	1734.0	1749.0	1749.0	1741.0	1741.0	1752.0	1752.0	1752.0	1752.0	1752.0	1770.0	1770.0	1770.0	1759.0	1759.0	1784.0	1784.0	1784.0	1772.0	1772.0	1782.0	1782.0	1782.0	1774.0	1774.0	1756.0	1756.0	1756.0	1741.0	1741.0	1774.0	1774.0	1774.0	1786.0	1786.0	1744.0	1744.0	1744.0	1805.0	1805.0	1757.0	1757.0	1757.0	1797.0	1797.0	1800.0	1800.0	1800.0	1804.0	1804.0	1804.0	1804.0	1804.0	1787.0	1787.0	1845.0	1845.0	1845.0	1818.0	1818.0	1810.0	1810.0	1810.0	1876.0	1876.0	1864.0	1864.0	1864.0	1853.0	1853.0	1894.0	1894.0	1894.0	1899.0	1899.0	1942.0	1942.0	1942.0	1982.0	1982.0	2000.0	2000.0	2000.0	1978.0	1978.0	2026.0	2026.0	2026.0	2040.0	2040.0	2050.0	2050.0	2050.0	2081.0	2081.0	2107.0	2107.0	2107.0	2101.0	2101.0	2126.0	2126.0	2126.0	2179.0	2179.0	2175.0	2175.0	2175.0	2190.0	2190.0	2230.0	2230.0	2230.0	2190.0	2190.0	2260.0	2260.0	2260.0	2264.0	2264.0	2288.0	2288.0	2288.0	2292.0	2292.0	2254.0	2254.0	2254.0	2283.0	2283.0	2307.0	2307.0	2307.0	2343.0	2343.0	2359.0	2359.0	2359.0	2314.0	2314.0	2318.0	2318.0	2318.0	2385.0	2385.0	2403.0	2403.0	2403.0	2362.0	2362.0	2358.0	2358.0	2358.0	2400.0	2400.0	2398.0	2398.0	2398.0	2400.0	2400.0	2378.0	2378.0	2378.0	2379.0	2379.0	2439.0	2439.0	2439.0	2405.0	2405.0	2433.0	2433.0	2433.0	2440.0	2440.0	2399.0	2399.0	2399.0	2424.0	2424.0	2396.0	2396.0	2396.0	2400.0	2400.0	2414.0	2414.0	2414.0	2425.0	2425.0	2415.0	2415.0	2415.0	2433.0	2433.0	2429.0	2429.0	2429.0	2432.0	2432.0	2426.0	2426.0	2426.0	2387.0	2387.0	2398.0	2398.0	2398.0	2396.0	2396.0	2415.0	2415.0	2391.0	2391.0	2391.0	2396.0	2396.0	2418.0	2418.0	2418.0	2362.0	2362.0	2363.0	2363.0	2363.0	2349.0	2349.0	2395.0	2395.0	2395.0	2373.0	2373.0	2340.0	2340.0	2340.0	2326.0	2326.0	2314.0	2314.0	2314.0	2355.0	2355.0	2341.0	2341.0	2341.0	2296.0	2296.0	2318.0	2318.0	2318.0	2283.0	2283.0	2330.0	2330.0	2330.0	2311.0	2311.0	2263.0	2263.0	2263.0	2281.0	2281.0	2261.0	2261.0	2261.0	2269.0	2269.0	2219.0	2219.0	2219.0	2247.0	2247.0	2254.0	2254.0	2254.0	2244.0	2244.0	2179.0	2179.0	2179.0	2181.0	2181.0	2175.0	2175.0	2175.0	2156.0	2156.0	2173.0	2173.0	2173.0	2144.0	2144.0	2187.0	2187.0	2187.0	2114.0	2114.0	2106.0	2106.0	2106.0	2155.0	2155.0	2088.0	2088.0	2088.0	2139.0	2139.0	2139.0	2139.0	2139.0	2065.0	2065.0	2065.0	2065.0	2065.0	2073.0	2073.0	2060.0	2060.0	2060.0	2079.0	2079.0	2082.0	2082.0	2082.0	2065.0	2065.0	2078.0	2078.0	2078.0	2007.0	2007.0	2035.0	2035.0	2035.0	2048.0	2048.0	1989.0	1989.0	1989.0	2030.0	2030.0	1986.0	1986.0	1986.0	2032.0	2032.0	1973.0	1973.0	1973.0	1977.0	1977.0	1968.0	1968.0	1968.0	1994.0	1994.0	1966.0	1966.0	1966.0	1950.0	1950.0	1951.0	1951.0	1951.0	1977.0	1977.0	2002.0	2002.0	2002.0	2006.0	2006.0	1948.0	1948.0	1948.0	1984.0	1984.0	1941.0	1941.0	1941.0	1968.0	1968.0	1980.0	1980.0	1980.0	1995.0	1995.0	1985.0	1985.0	1985.0	1922.0	1922.0	1983.0	1983.0	1983.0	1982.0	1982.0	1926.0	1926.0	1926.0	1950.0	1950.0	1907.0	1907.0	1907.0	1946.0	1946.0	1967.0	1967.0	1967.0	1979.0	1979.0	1960.0	1960.0	1968.0	1968.0	1968.0	1960.0	1960.0	1910.0	1910.0	1910.0	1961.0	1961.0	1910.0	1910.0	1910.0	1963.0	1963.0	1955.0	1955.0	1955.0	1905.0	1905.0	1897.0	1897.0	1897.0	1896.0	1896.0	1898.0	1898.0	1898.0	1896.0	1896.0	1902.0	1902.0	1902.0	1931.0	1931.0	1944.0	1944.0	1944.0	1883.0	1883.0	1920.0	1920.0	1920.0	1893.0	1893.0	1899.0	1899.0	1899.0	1897.0	1897.0	1883.0	1883.0	1883.0	1882.0	1882.0	1921.0	1921.0	