1762.0	1762.0	1758.0	1758.0	1734.0	1734.0	1734.0	1741.0	1741.0	1765.0	1765.0	1753.0	1753.0	1753.0	1770.0	1770.0	1760.0	1760.0	1760.0	1788.0	1788.0	1771.0	1771.0	1771.0	1758.0	1758.0	1761.0	1761.0	1761.0	1786.0	1786.0	1816.0	1816.0	1816.0	1827.0	1827.0	1827.0	1827.0	1827.0	1870.0	1870.0	1890.0	1890.0	1890.0	1927.0	1927.0	1937.0	1937.0	1937.0	1921.0	1921.0	1980.0	1980.0	1980.0	1973.0	1973.0	2031.0	2031.0	2031.0	2045.0	2045.0	2072.0	2072.0	2072.0	2089.0	2089.0	2127.0	2127.0	2127.0	2129.0	2129.0	2180.0	2180.0	2180.0	2180.0	2180.0	2229.0	2229.0	2229.0	2255.0	2255.0	2281.0	2281.0	2281.0	2297.0	2297.0	2290.0	2290.0	2290.0	2356.0	2356.0	2354.0	2354.0	2354.0	2358.0	2358.0	2389.0	2389.0	2389.0	2411.0	2411.0	2431.0	2431.0	2431.0	2439.0	2439.0	2452.0	2452.0	2452.0	2464.0	2464.0	2456.0	2456.0	2456.0	2475.0	2475.0	2499.0	2499.0	2499.0	2473.0	2473.0	2510.0	2510.0	2510.0	2499.0	2499.0	2467.0	2467.0	2467.0	2474.0	2474.0	2475.0	2475.0	2475.0	2502.0	2502.0	2493.0	2493.0	2493.0	2506.0	2506.0	2509.0	2509.0	2509.0	2495.0	2495.0	2462.0	2462.0	2462.0	2479.0	2479.0	2486.0	2486.0	2486.0	2463.0	2463.0	2495.0	2495.0	2495.0	2450.0	2450.0	2452.0	2452.0	2452.0	2477.0	2477.0	2440.0	2440.0	2440.0	2429.0	2429.0	2448.0	2448.0	2448.0	2422.0	2422.0	2434.0	2434.0	2434.0	2428.0	2428.0	2426.0	2426.0	2426.0	2399.0	2399.0	2396.0	2396.0	2396.0	2397.0	2397.0	2399.0	2399.0	2399.0	2390.0	2390.0	2365.0	2365.0	2365.0	2386.0	2386.0	2371.0	2371.0	2371.0	2376.0	2376.0	2327.0	2327.0	2327.0	2329.0	2329.0	2324.0	2324.0	2324.0	2315.0	2315.0	2336.0	2336.0	2311.0	2311.0	2311.0	2332.0	2332.0	2316.0	2316.0	2316.0	2278.0	2278.0	2264.0	2264.0	2264.0	2283.0	2283.0	2267.0	2267.0	2267.0	2271.0	2271.0	2222.0	2222.0	2222.0	2243.0	2243.0	2234.0	2234.0	2234.0	2241.0	2241.0	2219.0	2219.0	2219.0	2202.0	2202.0	2195.0	2195.0	2195.0	2198.0	2198.0	2194.0	2194.0	2194.0	2154.0	2154.0	2150.0	2150.0	2150.0	2144.0	2144.0	2135.0	2135.0	2135.0	2115.0	2115.0	2115.0	2115.0	2115.0	2094.0	2094.0	2076.0	2076.0	2076.0	2066.0	2066.0	2060.0	2060.0	2060.0	2033.0	2033.0	2050.0	2050.0	2050.0	2009.0	2009.0	2016.0	2016.0	2016.0	2015.0	2015.0	1980.0	1980.0	1980.0	1999.0	1999.0	1969.0	1969.0	1969.0	1995.0	1995.0	1945.0	1945.0	1945.0	1950.0	1950.0	1940.0	1940.0	1940.0	1937.0	1937.0	1935.0	1935.0	1935.0	1913.0	1913.0	1913.0	1913.0	1913.0	1923.0	1923.0	1912.0	1912.0	1912.0	1911.0	1911.0	1928.0	1928.0	1928.0	1905.0	1905.0	1896.0	1896.0	1896.0	1907.0	1907.0	1875.0	1875.0	1875.0	1878.0	1878.0	1903.0	1903.0	1903.0	1886.0	1886.0	1859.0	1859.0	1859.0	1879.0	1879.0	1871.0	1871.0	1871.0	1871.0	1871.0	1882.0	1882.0	1882.0	1911.0	1911.0	1871.0	1871.0	1871.0	1876.0	1876.0	1862.0	1862.0	1862.0	1872.0	1872.0	1872.0	1872.0	1872.0	1852.0	1852.0	1853.0	1853.0	1853.0	1883.0	1883.0	1836.0	1836.0	1836.0	1854.0	1854.0	1849.0	1849.0	1849.0	1882.0	1882.0	1854.0	1854.0	1854.0	1866.0	1866.0	1826.0	1826.0	1826.0	1823.0	1823.0	1825.0	1825.0	1825.0	1831.0	1831.0	1842.0	1842.0	1842.0	1818.0	1818.0	1818.0	1818.0	1839.0	1839.0	1839.0	1811.0	1811.0	1826.0	1826.0	1826.0	1820.0	1820.0	1833.0	1833.0	1833.0	1806.0	1806.0	1801.0	1801.0	1801.0	1806.0	1806.0	1814.0	1814.0	1814.0	1809.0	1809.0	1769.0	1769.0	1769.0	1755.0	1755.0	1786.0	1786.0	1786.0	1792.0	1792.0	1771.0	1771.0	1771.0	1762.0	1762.0	1747.0	1747.0	1747.0	1755.0	1755.0	1754.0	1754.0	1754.0	1730.0	1730.0	1734.0	1734.0	1734.0	1731.0	1731.0	1732.0	1732.0	1732.0	1726.0	1726.0	1730.0	1730.0	1730.0	1729.0	1729.0	1731.0	1731.0	1731.0	1723.0	1723.0	1695.0	1695.0	1695.0	1734.0	1734.0	1705.0	1705.0	1705.0	1709.0	1709.0	1681.0	1681.0	1681.0	1707.0	1707.0	1694.0	1694.0	1694.0	1721.0	1721.0	1673.0	1673.0	1673.0	1687.0	1687.0	1689.0	1689.0	1689.0	1686.0	1686.0	1686.0	1686.0	1686.0	1667.0	1667.0	1692.0	1692.0	1692.0	1638.0	1638.0	1681.0	1681.0	1681.0	1675.0	1675.0	1651.0	1651.0	1651.0	1643.0	1643.0	1669.0	1669.0	1669.0	1657.0	1657.0	1670.0	1670.0	1670.0	1657.0	1657.0	1631.0	1631.0	1631.0	1638.0	1638.0	1655.0	1655.0	1655.0	1655.0	1655.0	1627.0	1627.0	1627.0	1641.0	1641.0	1634.0	1634.0	1634.0	1622.0	1622.0	1640.0	1640.0	1640.0	1620.0	1620.0	1626.0	1626.0	1626.0	1620.0	1620.0	1616.0	1616.0	1616.0	1630.0	1630.0	1592.0	1592.0	1592.0	1591.0	1591.0	1619.0	1619.0	1619.0	1595.0	1595.0	1609.0	1609.0	1609.0	1574.0	1574.0	1575.0	1575.0	1575.0	1579.0	1579.0	1568.0	1568.0	1568.0	1556.0	1556.0	1556.0	1556.0	1556.0	1564.0	1564.0	1566.0	1566.0	1566.0	1552.0	1552.0	1553.0	1553.0	1575.0	1575.0	1575.0	1553.0	1553.0	1580.0	1580.0	1580.0	1567.0	1567.0	1583.0	1583.0	1583.0	1559.0	1559.0	1560.0	1560.0	1560.0	1590.0	1590.0	1562.0	1562.0	1562.0	1591.0	1591.0	1571.0	1571.0	1571.0	1623.0	1623.0	1619.0	1619.0	1619.0	1614.0	1614.0	1649.0	1649.0	1649.0	1679.0	1679.0	1682.0	1682.0	1682.0	1682.0	1682.0	1682.0	1682.0	1682.0	1780.0	1780.0	1783.0	1783.0	1783.0	1795.0	1795.0	1839.0	1839.0	1839.0	1882.0	1882.0	1875.0	1875.0	1875.0	1921.0	1921.0	1961.0	1961.0	1961.0	2008.0	2008.0	2011.0	2011.0	2011.0	2045.0	2045.0	2071.0	2071.0	2071.0	2087.0	2087.0	2132.0	2132.0	2132.0	2180.0	2180.0	2214.0	2214.0	2214.0	2210.0	2210.0	2256.0	2256.0	2256.0	2267.0	2267.0	2279.0	2279.0	2279.0	2339.0	2339.0	2332.0	2332.0	2332.0	2364.0	2364.0	2400.0	2400.0	2400.0	2414.0	2414.0	2418.0	2418.0	2418.0	2424.0	2424.0	2437.0	2437.0	2437.0	2460.0	2460.0	2469.0	2469.0	2469.0	2439.0	2439.0	2475.0	2475.0	2475.0	2463.0	2463.0	2478.0	2478.0	2478.0	2476.0	2476.0	2485.0	2485.0	2485.0	2487.0	2487.0	2472.0	2472.0	2472.0	2503.0	2503.0	2487.0	2487.0	2487.0	2485.0	2485.0	2464.0	2464.0	2464.0	2471.0	2471.0	2463.0	2463.0	2463.0	2434.0	2434.0	2453.0	2453.0	2453.0	2455.0	2455.0	2454.0	2454.0	2454.0	2444.0	2444.0	2406.0	2406.0	2406.0	2413.0	2413.0	2417.0	2417.0	2417.0	2390.0	2390.0	2405.0	2405.0	2405.0	2368.0	2368.0	2373.0	2373.0	2373.0	2372.0	2372.0	2352.0	2352.0	2352.0	2331.0	2331.0	2335.0	2335.0	2335.0	2346.0	2346.0	2351.0	2351.0	2351.0	2323.0	2323.0	2311.0	2311.0	2292.0	2292.0	2292.0	2290.0	2290.0	2274.0	2274.0	2274.0	2265.0	2265.0	2272.0	2272.0	2272.0	2249.0	2249.0	2226.0	2226.0	2226.0	2246.0	2246.0	2215.0	2215.0	2215.0	2250.0	2250.0	2229.0	2229.0	2229.0	2203.0	2203.0	2189.0	2189.0	2189.0	2172.0	2172.0	2190.0	2190.0	2190.0	2183.0	2183.0	2175.0	2175.0	2175.0	2155.0	2155.0	2159.0	2159.0	2159.0	2157.0	2157.0	2115.0	2115.0	2115.0	2092.0	2092.0	2100.0	2100.0	2100.0	2065.0	2065.0	2076.0	2076.0	2076.0	2055.0	2055.0	2027.0	2027.0	2027.0	2056.0	2056.0	2040.0	2040.0	2040.0	2017.0	2017.0	1999.0	1999.0	1999.0	1997.0	1997.0	1969.0	1969.0	1969.0	1974.0	1974.0	1939.0	1939.0	1939.0	1968.0	1968.0	1936.0	1936.0	1936.0	1935.0	1935.0	1910.0	1910.0	1910.0	1887.0	1887.0	1914.0	1914.0	1914.0	1873.0	1873.0	1880.0	1880.0	1880.0	1873.0	1873.0	1879.0	1879.0	1879.0	1862.0	1862.0	1865.0	1865.0	1865.0	1839.0	1839.0	1830.0	1830.0	1830.0	1851.0	1851.0	1834.0	1834.0	1834.0	1859.0	1859.0	1863.0	1863.0	1863.0	1830.0	1830.0	1824.0	1824.0	1824.0	1822.0	1822.0	1812.0	1812.0	1812.0	1812.0	1812.0	1813.0	1813.0	1813.0	1833.0	1833.0	1850.0	1850.0	1850.0	1825.0	1825.0	1838.0	1838.0	1838.0	1815.0	1815.0	1856.0	1856.0	1856.0	1827.0	1827.0	1814.0	1814.0	1814.0	1848.0	1848.0	1824.0	1824.0	1824.0	1823.0	1823.0	1844.0	1844.0	1844.0	1858.0	1858.0	1856.0	1856.0	1856.0	1881.0	1881.0	1841.0	1841.0	1841.0	1863.0	1863.0	1856.0	1856.0	1856.0	1848.0	1848.0	1882.0	1882.0	1882.0	1875.0	1875.0	1876.0	1876.0	1880.0	1880.0	1880.0	1870.0	1870.0	1867.0	1867.0	1867.0	1888.0	1888.0	1889.0	1889.0	1889.0	1898.0	1898.0	1866.0	1866.0	1866.0	1897.0	1897.0	1902.0	1902.0	1902.0	1861.0	1861.0	1915.0	1915.0	1915.0	1886.0	1886.0	1862.0	1862.0	1862.0	1869.0	1869.0	1860.0	1860.0	1860.0	1891.0	1891.0	1879.0	1879.0	1879.0	1896.0	1896.0	1889.0	1889.0	1889.0	1878.0	1878.0	1878.0	1878.0	1878.0	1882.0	1882.0	1879.0	1879.0	1879.0	1847.0	1847.0	1871.0	1871.0	1871.0	1864.0	1864.0	1862.0	1862.0	1862.0	1888.0	1888.0	1843.0	1843.0	1843.0	1845.0	1845.0	1884.0	1884.0	1884.0	1860.0	1860.0	1865.0	1865.0	1865.0	1839.0	1839.0	1868.0	1868.0	1868.0	1837.0	1837.0	1847.0	1847.0	1847.0	1827.0	1827.0	1836.0	1836.0	1836.0	1832.0	1832.0	1818.0	1818.0	1818.0	1820.0	1820.0	1851.0	1851.0	1851.0	1827.0	1827.0	1858.0	1858.0	1858.0	1848.0	1848.0	1807.0	1807.0	1807.0	1821.0	1821.0	1851.0	1851.0	1851.0	1807.0	1807.0	1788.0	1788.0	1788.0	1806.0	1806.0	1808.0	1808.0	1808.0	1818.0	1818.0	1781.0	1781.0	1781.0	1798.0	1798.0	1800.0	1800.0	1800.0	1798.0	1798.0	1797.0	1797.0	1797.0	1792.0	1792.0	1787.0	1787.0	1787.0	1766.0	1766.0	1747.0	1747.0	1747.0	1752.0	1752.0	1766.0	1766.0	1766.0	1743.0	1743.0	1783.0	1783.0	1783.0	1758.0	1758.0	1781.0	1781.0	1781.0	1770.0	1770.0	1776.0	1776.0	1776.0	1738.0	1738.0	1740.0	1740.0	1740.0	1725.0	1725.0	1740.0	1740.0	1740.0	1740.0	1740.0	1744.0	1744.0	1744.0	1749.0	1749.0	1750.0	1750.0	1750.0	1736.0	1736.0	1734.0	1734.0	1734.0	1727.0	1727.0	1753.0	1753.0	1732.0	1732.0	1732.0	1732.0	1732.0	1757.0	1757.0	1757.0	1735.0	1735.0	1726.0	1726.0	1726.0	1712.0	1712.0	1757.0	1757.0	1757.0	1724.0	1724.0	1721.0	1721.0	1721.0	1731.0	1731.0	1729.0	1729.0	1729.0	1773.0	1773.0	1778.0	1778.0	1778.0	1762.0	1762.0	1763.0	1763.0	1763.0	1782.0	1782.0	1782.0	1782.0	1782.0	1841.0	1841.0	1839.0	1839.0	1839.0	1859.0	1859.0	1899.0	1899.0	1899.0	1920.0	1920.0	1936.0	1936.0	1936.0	1947.0	1947.0	2014.0	2014.0	2014.0	2013.0	2013.0	2073.0	2073.0	2073.0	2098.0	2098.0	2097.0	2097.0	2097.0	2151.0	2151.0	2186.0	2186.0	2186.0	2205.0	2205.0	2212.0	2212.0	2212.0	2275.0	2275.0	2284.0	2284.0	2284.0	2294.0	2294.0	2355.0	2355.0	2355.0	2380.0	2380.0	2368.0	2368.0	2368.0	2424.0	2424.0	2428.0	2428.0	2428.0	2467.0	2467.0	2476.0	2476.0	2476.0	2500.0	2500.0	2524.0	2524.0	2524.0	2502.0	2502.0	2534.0	2534.0	2534.0	2566.0	2566.0	2581.0	2581.0	2581.0	2554.0	2554.0	2571.0	2571.0	2571.0	2568.0	2568.0	2599.0	2599.0	2599.0	2601.0	2601.0	2622.0	2622.0	2622.0	2595.0	2595.0	2610.0	2610.0	2610.0	2624.0	2624.0	2598.0	2598.0	2598.0	2638.0	2638.0	2585.0	2585.0	2585.0	2591.0	2591.0	2607.0	2607.0	2607.0	2604.0	2604.0	2603.0	2603.0	2603.0	2579.0	2579.0	2611.0	2611.0	2611.0	2592.0	2592.0	2580.0	2580.0	2580.0	2602.0	2602.0	2600.0	2600.0	2600.0	2554.0	2554.0	2546.0	2546.0	2546.0	2551.0	2551.0	2531.0	2531.0	2531.0	2523.0	2523.0	2521.0	2521.0	2521.0	2490.0	2490.0	2491.0	2491.0	2491.0	2496.0	2496.0	2503.0	2503.0	2505.0	2505.0	2505.0	2483.0	2483.0	2467.0	2467.0	2467.0	2476.0	2476.0	2439.0	2439.0	2439.0	2462.0	2462.0	2454.0	2454.0	2454.0	2447.0	2447.0	2429.0	2429.0	2429.0	2420.0	2420.0	2410.0	2410.0	2410.0	2396.0	2396.0	2393.0	2393.0	2393.0	2360.0	2360.0	2377.0	2377.0	2377.0	2347.0	2347.0	2365.0	2365.0	2365.0	2352.0	2352.0	2339.0	2339.0	2339.0	2325.0	2325.0	2291.0	2291.0	2291.0	2279.0	2279.0	2266.0	2266.0	2266.0	2287.0	2287.0	2241.0	2241.0	2241.0	2238.0	2238.0	2241.0	2241.0	2241.0	2244.0	2244.0	2194.0	2194.0	2194.0	2186.0	2186.0	2185.0	2185.0	2185.0	2172.0	2172.0	2144.0	2144.0	2144.0	2151.0	2151.0	2121.0	2121.0	2121.0	2113.0	2113.0	2077.0	2077.0	2077.0	2077.0	2077.0	2048.0	2048.0	2048.0	2059.0	2059.0	2020.0	2020.0	2020.0	2013.0	2013.0	1993.0	1993.0	1993.0	1998.0	1998.0	1983.0	1983.0	1983.0	1997.0	1997.0	1995.0	1995.0	1995.0	1981.0	1981.0	1974.0	1974.0	1974.0	1945.0	1945.0	1927.0	1927.0	1927.0	1918.0	1918.0	1904.0	1904.0	1904.0	1914.0	1914.0	1918.0	1918.0	1918.0	1916.0	1916.0	1880.0	1880.0	1880.0	1905.0	1905.0	1872.0	1872.0	1872.0	1878.0	1878.0	1897.0	1897.0	1897.0	1884.0	1884.0	1882.0	1882.0	1882.0	1890.0	1890.0	1866.0	1866.0	1866.0	1864.0	1864.0	1867.0	1867.0	1867.0	1851.0	1851.0	1879.0	1879.0	1879.0	1870.0	1870.0	1850.0	1850.0	1850.0	1853.0	1853.0	1901.0	1901.0	1901.0	1858.0	1858.0	1880.0	1880.0	1880.0	1859.0	1859.0	1875.0	1875.0	1875.0	1897.0	1897.0	1866.0	1866.0	1866.0	1901.0	1901.0	1876.0	1876.0	1918.0	1918.0	1918.0	1875.0	1875.0	1883.0	1883.0	1883.0	1906.0	1906.0	1887.0	1887.0	1887.0	1901.0	1901.0	1875.0	1875.0	1875.0	1884.0	1884.0	1904.0	1904.0	1904.0	1895.0	1895.0	1870.0	1870.0	1870.0	1892.0	1892.0	1872.0	1872.0	1872.0	1873.0	1873.0	1905.0	1905.0	1905.0	1903.0	1903.0	1875.0	1875.0	1875.0	1860.0	1860.0	1897.0	1897.0	1897.0	1872.0	1872.0	1888.0	1888.0	1888.0	1854.0	1854.0	1868.0	1868.0	1868.0	1872.0	1872.0	1902.0	1902.0	1902.0	1859.0	1859.0	1863.0	1863.0	1863.0	1891.0	1891.0	1864.0	1864.0	1864.0	1860.0	1860.0	1876.0	1876.0	1876.0	1870.0	1870.0	1868.0	1868.0	1868.0	1832.0	1832.0	1845.0	1845.0	1845.0	1846.0	1846.0	1851.0	1851.0	1851.0	1835.0	1835.0	1836.0	1836.0	1836.0	1841.0	1841.0	1844.0	1844.0	1844.0	1813.0	1813.0	1852.0	1852.0	1852.0	1843.0	1843.0	1830.0	1830.0	1830.0	1836.0	1836.0	1832.0	1832.0	1832.0	1854.0	1854.0	1831.0	1831.0	1831.0	1867.0	1867.0	1820.0	1820.0	1820.0	1790.0	1790.0	1799.0	1799.0	1799.0	1823.0	1823.0	1809.0	1809.0	1809.0	1809.0	1809.0	1805.0	1805.0	1805.0	1792.0	1792.0	1817.0	1817.0	1817.0	1777.0	1777.0	1806.0	1806.0	1806.0	1820.0	1820.0	1778.0	1778.0	1778.0	1800.0	1800.0	1775.0	1775.0	1775.0	1796.0	1796.0	1808.0	1808.0	1808.0	1778.0	1778.0	1788.0	1788.0	1788.0	1771.0	1771.0	1759.0	1759.0	1759.0	1769.0	1769.0	1775.0	1775.0	1775.0	1754.0	1754.0	1781.0	1781.0	1781.0	1753.0	1753.0	1749.0	1749.0	1749.0	1738.0	1738.0	1757.0	1757.0	1757.0	1744.0	1744.0	1723.0	1723.0	1723.0	1750.0	1750.0	1723.0	1723.0	1740.0	1740.0	1740.0	1752.0	1752.0	1735.0	1735.0	1735.0	1746.0	1746.0	1718.0	1718.0	1718.0	1703.0	1703.0	1707.0	1707.0	1707.0	1727.0	1727.0	1737.0	1737.0	1737.0	1712.0	1712.0	1703.0	1703.0	1703.0	1711.0	1711.0	1743.0	1743.0	1743.0	1713.0	1713.0	1758.0	1758.0	1758.0	1742.0	1742.0	1763.0	1763.0	1763.0	1781.0	1781.0	1780.0	1780.0	1780.0	1808.0	1808.0	1786.0	1786.0	1786.0	1823.0	1823.0	1847.0	1847.0	1847.0	1840.0	1840.0	1885.0	1885.0	1885.0	1921.0	1921.0	1922.0	1922.0	1922.0	1958.0	1958.0	1992.0	1992.0	1992.0	1988.0	1988.0	2020.0	2020.0	2020.0	2068.0	2068.0	2058.0	2058.0	2058.0	2095.0	2095.0	2138.0	2138.0	2138.0	2175.0	2175.0	2187.0	2187.0	2187.0	2228.0	2228.0	2267.0	2267.0	2267.0	2243.0	2243.0	2302.0	2302.0	2302.0	2335.0	2335.0	2325.0	2325.0	2325.0	2367.0	2367.0	2362.0	2362.0	2362.0	2408.0	2408.0	2423.0	2423.0	2423.0	2425.0	2425.0	2424.0	2424.0	2424.0	2452.0	2452.0	2500.0	2500.0	2500.0	2494.0	2494.0	2505.0	2505.0	2505.0	2519.0	2519.0	2511.0	2511.0	2511.0	2531.0	2531.0	2515.0	2515.0	2515.0	2524.0	2524.0	2537.0	2537.0	2537.0	2541.0	2541.0	2553.0	2553.0	2553.0	2531.0	2531.0	2558.0	2558.0	2558.0	2555.0	2555.0	2543.0	2543.0	2543.0	2555.0	2555.0	2548.0	2548.0	2548.0	2542.0	2542.0	2539.0	2539.0	2539.0	2560.0	2560.0	2527.0	2527.0	2527.0	2511.0	2511.0	2534.0	2534.0	2534.0	2525.0	2525.0	2520.0	2520.0	2520.0	2510.0	2510.0	2492.0	2492.0	2492.0	2490.0	2490.0	2490.0	2490.0	2490.0	2491.0	2491.0	2480.0	2480.0	2475.0	2475.0	2475.0	2457.0	2457.0	2472.0	2472.0	2472.0	2435.0	2435.0	2426.0	2426.0	2426.0	2419.0	2419.0	2427.0	2427.0	2427.0	2430.0	2430.0	2422.0	2422.0	2422.0	2389.0	2389.0	2387.0	2387.0	2387.0	2367.0	2367.0	2383.0	2383.0	2383.0	2377.0	2377.0	2370.0	2370.0	2370.0	2344.0	2344.0	2337.0	2337.0	2337.0	2347.0	2347.0	2314.0	2314.0	2314.0	2314.0	