2574.0	2574.0	2569.0	2569.0	2569.0	2577.0	2577.0	2510.0	2510.0	2510.0	2526.0	2526.0	2554.0	2554.0	2554.0	2484.0	2484.0	2528.0	2528.0	2528.0	2509.0	2509.0	2493.0	2493.0	2493.0	2467.0	2467.0	2506.0	2506.0	2506.0	2459.0	2459.0	2474.0	2474.0	2474.0	2496.0	2496.0	2471.0	2471.0	2471.0	2462.0	2462.0	2465.0	2465.0	2465.0	2448.0	2448.0	2391.0	2391.0	2391.0	2383.0	2383.0	2416.0	2416.0	2416.0	2379.0	2379.0	2354.0	2354.0	2354.0	2375.0	2375.0	2354.0	2354.0	2354.0	2307.0	2307.0	2288.0	2288.0	2288.0	2276.0	2276.0	2267.0	2267.0	2267.0	2272.0	2272.0	2238.0	2238.0	2238.0	2272.0	2272.0	2270.0	2270.0	2270.0	2206.0	2206.0	2183.0	2183.0	2183.0	2194.0	2194.0	2214.0	2214.0	2214.0	2195.0	2195.0	2171.0	2171.0	2171.0	2136.0	2136.0	2158.0	2158.0	2158.0	2120.0	2120.0	2123.0	2123.0	2123.0	2095.0	2095.0	2096.0	2096.0	2096.0	2086.0	2086.0	2068.0	2068.0	2068.0	2097.0	2097.0	2069.0	2069.0	2069.0	2041.0	2041.0	2035.0	2035.0	2035.0	2028.0	2028.0	2026.0	2026.0	2026.0	2024.0	2024.0	2071.0	2071.0	2071.0	2078.0	2078.0	2026.0	2026.0	2026.0	2009.0	2009.0	1985.0	1985.0	1985.0	2010.0	2010.0	2042.0	2042.0	2042.0	1976.0	1976.0	2022.0	2022.0	2022.0	1958.0	1958.0	1950.0	1950.0	1950.0	1991.0	1991.0	1989.0	1989.0	1989.0	1975.0	1975.0	1954.0	1954.0	1992.0	1992.0	1992.0	1957.0	1957.0	1962.0	1962.0	1962.0	1945.0	1945.0	1968.0	1968.0	1968.0	1923.0	1923.0	1962.0	1962.0	1962.0	1932.0	1932.0	1943.0	1943.0	1943.0	1903.0	1903.0	1909.0	1909.0	1909.0	1868.0	1868.0	1895.0	1895.0	1895.0	1872.0	1872.0	1909.0	1909.0	1909.0	1846.0	1846.0	1870.0	1870.0	1870.0	1855.0	1855.0	1883.0	1883.0	1883.0	1842.0	1842.0	1865.0	1865.0	1865.0	1854.0	1854.0	1844.0	1844.0	1844.0	1847.0	1847.0	1840.0	1840.0	1840.0	1813.0	1813.0	1784.0	1784.0	1784.0	1805.0	1805.0	1839.0	1839.0	1839.0	1838.0	1838.0	1771.0	1771.0	1771.0	1799.0	1799.0	1763.0	1763.0	1763.0	1791.0	1791.0	1737.0	1737.0	1737.0	1782.0	1782.0	1790.0	1790.0	1790.0	1761.0	1761.0	1719.0	1719.0	1719.0	1726.0	1726.0	1773.0	1773.0	1773.0	1716.0	1716.0	1739.0	1739.0	1739.0	1707.0	1707.0	1743.0	1743.0	1743.0	1719.0	1719.0	1678.0	1678.0	1678.0	1721.0	1721.0	1703.0	1703.0	1703.0	1704.0	1704.0	1712.0	1712.0	1712.0	1711.0	1711.0	1646.0	1646.0	1646.0	1693.0	1693.0	1639.0	1639.0	1639.0	1692.0	1692.0	1679.0	1679.0	1679.0	1633.0	1633.0	1666.0	1666.0	1666.0	1652.0	1652.0	1599.0	1599.0	1599.0	1591.0	1591.0	1645.0	1645.0	1645.0	1587.0	1587.0	1628.0	1628.0	1628.0	1641.0	1641.0	1590.0	1590.0	1590.0	1575.0	1575.0	1626.0	1626.0	1626.0	1564.0	1564.0	1619.0	1619.0	1619.0	1568.0	1568.0	1583.0	1583.0	1583.0	1606.0	1606.0	1546.0	1546.0	1546.0	1541.0	1541.0	1531.0	1531.0	1531.0	1578.0	1578.0	1528.0	1528.0	1528.0	1555.0	1555.0	1521.0	1521.0	1534.0	1534.0	1534.0	1513.0	1513.0	1534.0	1534.0	1534.0	1567.0	1567.0	1540.0	1540.0	1540.0	1499.0	1499.0	1524.0	1524.0	1524.0	1551.0	1551.0	1487.0	1487.0	1487.0	1498.0	1498.0	1498.0	1498.0	1498.0	1542.0	1542.0	1518.0	1518.0	1518.0	1520.0	1520.0	1529.0	1529.0	1529.0	1507.0	1507.0	1486.0	1486.0	1486.0	1480.0	1480.0	1482.0	1482.0	1482.0	1527.0	1527.0	1499.0	1499.0	1499.0	1479.0	1479.0	1520.0	1520.0	1520.0	1514.0	1514.0	1441.0	1441.0	1441.0	1445.0	1445.0	1498.0	1498.0	1498.0	1448.0	1448.0	1466.0	1466.0	1466.0	1442.0	1442.0	1490.0	1490.0	1490.0	1469.0	1469.0	1427.0	1427.0	1427.0	1427.0	1427.0	1476.0	1476.0	1476.0	1469.0	1469.0	1479.0	1479.0	1479.0	1465.0	1465.0	1411.0	1411.0	1411.0	1455.0	1455.0	1459.0	1459.0	1459.0	1426.0	1426.0	1461.0	1461.0	1461.0	1425.0	1425.0	1406.0	1406.0	1406.0	1411.0	1411.0	1452.0	1452.0	1452.0	1436.0	1436.0	1414.0	1414.0	1414.0	1393.0	1393.0	1415.0	1415.0	1415.0	1456.0	1456.0	1444.0	1444.0	1444.0	1398.0	1398.0	1436.0	1436.0	1436.0	1413.0	1413.0	1442.0	1442.0	1442.0	1466.0	1466.0	1435.0	1435.0	1435.0	1451.0	1451.0	1484.0	1484.0	1484.0	1485.0	1485.0	1516.0	1516.0	1516.0	1519.0	1519.0	1609.0	1609.0	1609.0	1613.0	1613.0	1619.0	1619.0	1619.0	1660.0	1660.0	1660.0	1660.0	1660.0	1706.0	1706.0	1759.0	1759.0	1759.0	1739.0	1739.0	1806.0	1806.0	1806.0	1855.0	1855.0	1881.0	1881.0	1881.0	1861.0	1861.0	1904.0	1904.0	1904.0	1959.0	1959.0	2011.0	2011.0	2011.0	2050.0	2050.0	2054.0	2054.0	2058.0	2058.0	2058.0	2141.0	2141.0	2126.0	2126.0	2126.0	2138.0	2138.0	2153.0	2153.0	2153.0	2228.0	2228.0	2229.0	2229.0	2229.0	2255.0	2255.0	2252.0	2252.0	2252.0	2265.0	2265.0	2286.0	2286.0	2286.0	2350.0	2350.0	2327.0	2327.0	2327.0	2382.0	2382.0	2404.0	2404.0	2404.0	2372.0	2372.0	2405.0	2405.0	2405.0	2408.0	2408.0	2408.0	2408.0	2408.0	2429.0	2429.0	2478.0	2478.0	2478.0	2484.0	2484.0	2434.0	2434.0	2434.0	2467.0	2467.0	2478.0	2478.0	2478.0	2513.0	2513.0	2491.0	2491.0	2491.0	2509.0	2509.0	2485.0	2485.0	2485.0	2508.0	2508.0	2545.0	2545.0	2545.0	2504.0	2504.0	2489.0	2489.0	2489.0	2502.0	2502.0	2487.0	2487.0	2487.0	2510.0	2510.0	2518.0	2518.0	2518.0	2558.0	2558.0	2499.0	2499.0	2499.0	2554.0	2554.0	2539.0	2539.0	2539.0	2541.0	2541.0	2494.0	2494.0	2494.0	2535.0	2535.0	2514.0	2514.0	2514.0	2540.0	2540.0	2536.0	2536.0	2536.0	2490.0	2490.0	2469.0	2469.0	2469.0	2472.0	2472.0	2477.0	2477.0	2477.0	2473.0	2473.0	2508.0	2508.0	2508.0	2465.0	2465.0	2496.0	2496.0	2496.0	2513.0	2513.0	2484.0	2484.0	2484.0	2469.0	2469.0	2438.0	2438.0	2438.0	2433.0	2433.0	2410.0	2410.0	2410.0	2470.0	2470.0	2407.0	2407.0	2407.0	2393.0	2393.0	2435.0	2435.0	2435.0	2388.0	2388.0	2397.0	2397.0	2397.0	2368.0	2368.0	2410.0	2410.0	2410.0	2390.0	2390.0	2370.0	2370.0	2370.0	2323.0	2323.0	2331.0	2331.0	2331.0	2346.0	2346.0	2308.0	2308.0	2308.0	2283.0	2283.0	2261.0	2261.0	2261.0	2315.0	2315.0	2252.0	2252.0	2252.0	2243.0	2243.0	2216.0	2216.0	2216.0	2253.0	2253.0	2202.0	2202.0	2203.0	2203.0	2203.0	2181.0	2181.0	2140.0	2140.0	2140.0	2168.0	2168.0	2168.0	2168.0	2168.0	2170.0	2170.0	2108.0	2108.0	2108.0	2089.0	2089.0	2133.0	2133.0	2133.0	2110.0	2110.0	2091.0	2091.0	2091.0	2103.0	2103.0	2071.0	2071.0	2071.0	2089.0	2089.0	2034.0	2034.0	2034.0	2038.0	2038.0	2066.0	2066.0	2066.0	2042.0	2042.0	2063.0	2063.0	2063.0	2024.0	2024.0	2029.0	2029.0	2029.0	2004.0	2004.0	1999.0	1999.0	1999.0	1987.0	1987.0	1987.0	1987.0	1987.0	2049.0	2049.0	2036.0	2036.0	2036.0	1971.0	1971.0	1973.0	1973.0	1973.0	1965.0	1965.0	1971.0	1971.0	1971.0	1957.0	1957.0	1996.0	1996.0	1996.0	1983.0	1983.0	1958.0	1958.0	1958.0	1949.0	1949.0	1978.0	1978.0	1978.0	1935.0	1935.0	1973.0	1973.0	1973.0	1923.0	1923.0	1972.0	1972.0	1972.0	1916.0	1916.0	1970.0	1970.0	1970.0	1960.0	1960.0	1912.0	1912.0	1912.0	1958.0	1958.0	1946.0	1946.0	1946.0	1920.0	1920.0	1911.0	1911.0	1911.0	1941.0	1941.0	1905.0	1905.0	1905.0	1900.0	1900.0	1889.0	1889.0	1889.0	1894.0	1894.0	1849.0	1849.0	1849.0	1891.0	1891.0	1867.0	1867.0	1867.0	1844.0	1844.0	1838.0	1838.0	1838.0	1837.0	1837.0	1828.0	1828.0	1828.0	1885.0	1885.0	1865.0	1865.0	1865.0	1809.0	1809.0	1806.0	1806.0	1806.0	1841.0	1841.0	1795.0	1795.0	1795.0	1788.0	1788.0	1785.0	1785.0	1785.0	1828.0	1828.0	1822.0	1822.0	1822.0	1830.0	1830.0	1804.0	1804.0	1804.0	1757.0	1757.0	1761.0	1761.0	1761.0	1779.0	1779.0	1782.0	1782.0	1782.0	1729.0	1729.0	1746.0	1746.0	1746.0	1752.0	1752.0	1758.0	1758.0	1726.0	1726.0	1726.0	1744.0	1744.0	1753.0	1753.0	1753.0	1735.0	1735.0	1692.0	1692.0	1692.0	1685.0	1685.0	1738.0	1738.0	1738.0	1694.0	1694.0	1727.0	1727.0	1727.0	1727.0	1727.0	1719.0	1719.0	1719.0	1680.0	1680.0	1697.0	1697.0	1697.0	1640.0	1640.0	1651.0	1651.0	1651.0	1636.0	1636.0	1635.0	1635.0	1635.0	1675.0	1675.0	1614.0	1614.0	1614.0	1664.0	1664.0	1650.0	1650.0	1650.0	1664.0	1664.0	1647.0	1647.0	1647.0	1650.0	1650.0	1617.0	1617.0	1617.0	1589.0	1589.0	1618.0	1618.0	1618.0	1597.0	1597.0	1629.0	1629.0	1629.0	1620.0	1620.0	1613.0	1613.0	1613.0	1620.0	1620.0	1563.0	1563.0	1563.0	1608.0	1608.0	1562.0	1562.0	1562.0	1558.0	1558.0	1556.0	1556.0	1556.0	1594.0	1594.0	1532.0	1532.0	1532.0	1580.0	1580.0	1592.0	1592.0	1592.0	1528.0	1528.0	1557.0	1557.0	1557.0	1574.0	1574.0	1513.0	1513.0	1513.0	1516.0	1516.0	1520.0	1520.0	1520.0	1515.0	1515.0	1547.0	1547.0	1547.0	1501.0	1501.0	1512.0	1512.0	1512.0	1554.0	1554.0	1521.0	1521.0	1521.0	1499.0	1499.0	1542.0	1542.0	1542.0	1542.0	1542.0	1495.0	1495.0	1495.0	1543.0	1543.0	1511.0	1511.0	1511.0	1526.0	1526.0	1479.0	1479.0	1479.0	1524.0	1524.0	1508.0	1508.0	1508.0	1463.0	1463.0	1510.0	1510.0	1510.0	1523.0	1523.0	1526.0	1526.0	1526.0	1516.0	1516.0	1469.0	1469.0	1469.0	1526.0	1526.0	1515.0	1515.0	1515.0	1522.0	1522.0	1502.0	1502.0	1502.0	1469.0	1469.0	1512.0	1512.0	1512.0	1518.0	1518.0	1487.0	1487.0	1487.0	1504.0	1504.0	1467.0	1467.0	1467.0	1468.0	1468.0	1504.0	1504.0	1460.0	1460.0	1460.0	1480.0	1480.0	1434.0	1434.0	1434.0	1435.0	1435.0	1459.0	1459.0	1459.0	1497.0	1497.0	1448.0	1448.0	1448.0	1481.0	1481.0	1477.0	1477.0	1477.0	1437.0	1437.0	1455.0	1455.0	1455.0	1504.0	1504.0	1489.0	1489.0	1489.0	1497.0	1497.0	1471.0	1471.0	1471.0	1480.0	1480.0	1545.0	1545.0	1545.0	1530.0	1530.0	1530.0	1530.0	1530.0	1585.0	1585.0	1566.0	1566.0	1566.0	1651.0	1651.0	1626.0	1626.0	1626.0	1701.0	1701.0	1676.0	1676.0	1676.0	1748.0	1748.0	1747.0	1747.0	1747.0	1790.0	1790.0	1820.0	1820.0	1820.0	1816.0	1816.0	1888.0	1888.0	1888.0	1893.0	1893.0	1965.0	1965.0	1965.0	2021.0	2021.0	1992.0	1992.0	1992.0	2039.0	2039.0	2106.0	2106.0	2106.0	2106.0	2106.0	2182.0	2182.0	2182.0	2149.0	2149.0	2191.0	2191.0	2191.0	2239.0	2239.0	2250.0	2250.0	2250.0	2320.0	2320.0	2350.0	2350.0	2350.0	2366.0	2366.0	2339.0	2339.0	2339.0	2367.0	2367.0	2401.0	2401.0	2401.0	2445.0	2445.0	2413.0	2413.0	2413.0	2477.0	2477.0	2482.0	2482.0	2482.0	2472.0	2472.0	2505.0	2505.0	2505.0	2564.0	2564.0	2555.0	2555.0	2555.0	2541.0	2541.0	2542.0	2542.0	2542.0	2604.0	2604.0	2605.0	2605.0	2605.0	2609.0	2609.0	2640.0	2640.0	2640.0	2592.0	2592.0	2599.0	2599.0	2599.0	2640.0	2640.0	2633.0	2633.0	2633.0	2623.0	2623.0	2683.0	2683.0	2683.0	2688.0	2688.0	2632.0	2632.0	2632.0	2641.0	2641.0	2666.0	2666.0	2666.0	2657.0	2657.0	2710.0	2710.0	2710.0	2659.0	2659.0	2686.0	2686.0	2686.0	2670.0	2670.0	2660.0	2660.0	2660.0	2685.0	2685.0	2673.0	2673.0	2673.0	2672.0	2672.0	2654.0	2654.0	2659.0	2659.0	2659.0	2652.0	2652.0	2699.0	2699.0	2699.0	2657.0	2657.0	2702.0	2702.0	2702.0	2644.0	2644.0	2694.0	2694.0	2694.0	2687.0	2687.0	2651.0	2651.0	2651.0	2662.0	2662.0	2623.0	2623.0	2623.0	2653.0	2653.0	2636.0	2636.0	2636.0	2609.0	2609.0	2650.0	2650.0	2650.0	2624.0	2624.0	2647.0	2647.0	2647.0	2638.0	2638.0	2582.0	2582.0	2582.0	2576.0	2576.0	2635.0	2635.0	2635.0	2556.0	2556.0	2593.0	2593.0	2593.0	2588.0	2588.0	2527.0	2527.0	2527.0	2566.0	2566.0	2563.0	2563.0	2563.0	2511.0	2511.0	2550.0	2550.0	2550.0	2472.0	2472.0	2511.0	2511.0	2511.0	2464.0	2464.0	2471.0	2471.0	2471.0	2487.0	2487.0	2412.0	2412.0	2412.0	2405.0	2405.0	2402.0	2402.0	2402.0	2438.0	2438.0	2372.0	2372.0	2372.0	2400.0	2400.0	2340.0	2340.0	2340.0	2345.0	2345.0	2310.0	2310.0	2310.0	2359.0	2359.0	2341.0	2341.0	2341.0	2309.0	2309.0	2321.0	2321.0	2321.0	2299.0	2299.0	2245.0	2245.0	2245.0	2260.0	2260.0	2245.0	2245.0	2245.0	2287.0	2287.0	2262.0	2262.0	2262.0	2243.0	2243.0	2262.0	2262.0	2262.0	2243.0	2243.0	2172.0	2172.0	2172.0	2185.0	2185.0	2216.0	2216.0	2216.0	2203.0	2203.0	2205.0	2205.0	2205.0	2202.0	2202.0	2181.0	2181.0	2181.0	2199.0	2199.0	2192.0	2192.0	2192.0	2192.0	2192.0	2171.0	2171.0	2171.0	2177.0	2177.0	2144.0	2144.0	2144.0	2148.0	2148.0	2127.0	2127.0	2127.0	2112.0	2112.0	2141.0	2141.0	2141.0	2141.0	2141.0	2075.0	2075.0	2075.0	2103.0	2103.0	2120.0	2120.0	2120.0	2059.0	2059.0	2089.0	2089.0	2089.0	2057.0	2057.0	2043.0	2043.0	2089.0	2089.0	2089.0	2091.0	2091.0	2084.0	2084.0	2084.0	2024.0	2024.0	2079.0	2079.0	2079.0	2008.0	2008.0	2069.0	2069.0	2069.0	2012.0	2012.0	2049.0	2049.0	2049.0	2004.0	2004.0	2057.0	2057.0	2057.0	2044.0	2044.0	2023.0	2023.0	2023.0	2023.0	2023.0	1993.0	1993.0	1993.0	1995.0	1995.0	2002.0	2002.0	2002.0	1971.0	1971.0	1943.0	1943.0	1943.0	1939.0	1939.0	1953.0	1953.0	1953.0	1941.0	1941.0	1976.0	1976.0	1976.0	1924.0	1924.0	1933.0	1933.0	1933.0	1911.0	1911.0	1940.0	1940.0	1940.0	1891.0	1891.0	1922.0	1922.0	1922.0	1882.0	1882.0	1923.0	1923.0	1923.0	1920.0	1920.0	1886.0	1886.0	1886.0	1892.0	1892.0	1866.0	1866.0	1866.0	1882.0	1882.0	1874.0	1874.0	1874.0	1884.0	1884.0	1845.0	1845.0	1845.0	1836.0	1836.0	1812.0	1812.0	1812.0	1808.0	1808.0	1794.0	1794.0	1794.0	1796.0	1796.0	1787.0	1787.0	1787.0	1802.0	1802.0	1769.0	1769.0	1769.0	1793.0	1793.0	1803.0	1803.0	1803.0	1793.0	1793.0	1761.0	1761.0	1761.0	1807.0	1807.0	1793.0	1793.0	1793.0	1786.0	1786.0	1783.0	1783.0	1783.0	1759.0	1759.0	1791.0	1791.0	1791.0	1775.0	1775.0	1747.0	1747.0	1747.0	1756.0	1756.0	1696.0	1696.0	1696.0	1690.0	1690.0	1702.0	1702.0	1702.0	1691.0	1691.0	1713.0	1713.0	1713.0	1727.0	1727.0	1713.0	1713.0	1713.0	1673.0	1673.0	1680.0	1680.0	1680.0	1664.0	1664.0	1671.0	1671.0	1671.0	1659.0	1659.0	1663.0	1663.0	1663.0	1671.0	1671.0	1687.0	1687.0	1687.0	1644.0	1644.0	1703.0	1703.0	1703.0	1667.0	1667.0	1660.0	1660.0	1660.0	1672.0	1672.0	1651.0	1651.0	1651.0	1636.0	1636.0	1686.0	1686.0	1617.0	1617.0	1617.0	1677.0	1677.0	1606.0	1606.0	1606.0	1672.0	1672.0	1625.0	1625.0	1625.0	1635.0	1635.0	1605.0	1605.0	1605.0	1594.0	1594.0	1606.0	1606.0	1606.0	1584.0	1584.0	1656.0	1656.0	1656.0	1631.0	1631.0	1593.0	1593.0	1593.0	1626.0	1626.0	1646.0	1646.0	1646.0	1580.0	1580.0	1601.0	1601.0	1601.0	1625.0	1625.0	1610.0	1610.0	1610.0	1624.0	1624.0	1581.0	1581.0	1581.0	1582.0	1582.0	1608.0	1608.0	1608.0	1566.0	1566.0	1598.0	1598.0	1598.0	1580.0	1580.0	1568.0	1568.0	1568.0	1575.0	1575.0	1556.0	1556.0	1556.0	1546.0	1546.0	1575.0	1575.0	1575.0	1567.0	1567.0	1595.0	1595.0	1595.0	1545.0	1545.0	1563.0	1563.0	1563.0	1555.0	1555.0	1560.0	1560.0	1560.0	1532.0	1532.0	1578.0	1578.0	1578.0	1577.0	1577.0	1506.0	1506.0	1506.0	1551.0	1551.0	1518.0	1518.0	1518.0	1512.0	1512.0	1518.0	1518.0	1518.0	1542.0	1542.0	1562.0	1562.0	1562.0	1561.0	1561.0	1545.0	1545.0	1545.0	1572.0	1572.0	1527.0	1527.0	1527.0	1533.0	1533.0	1542.0	1542.0	1542.0	1606.0	1606.0	1573.0	1573.0	1573.0	1591.0	1591.0	1631.0	1631.0	1631.0	1660.0	1660.0	1675.0	1675.0	1675.0	1649.0	1649.0	1722.0	1722.0	1722.0	1758.0	1758.0	1778.0	1778.0	1778.0	1777.0	1777.0	1828.0	1828.0	1828.0	1877.0	1877.0	1849.0	1849.0	1849.0	1880.0	1880.0	1969.0	1969.0	1969.0	1945.0	1945.0	1996.0	1996.0	1996.0	2057.0	2057.0	2052.0	2052.0	2052.0	2107.0	2107.0	2114.0	2114.0	2114.0	2189.0	2189.0	2200.0	2200.0	2200.0	2255.0	2255.0	2238.0	2238.0	2238.0	2271.0	2271.0	2358.0	2358.0	2368.0	2368.0	2368.0	2361.0	2361.0	2436.0	2436.0	2436.0	2416.0	2416.0	2419.0	2419.0	2419.0	2483.0	2483.0	2482.0	2482.0	2482.0	2489.0	2489.0	2515.0	2515.0	2515.0	2550.0	2550.0	2565.0	2565.0	2565.0	2571.0	2571.0	2619.0	2619.0	2619.0	2646.0	2646.0	2614.0	2614.0	2614.0	2636.0	2636.0	2684.0	2684.0	2684.0	2693.0	2693.0	2648.0	2648.0	2648.0	2666.0	2666.0	2701.0	2701.0	2701.0	2694.0	2694.0	2740.0	2740.0	2740.0	2723.0	2723.0	2730.0	2730.0	2730.0	2716.0	2716.0	2718.0	2718.0	2718.0	2779.0	2779.0	2762.0	2762.0	2762.0	2784.0	2784.0	2738.0	2738.0	2738.0	2788.0	2788.0	2727.0	2727.0	2727.0	2739.0	2739.0	2780.0	2780.0	2780.0	2778.0	2778.0	2723.0	2723.0	2723.0	