1764.0	1783.0	1783.0	1783.0	1726.0	1726.0	1798.0	1798.0	1798.0	1753.0	1753.0	1787.0	1787.0	1787.0	1731.0	1731.0	1780.0	1780.0	1780.0	1761.0	1761.0	1735.0	1735.0	1735.0	1740.0	1740.0	1717.0	1717.0	1717.0	1706.0	1706.0	1706.0	1706.0	1706.0	1751.0	1751.0	1718.0	1718.0	1718.0	1759.0	1759.0	1719.0	1719.0	1719.0	1725.0	1725.0	1689.0	1689.0	1689.0	1693.0	1693.0	1743.0	1743.0	1743.0	1683.0	1683.0	1745.0	1745.0	1745.0	1735.0	1735.0	1676.0	1676.0	1676.0	1731.0	1731.0	1675.0	1675.0	1675.0	1708.0	1708.0	1672.0	1672.0	1672.0	1706.0	1706.0	1723.0	1723.0	1723.0	1658.0	1658.0	1665.0	1665.0	1665.0	1722.0	1722.0	1650.0	1650.0	1650.0	1651.0	1651.0	1707.0	1707.0	1707.0	1645.0	1645.0	1672.0	1672.0	1672.0	1652.0	1652.0	1664.0	1664.0	1664.0	1655.0	1655.0	1671.0	1671.0	1671.0	1710.0	1710.0	1683.0	1683.0	1683.0	1730.0	1730.0	1706.0	1706.0	1706.0	1733.0	1733.0	1769.0	1769.0	1769.0	1731.0	1731.0	1765.0	1765.0	1765.0	1771.0	1771.0	1796.0	1796.0	1796.0	1836.0	1836.0	1840.0	1840.0	1840.0	1903.0	1903.0	1955.0	1955.0	1955.0	1930.0	1930.0	1972.0	1972.0	1972.0	2024.0	2024.0	2089.0	2089.0	2089.0	2048.0	2048.0	2137.0	2137.0	2137.0	2172.0	2172.0	2201.0	2201.0	2201.0	2201.0	2201.0	2223.0	2223.0	2223.0	2282.0	2282.0	2282.0	2282.0	2282.0	2332.0	2332.0	2358.0	2358.0	2358.0	2374.0	2374.0	2392.0	2392.0	2392.0	2426.0	2426.0	2490.0	2490.0	2490.0	2495.0	2495.0	2503.0	2503.0	2563.0	2563.0	2563.0	2547.0	2547.0	2590.0	2590.0	2590.0	2580.0	2580.0	2600.0	2600.0	2600.0	2615.0	2615.0	2643.0	2643.0	2643.0	2633.0	2633.0	2638.0	2638.0	2638.0	2651.0	2651.0	2720.0	2720.0	2720.0	2707.0	2707.0	2672.0	2672.0	2672.0	2738.0	2738.0	2753.0	2753.0	2753.0	2703.0	2703.0	2730.0	2730.0	2730.0	2726.0	2726.0	2740.0	2740.0	2740.0	2774.0	2774.0	2761.0	2761.0	2761.0	2741.0	2741.0	2787.0	2787.0	2787.0	2769.0	2769.0	2749.0	2749.0	2749.0	2803.0	2803.0	2768.0	2768.0	2768.0	2723.0	2723.0	2779.0	2779.0	2779.0	2784.0	2784.0	2779.0	2779.0	2779.0	2759.0	2759.0	2765.0	2765.0	2765.0	2713.0	2713.0	2757.0	2757.0	2757.0	2710.0	2710.0	2705.0	2705.0	2705.0	2691.0	2691.0	2685.0	2685.0	2685.0	2730.0	2730.0	2702.0	2702.0	2702.0	2671.0	2671.0	2718.0	2718.0	2718.0	2711.0	2711.0	2651.0	2651.0	2651.0	2678.0	2678.0	2650.0	2650.0	2650.0	2691.0	2691.0	2684.0	2684.0	2684.0	2672.0	2672.0	2603.0	2603.0	2603.0	2642.0	2642.0	2629.0	2629.0	2629.0	2633.0	2633.0	2610.0	2610.0	2610.0	2573.0	2573.0	2582.0	2582.0	2582.0	2577.0	2577.0	2589.0	2589.0	2589.0	2542.0	2542.0	2574.0	2574.0	2574.0	2551.0	2551.0	2546.0	2546.0	2546.0	2537.0	2537.0	2493.0	2493.0	2493.0	2520.0	2520.0	2478.0	2478.0	2478.0	2494.0	2494.0	2433.0	2433.0	2433.0	2435.0	2435.0	2415.0	2415.0	2415.0	2417.0	2417.0	2371.0	2371.0	2371.0	2400.0	2400.0	2349.0	2349.0	2349.0	2339.0	2339.0	2345.0	2345.0	2345.0	2328.0	2328.0	2286.0	2286.0	2286.0	2300.0	2300.0	2278.0	2278.0	2309.0	2309.0	2309.0	2289.0	2289.0	2227.0	2227.0	2227.0	2222.0	2222.0	2257.0	2257.0	2257.0	2240.0	2240.0	2222.0	2222.0	2222.0	2216.0	2216.0	2180.0	2180.0	2180.0	2224.0	2224.0	2204.0	2204.0	2204.0	2191.0	2191.0	2146.0	2146.0	2146.0	2181.0	2181.0	2185.0	2185.0	2185.0	2147.0	2147.0	2178.0	2178.0	2178.0	2162.0	2162.0	2142.0	2142.0	2142.0	2158.0	2158.0	2156.0	2156.0	2156.0	2175.0	2175.0	2146.0	2146.0	2146.0	2110.0	2110.0	2116.0	2116.0	2116.0	2145.0	2145.0	2101.0	2101.0	2101.0	2154.0	2154.0	2147.0	2147.0	2147.0	2132.0	2132.0	2084.0	2084.0	2084.0	2116.0	2116.0	2081.0	2081.0	2081.0	2090.0	2090.0	2120.0	2120.0	2120.0	2112.0	2112.0	2062.0	2062.0	2062.0	2121.0	2121.0	2119.0	2119.0	2119.0	2131.0	2131.0	2090.0	2090.0	2090.0	2112.0	2112.0	2117.0	2117.0	2117.0	2127.0	2127.0	2080.0	2080.0	2080.0	2100.0	2100.0	2084.0	2084.0	2084.0	2127.0	2127.0	2126.0	2126.0	2126.0	2093.0	2093.0	2101.0	2101.0	2101.0	2079.0	2079.0	2116.0	2116.0	2116.0	2099.0	2099.0	2122.0	2122.0	2122.0	2114.0	2114.0	2064.0	2064.0	2064.0	2096.0	2096.0	2120.0	2120.0	2120.0	2085.0	2085.0	2064.0	2064.0	2064.0	2067.0	2067.0	2104.0	2104.0	2104.0	2079.0	2079.0	2092.0	2092.0	2092.0	2095.0	2095.0	2091.0	2091.0	2091.0	2026.0	2026.0	2043.0	2043.0	2043.0	2044.0	2044.0	2019.0	2019.0	2019.0	2052.0	2052.0	2054.0	2054.0	2054.0	2001.0	2001.0	1975.0	1975.0	1975.0	2008.0	2008.0	1993.0	1993.0	1993.0	1952.0	1952.0	2013.0	2013.0	2013.0	1980.0	1980.0	1954.0	1954.0	1974.0	1974.0	1974.0	1991.0	1991.0	1940.0	1940.0	1940.0	1979.0	1979.0	1963.0	1963.0	1963.0	1911.0	1911.0	1899.0	1899.0	1899.0	1947.0	1947.0	1967.0	1967.0	1967.0	1945.0	1945.0	1893.0	1893.0	1893.0	1900.0	1900.0	1952.0	1952.0	1952.0	1908.0	1908.0	1968.0	1968.0	1968.0	1932.0	1932.0	1955.0	1955.0	1955.0	1909.0	1909.0	1909.0	1909.0	1909.0	1914.0	1914.0	1931.0	1931.0	1931.0	1947.0	1947.0	1932.0	1932.0	1932.0	1962.0	1962.0	1954.0	1954.0	1954.0	1906.0	1906.0	1923.0	1923.0	1923.0	1923.0	1923.0	1921.0	1921.0	1921.0	1937.0	1937.0	1888.0	1888.0	1888.0	1935.0	1935.0	1912.0	1912.0	1912.0	1920.0	1920.0	1897.0	1897.0	1897.0	1895.0	1895.0	1912.0	1912.0	1912.0	1899.0	1899.0	1891.0	1891.0	1891.0	1876.0	1876.0	1875.0	1875.0	1875.0	1868.0	1868.0	1851.0	1851.0	1851.0	1859.0	1859.0	1895.0	1895.0	1895.0	1841.0	1841.0	1860.0	1860.0	1860.0	1827.0	1827.0	1824.0	1824.0	1824.0	1877.0	1877.0	1825.0	1825.0	1825.0	1807.0	1807.0	1858.0	1858.0	1858.0	1803.0	1803.0	1787.0	1787.0	1787.0	1775.0	1775.0	1775.0	1775.0	1775.0	1811.0	1811.0	1763.0	1763.0	1763.0	1797.0	1797.0	1780.0	1780.0	1780.0	1747.0	1747.0	1814.0	1814.0	1814.0	1748.0	1748.0	1788.0	1788.0	1788.0	1785.0	1785.0	1803.0	1803.0	1803.0	1783.0	1783.0	1799.0	1799.0	1799.0	1746.0	1746.0	1775.0	1775.0	1775.0	1793.0	1793.0	1758.0	1758.0	1758.0	1756.0	1756.0	1771.0	1771.0	1771.0	1782.0	1782.0	1795.0	1795.0	1795.0	1792.0	1792.0	1735.0	1735.0	1735.0	1728.0	1728.0	1725.0	1725.0	1725.0	1728.0	1728.0	1762.0	1762.0	1733.0	1733.0	1733.0	1769.0	1769.0	1715.0	1715.0	1715.0	1779.0	1779.0	1731.0	1731.0	1731.0	1759.0	1759.0	1783.0	1783.0	1783.0	1728.0	1728.0	1787.0	1787.0	1787.0	1743.0	1743.0	1810.0	1810.0	1810.0	1787.0	1787.0	1828.0	1828.0	1828.0	1819.0	1819.0	1839.0	1839.0	1839.0	1862.0	1862.0	1840.0	1840.0	1840.0	1879.0	1879.0	1902.0	1902.0	1902.0	1892.0	1892.0	1911.0	1911.0	1911.0	1987.0	1987.0	2025.0	2025.0	2025.0	2043.0	2043.0	2059.0	2059.0	2059.0	2054.0	2054.0	2106.0	2106.0	2106.0	2146.0	2146.0	2128.0	2128.0	2128.0	2224.0	2224.0	2182.0	2182.0	2182.0	2246.0	2246.0	2298.0	2298.0	2298.0	2275.0	2275.0	2302.0	2302.0	2302.0	2360.0	2360.0	2409.0	2409.0	2409.0	2413.0	2413.0	2446.0	2446.0	2446.0	2443.0	2443.0	2499.0	2499.0	2499.0	2492.0	2492.0	2541.0	2541.0	2541.0	2504.0	2504.0	2527.0	2527.0	2527.0	2570.0	2570.0	2606.0	2606.0	2606.0	2602.0	2602.0	2614.0	2614.0	2614.0	2643.0	2643.0	2655.0	2655.0	2655.0	2652.0	2652.0	2669.0	2669.0	2669.0	2735.0	2735.0	2738.0	2738.0	2738.0	2745.0	2745.0	2722.0	2722.0	2722.0	2759.0	2759.0	2764.0	2764.0	2764.0	2769.0	2769.0	2739.0	2739.0	2739.0	2751.0	2751.0	2757.0	2757.0	2757.0	2787.0	2787.0	2781.0	2781.0	2781.0	2810.0	2810.0	2789.0	2789.0	2789.0	2813.0	2813.0	2799.0	2799.0	2799.0	2818.0	2818.0	2769.0	2769.0	2769.0	2806.0	2806.0	2772.0	2772.0	2772.0	2780.0	2780.0	2801.0	2801.0	2801.0	2798.0	2798.0	2746.0	2746.0	2746.0	2759.0	2759.0	2733.0	2733.0	2733.0	2763.0	2763.0	2761.0	2761.0	2733.0	2733.0	2733.0	2754.0	2754.0	2734.0	2734.0	2734.0	2734.0	2734.0	2688.0	2688.0	2688.0	2681.0	2681.0	2689.0	2689.0	2689.0	2657.0	2657.0	2685.0	2685.0	2685.0	2635.0	2635.0	2607.0	2607.0	2607.0	2607.0	2607.0	2578.0	2578.0	2578.0	2582.0	2582.0	2587.0	2587.0	2587.0	2566.0	2566.0	2512.0	2512.0	2512.0	2520.0	2520.0	2455.0	2455.0	2455.0	2431.0	2431.0	2427.0	2427.0	2427.0	2414.0	2414.0	2386.0	2386.0	2386.0	2362.0	2362.0	2377.0	2377.0	2377.0	2303.0	2303.0	2284.0	2284.0	2284.0	2248.0	2248.0	2254.0	2254.0	2254.0	2291.0	2291.0	2216.0	2216.0	2216.0	2244.0	2244.0	2235.0	2235.0	2235.0	2183.0	2183.0	2202.0	2202.0	2202.0	2134.0	2134.0	2172.0	2172.0	2172.0	2132.0	2132.0	2106.0	2106.0	2106.0	2101.0	2101.0	2078.0	2078.0	2078.0	2106.0	2106.0	2131.0	2131.0	2131.0	2127.0	2127.0	2114.0	2114.0	2114.0	2086.0	2086.0	2079.0	2079.0	2079.0	2103.0	2103.0	2099.0	2099.0	2099.0	2097.0	2097.0	2090.0	2090.0	2090.0	2043.0	2043.0	2095.0	2095.0	2095.0	2089.0	2089.0	2031.0	2031.0	2031.0	2096.0	2096.0	2089.0	2089.0	2089.0	2071.0	2071.0	2048.0	2048.0	2048.0	2038.0	2038.0	2081.0	2081.0	2081.0	2084.0	2084.0	2083.0	2083.0	2083.0	2036.0	2036.0	2060.0	2060.0	2060.0	2023.0	2023.0	2079.0	2079.0	2079.0	2031.0	2031.0	2026.0	2026.0	2026.0	2051.0	2051.0	1998.0	1998.0	1998.0	2003.0	2003.0	2052.0	2052.0	2052.0	2010.0	2010.0	2005.0	2005.0	2005.0	2052.0	2052.0	2037.0	2037.0	2037.0	2044.0	2044.0	1986.0	1986.0	1986.0	1979.0	1979.0	1984.0	1984.0	1984.0	2017.0	2017.0	1967.0	1967.0	1979.0	1979.0	1979.0	1983.0	1983.0	2008.0	2008.0	2008.0	2015.0	2015.0	2006.0	2006.0	2006.0	1999.0	1999.0	2012.0	2012.0	2012.0	1998.0	1998.0	1964.0	1964.0	1964.0	1946.0	1946.0	1995.0	1995.0	1995.0	1937.0	1937.0	1948.0	1948.0	1948.0	1968.0	1968.0	1920.0	1920.0	1920.0	1965.0	1965.0	1974.0	1974.0	1974.0	1915.0	1915.0	1919.0	1919.0	1919.0	1917.0	1917.0	1979.0	1979.0	1979.0	1957.0	1957.0	1910.0	1910.0	1910.0	1896.0	1896.0	1924.0	1924.0	1924.0	1919.0	1919.0	1889.0	1889.0	1889.0	1942.0	1942.0	1888.0	1888.0	1888.0	1916.0	1916.0	1911.0	1911.0	1911.0	1885.0	1885.0	1916.0	1916.0	1916.0	1908.0	1908.0	1878.0	1878.0	1878.0	1872.0	1872.0	1843.0	1843.0	1843.0	1884.0	1884.0	1845.0	1845.0	1845.0	1884.0	1884.0	1865.0	1865.0	1865.0	1868.0	1868.0	1831.0	1831.0	1831.0	1880.0	1880.0	1838.0	1838.0	1838.0	1831.0	1831.0	1831.0	1831.0	1831.0	1827.0	1827.0	1791.0	1791.0	1791.0	1778.0	1778.0	1787.0	1787.0	1787.0	1768.0	1768.0	1810.0	1810.0	1810.0	1765.0	1765.0	1740.0	1740.0	1740.0	1739.0	1739.0	1720.0	1720.0	1720.0	1759.0	1759.0	1744.0	1744.0	1744.0	1735.0	1735.0	1691.0	1691.0	1691.0	1662.0	1662.0	1709.0	1709.0	1709.0	1649.0	1649.0	1650.0	1650.0	1650.0	1658.0	1658.0	1641.0	1641.0	1641.0	1643.0	1643.0	1618.0	1618.0	1618.0	1592.0	1592.0	1555.0	1555.0	1555.0	1558.0	1558.0	1539.0	1539.0	1539.0	1559.0	1559.0	1566.0	1566.0	1566.0	1521.0	1521.0	1497.0	1497.0	1497.0	1535.0	1535.0	1468.0	1468.0	1468.0	1479.0	1479.0	1451.0	1451.0	1483.0	1483.0	1483.0	1488.0	1488.0	1478.0	1478.0	1478.0	1434.0	1434.0	1442.0	1442.0	1442.0	1419.0	1419.0	1474.0	1474.0	1474.0	1471.0	1471.0	1403.0	1403.0	1403.0	1465.0	1465.0	1406.0	1406.0	1406.0	1445.0	1445.0	1388.0	1388.0	1388.0	1381.0	1381.0	1371.0	1371.0	1371.0	1425.0	1425.0	1420.0	1420.0	1420.0	1416.0	1416.0	1356.0	1356.0	1356.0	1414.0	1414.0	1410.0	1410.0	1410.0	1410.0	1410.0	1355.0	1355.0	1355.0	1378.0	1378.0	1365.0	1365.0	1365.0	1403.0	1403.0	1411.0	1411.0	1411.0	1379.0	1379.0	1370.0	1370.0	1370.0	1386.0	1386.0	1421.0	1421.0	1421.0	1434.0	1434.0	1394.0	1394.0	1394.0	1423.0	1423.0	1414.0	1414.0	1414.0	1435.0	1435.0	1487.0	1487.0	1487.0	1478.0	1478.0	1479.0	1479.0	1479.0	1489.0	1489.0	1503.0	1503.0	1503.0	1533.0	1533.0	1525.0	1525.0	1525.0	1571.0	1571.0	1592.0	1592.0	1592.0	1576.0	1576.0	1655.0	1655.0	1655.0	1681.0	1681.0	1674.0	1674.0	1674.0	1741.0	1741.0	1723.0	1723.0	1723.0	1745.0	1745.0	1759.0	1759.0	1759.0	1827.0	1827.0	1843.0	1843.0	1843.0	1898.0	1898.0	1940.0	1940.0	1940.0	1952.0	1952.0	1997.0	1997.0	1997.0	2062.0	2062.0	2071.0	2071.0	2071.0	2097.0	2097.0	2137.0	2137.0	2137.0	2211.0	2211.0	2240.0	2240.0	2240.0	2214.0	2214.0	2301.0	2301.0	2301.0	2334.0	2334.0	2317.0	2317.0	2317.0	2393.0	2393.0	2376.0	2376.0	2376.0	2437.0	2437.0	2460.0	2460.0	2460.0	2505.0	2505.0	2465.0	2465.0	2465.0	2543.0	2543.0	2501.0	2501.0	2501.0	2556.0	2556.0	2580.0	2580.0	2580.0	2551.0	2551.0	2612.0	2612.0	2621.0	2621.0	2621.0	2619.0	2619.0	2642.0	2642.0	2642.0	2643.0	2643.0	2662.0	2662.0	2662.0	2671.0	2671.0	2686.0	2686.0	2686.0	2664.0	2664.0	2678.0	2678.0	2678.0	2660.0	2660.0	2708.0	2708.0	2708.0	2733.0	2733.0	2711.0	2711.0	2711.0	2734.0	2734.0	2708.0	2708.0	2708.0	2743.0	2743.0	2766.0	2766.0	2766.0	2742.0	2742.0	2742.0	2742.0	2742.0	2732.0	2732.0	2748.0	2748.0	2748.0	2762.0	2762.0	2783.0	2783.0	2783.0	2761.0	2761.0	2760.0	2760.0	2760.0	2765.0	2765.0	2791.0	2791.0	2791.0	2723.0	2723.0	2717.0	2717.0	2717.0	2722.0	2722.0	2738.0	2738.0	2738.0	2738.0	2738.0	2696.0	2696.0	2696.0	2686.0	2686.0	2692.0	2692.0	2692.0	2649.0	2649.0	2698.0	2698.0	2698.0	2644.0	2644.0	2660.0	2660.0	2660.0	2633.0	2633.0	2603.0	2603.0	2603.0	2623.0	2623.0	2595.0	2595.0	2595.0	2559.0	2559.0	2565.0	2565.0	2565.0	2546.0	2546.0	2567.0	2567.0	2567.0	2570.0	2570.0	2509.0	2509.0	2509.0	2560.0	2560.0	2484.0	2484.0	2484.0	2475.0	2475.0	2457.0	2457.0	2457.0	2471.0	2471.0	2472.0	2472.0	2472.0	2422.0	2422.0	2427.0	2427.0	2427.0	2439.0	2439.0	2408.0	2408.0	2408.0	2363.0	2363.0	2390.0	2390.0	2390.0	2318.0	2318.0	2298.0	2298.0	2298.0	2306.0	2306.0	2301.0	2301.0	2301.0	2271.0	2271.0	2256.0	2256.0	2256.0	2243.0	2243.0	2205.0	2205.0	2205.0	2195.0	2195.0	2164.0	2164.0	2164.0	2110.0	2110.0	2071.0	2071.0	2071.0	2045.0	2045.0	2065.0	2065.0	2065.0	2008.0	2008.0	2011.0	2011.0	2011.0	2002.0	2002.0	1973.0	1973.0	1973.0	1970.0	1970.0	2015.0	2015.0	2015.0	1989.0	1989.0	1990.0	1990.0	1980.0	1980.0	1980.0	1935.0	1935.0	1957.0	1957.0	1957.0	1973.0	1973.0	1991.0	1991.0	1991.0	1972.0	1972.0	1991.0	1991.0	1991.0	2018.0	2018.0	1974.0	1974.0	1974.0	1962.0	1962.0	1984.0	1984.0	1984.0	2009.0	2009.0	2033.0	2033.0	2033.0	1983.0	1983.0	2032.0	2032.0	2032.0	2014.0	2014.0	2052.0	2052.0	2052.0	1986.0	1986.0	2006.0	2006.0	2006.0	2035.0	2035.0	1988.0	1988.0	1988.0	1993.0	1993.0	2013.0	2013.0	2013.0	1959.0	1959.0	1965.0	1965.0	1965.0	2005.0	2005.0	1942.0	1942.0	1942.0	1997.0	1997.0	1937.0	1937.0	1937.0	1943.0	1943.0	1973.0	1973.0	1973.0	1918.0	1918.0	1935.0	1935.0	1935.0	1951.0	1951.0	1900.0	1900.0	1900.0	1925.0	1925.0	1966.0	1966.0	1966.0	1952.0	1952.0	1934.0	1934.0	1934.0	1905.0	1905.0	1894.0	1894.0	1894.0	1963.0	1963.0	1958.0	1958.0	1958.0	1958.0	1958.0	1975.0	1975.0	1975.0	1930.0	1930.0	1941.0	1941.0	1941.0	1982.0	1982.0	1972.0	1972.0	1972.0	1923.0	1923.0	1963.0	1963.0	1963.0	1974.0	1974.0	1912.0	1912.0	1912.0	1978.0	1978.0	1928.0	1928.0	1928.0	1907.0	1907.0	1909.0	1909.0	1909.0	1940.0	1940.0	1892.0	1892.0	1892.0	1880.0	1880.0	1924.0	1924.0	1924.0	1852.0	1852.0	1880.0	1880.0	1880.0	1880.0	1880.0	1886.0	1886.0	1886.0	1805.0	1805.0	1804.0	1804.0	1804.0	1835.0	1835.0	1761.0	1761.0	1761.0	1751.0	1751.0	1736.0	1736.0	1736.0	1738.0	1738.0	1726.0	1726.0	1726.0	1734.0	1734.0	1683.0	1683.0	1683.0	1658.0	1658.0	1651.0	1651.0	1651.0	1634.0	1634.0	1663.0	1663.0	1663.0	1628.0	1628.0	1616.0	1616.0	1621.0	1621.0	1621.0	1644.0	1644.0	1604.0	1604.0	1604.0	1591.0	1591.0	1599.0	1599.0	1599.0	1637.0	1637.0	1587.0	1587.0	1587.0	1577.0	1577.0	1568.0	1568.0	1568.0	1574.0	1574.0	1574.0	1574.0	1574.0	1621.0	1621.0	1624.0	1624.0	1624.0	1586.0	1586.0	1560.0	1560.0	1560.0	1619.0	1619.0	1552.0	1552.0	1552.0	1562.0	1562.0	1574.0	1574.0	1574.0	1597.0	1597.0	1591.0	1591.0	1591.0	1569.0	1569.0	1594.0	1594.0	1594.0	1542.0	1542.0	1516.0	1516.0	1516.0	1547.0	1547.0	1502.0	1502.0	1502.0	1523.0	1523.0	1526.0	1526.0	1526.0	1543.0	