1799.0	1799.0	1789.0	1789.0	1789.0	1794.0	1794.0	1797.0	1797.0	1797.0	1798.0	1798.0	1787.0	1787.0	1787.0	1814.0	1814.0	1805.0	1805.0	1805.0	1809.0	1809.0	1814.0	1814.0	1814.0	1817.0	1817.0	1785.0	1785.0	1785.0	1785.0	1785.0	1791.0	1791.0	1791.0	1771.0	1771.0	1789.0	1789.0	1789.0	1800.0	1800.0	1780.0	1780.0	1780.0	1781.0	1781.0	1779.0	1779.0	1779.0	1780.0	1780.0	1775.0	1775.0	1775.0	1773.0	1773.0	1776.0	1776.0	1776.0	1773.0	1773.0	1804.0	1804.0	1804.0	1754.0	1754.0	1787.0	1787.0	1787.0	1773.0	1773.0	1792.0	1792.0	1792.0	1779.0	1779.0	1775.0	1775.0	1775.0	1811.0	1811.0	1796.0	1796.0	1796.0	1823.0	1823.0	1800.0	1800.0	1800.0	1808.0	1808.0	1816.0	1816.0	1816.0	1828.0	1828.0	1832.0	1832.0	1832.0	1862.0	1862.0	1868.0	1868.0	1868.0	1863.0	1863.0	1900.0	1900.0	1900.0	1882.0	1882.0	1916.0	1916.0	1958.0	1958.0	1958.0	1942.0	1942.0	1971.0	1971.0	1971.0	2019.0	2019.0	2030.0	2030.0	2030.0	2034.0	2034.0	2084.0	2084.0	2084.0	2100.0	2100.0	2133.0	2133.0	2133.0	2134.0	2134.0	2168.0	2168.0	2168.0	2200.0	2200.0	2211.0	2211.0	2211.0	2236.0	2236.0	2260.0	2260.0	2260.0	2283.0	2283.0	2297.0	2297.0	2297.0	2297.0	2297.0	2322.0	2322.0	2322.0	2367.0	2367.0	2367.0	2367.0	2367.0	2380.0	2380.0	2387.0	2387.0	2387.0	2410.0	2410.0	2404.0	2404.0	2404.0	2439.0	2439.0	2436.0	2436.0	2436.0	2452.0	2452.0	2455.0	2455.0	2455.0	2441.0	2441.0	2455.0	2455.0	2455.0	2456.0	2456.0	2459.0	2459.0	2459.0	2484.0	2484.0	2489.0	2489.0	2489.0	2472.0	2472.0	2476.0	2476.0	2476.0	2468.0	2468.0	2472.0	2472.0	2472.0	2487.0	2487.0	2454.0	2454.0	2454.0	2480.0	2480.0	2484.0	2484.0	2484.0	2471.0	2471.0	2472.0	2472.0	2472.0	2479.0	2479.0	2435.0	2435.0	2435.0	2445.0	2445.0	2431.0	2431.0	2431.0	2443.0	2443.0	2443.0	2443.0	2443.0	2449.0	2449.0	2443.0	2443.0	2443.0	2415.0	2415.0	2448.0	2448.0	2448.0	2458.0	2458.0	2412.0	2412.0	2412.0	2415.0	2415.0	2415.0	2415.0	2415.0	2421.0	2421.0	2426.0	2426.0	2426.0	2403.0	2403.0	2419.0	2419.0	2419.0	2418.0	2418.0	2384.0	2384.0	2384.0	2401.0	2401.0	2394.0	2394.0	2394.0	2412.0	2412.0	2401.0	2401.0	2401.0	2395.0	2395.0	2384.0	2384.0	2384.0	2368.0	2368.0	2387.0	2387.0	2387.0	2355.0	2355.0	2369.0	2369.0	2369.0	2383.0	2383.0	2374.0	2374.0	2374.0	2338.0	2338.0	2356.0	2356.0	2356.0	2356.0	2356.0	2368.0	2368.0	2338.0	2338.0	2338.0	2334.0	2334.0	2347.0	2347.0	2347.0	2323.0	2323.0	2339.0	2339.0	2339.0	2315.0	2315.0	2335.0	2335.0	2335.0	2334.0	2334.0	2333.0	2333.0	2333.0	2308.0	2308.0	2307.0	2307.0	2307.0	2313.0	2313.0	2297.0	2297.0	2297.0	2327.0	2327.0	2287.0	2287.0	2287.0	2307.0	2307.0	2316.0	2316.0	2316.0	2270.0	2270.0	2272.0	2272.0	2272.0	2278.0	2278.0	2290.0	2290.0	2290.0	2262.0	2262.0	2247.0	2247.0	2247.0	2271.0	2271.0	2251.0	2251.0	2251.0	2259.0	2259.0	2220.0	2220.0	2220.0	2230.0	2230.0	2211.0	2211.0	2211.0	2221.0	2221.0	2208.0	2208.0	2208.0	2171.0	2171.0	2186.0	2186.0	2186.0	2188.0	2188.0	2169.0	2169.0	2169.0	2160.0	2160.0	2136.0	2136.0	2136.0	2130.0	2130.0	2125.0	2125.0	2125.0	2126.0	2126.0	2112.0	2112.0	2112.0	2139.0	2139.0	2108.0	2108.0	2108.0	2096.0	2096.0	2096.0	2096.0	2096.0	2084.0	2084.0	2085.0	2085.0	2085.0	2095.0	2095.0	2067.0	2067.0	2067.0	2095.0	2095.0	2070.0	2070.0	2070.0	2075.0	2075.0	2062.0	2062.0	2062.0	2081.0	2081.0	2065.0	2065.0	2065.0	2070.0	2070.0	2056.0	2056.0	2056.0	2039.0	2039.0	2060.0	2060.0	2060.0	2042.0	2042.0	2060.0	2060.0	2060.0	2056.0	2056.0	2052.0	2052.0	2052.0	2044.0	2044.0	2050.0	2050.0	2050.0	2063.0	2063.0	2038.0	2038.0	2038.0	2031.0	2031.0	2039.0	2039.0	2039.0	2005.0	2005.0	2019.0	2019.0	2019.0	2026.0	2026.0	2036.0	2036.0	2036.0	2021.0	2021.0	2022.0	2022.0	2022.0	2016.0	2016.0	2047.0	2047.0	2047.0	2002.0	2002.0	2008.0	2008.0	2008.0	2036.0	2036.0	2031.0	2031.0	2015.0	2015.0	2015.0	2001.0	2001.0	2020.0	2020.0	2020.0	2023.0	2023.0	2007.0	2007.0	2007.0	2030.0	2030.0	2003.0	2003.0	2003.0	2001.0	2001.0	2010.0	2010.0	2010.0	2006.0	2006.0	1975.0	1975.0	1975.0	2001.0	2001.0	1986.0	1986.0	1986.0	1995.0	1995.0	1991.0	1991.0	1991.0	1980.0	1980.0	1986.0	1986.0	1986.0	1977.0	1977.0	1977.0	1977.0	1977.0	1971.0	1971.0	1959.0	1959.0	1959.0	1966.0	1966.0	1952.0	1952.0	1952.0	1955.0	1955.0	1948.0	1948.0	1948.0	1933.0	1933.0	1952.0	1952.0	1952.0	1930.0	1930.0	1956.0	1956.0	1956.0	1947.0	1947.0	1947.0	1947.0	1947.0	1930.0	1930.0	1950.0	1950.0	1950.0	1921.0	1921.0	1923.0	1923.0	1923.0	1946.0	1946.0	1908.0	1908.0	1908.0	1921.0	1921.0	1937.0	1937.0	1937.0	1914.0	1914.0	1904.0	1904.0	1904.0	1904.0	1904.0	1904.0	1904.0	1904.0	1903.0	1903.0	1899.0	1899.0	1899.0	1890.0	1890.0	1892.0	1892.0	1892.0	1906.0	1906.0	1930.0	1930.0	1930.0	1912.0	1912.0	1885.0	1885.0	1885.0	1915.0	1915.0	1916.0	1916.0	1916.0	1874.0	1874.0	1895.0	1895.0	1895.0	1866.0	1866.0	1892.0	1892.0	1892.0	1908.0	1908.0	1886.0	1886.0	1886.0	1882.0	1882.0	1867.0	1867.0	1867.0	1881.0	1881.0	1897.0	1897.0	1897.0	1863.0	1863.0	1891.0	1891.0	1891.0	1874.0	1874.0	1858.0	1858.0	1858.0	1863.0	1863.0	1900.0	1900.0	1900.0	1847.0	1847.0	1877.0	1877.0	1877.0	1845.0	1845.0	1859.0	1859.0	1859.0	1866.0	1866.0	1870.0	1870.0	1870.0	1835.0	1835.0	1865.0	1865.0	1865.0	1861.0	1861.0	1823.0	1823.0	1823.0	1850.0	1850.0	1830.0	1830.0	1830.0	1867.0	1867.0	1829.0	1829.0	1841.0	1841.0	1841.0	1840.0	1840.0	1847.0	1847.0	1847.0	1846.0	1846.0	1821.0	1821.0	1821.0	1831.0	1831.0	1829.0	1829.0	1829.0	1857.0	1857.0	1867.0	1867.0	1867.0	1819.0	1819.0	1852.0	1852.0	1852.0	1847.0	1847.0	1844.0	1844.0	1844.0	1847.0	1847.0	1822.0	1822.0	1822.0	1837.0	1837.0	1825.0	1825.0	1825.0	1822.0	1822.0	1851.0	1851.0	1851.0	1827.0	1827.0	1838.0	1838.0	1838.0	1816.0	1816.0	1847.0	1847.0	1847.0	1819.0	1819.0	1801.0	1801.0	1801.0	1819.0	1819.0	1807.0	1807.0	1807.0	1808.0	1808.0	1820.0	1820.0	1820.0	1813.0	1813.0	1839.0	1839.0	1839.0	1801.0	1801.0	1824.0	1824.0	1824.0	1829.0	1829.0	1802.0	1802.0	1802.0	1840.0	1840.0	1810.0	1810.0	1810.0	1816.0	1816.0	1803.0	1803.0	1803.0	1811.0	1811.0	1829.0	1829.0	1829.0	1801.0	1801.0	1798.0	1798.0	1798.0	1821.0	1821.0	1824.0	1824.0	1824.0	1813.0	1813.0	1801.0	1801.0	1801.0	1805.0	1805.0	1790.0	1790.0	1790.0	1814.0	1814.0	1811.0	1811.0	1811.0	1800.0	1800.0	1793.0	1793.0	1793.0	1807.0	1807.0	1817.0	1817.0	1817.0	1815.0	1815.0	1787.0	1787.0	1787.0	1787.0	1787.0	1825.0	1825.0	1825.0	1843.0	1843.0	1805.0	1805.0	1805.0	1802.0	1802.0	1811.0	1811.0	1811.0	1796.0	1796.0	1786.0	1786.0	1786.0	1812.0	1812.0	1801.0	1801.0	1801.0	1816.0	1816.0	1824.0	1824.0	1824.0	1798.0	1798.0	1803.0	1803.0	1803.0	1823.0	1823.0	1814.0	1814.0	1814.0	1832.0	1832.0	1819.0	1819.0	1819.0	1793.0	1793.0	1827.0	1827.0	1827.0	1789.0	1789.0	1790.0	1790.0	1790.0	1807.0	1807.0	1820.0	1820.0	1793.0	1793.0	1793.0	1775.0	1775.0	1828.0	1828.0	1828.0	1792.0	1792.0	1822.0	1822.0	1822.0	1816.0	1816.0	1798.0	1798.0	1798.0	1805.0	1805.0	1783.0	1783.0	1783.0	1798.0	1798.0	1797.0	1797.0	1797.0	1811.0	1811.0	1810.0	1810.0	1810.0	1790.0	1790.0	1832.0	1832.0	1832.0	1811.0	1811.0	1789.0	1789.0	1789.0	1776.0	1776.0	1799.0	1799.0	1799.0	1790.0	1790.0	1828.0	1828.0	1828.0	1804.0	1804.0	1795.0	1795.0	1795.0	1795.0	1795.0	1786.0	1786.0	1786.0	1816.0	1816.0	1789.0	1789.0	1789.0	1779.0	1779.0	1785.0	1785.0	1785.0	1827.0	1827.0	1780.0	1780.0	1780.0	1810.0	1810.0	1827.0	1827.0	1827.0	1831.0	1831.0	1792.0	1792.0	1792.0	1828.0	1828.0	1782.0	1782.0	1782.0	1783.0	1783.0	1782.0	1782.0	1782.0	1787.0	1787.0	1805.0	1805.0	1805.0	1795.0	1795.0	1815.0	1815.0	1815.0	1816.0	1816.0	1780.0	1780.0	1780.0	1813.0	1813.0	1789.0	1789.0	1789.0	1792.0	1792.0	1790.0	1790.0	1790.0	1805.0	1805.0	1787.0	1787.0	1787.0	1791.0	1791.0	1820.0	1820.0	1820.0	1825.0	1825.0	1801.0	1801.0	1801.0	1798.0	1798.0	1793.0	1793.0	1793.0	1794.0	1794.0	1817.0	1817.0	1817.0	1805.0	1805.0	1790.0	1790.0	1790.0	1793.0	1793.0	1826.0	1826.0	1826.0	1815.0	1815.0	1817.0	1817.0	1817.0	1797.0	1797.0	1791.0	1791.0	1791.0	1828.0	1828.0	1786.0	1786.0	1786.0	1818.0	1818.0	1813.0	1813.0	1813.0	1811.0	1811.0	1789.0	1789.0	1789.0	1781.0	1781.0	1792.0	1792.0	1792.0	1790.0	1790.0	1779.0	1779.0	1779.0	1809.0	1809.0	1810.0	1810.0	1810.0	1779.0	1779.0	1797.0	1797.0	1797.0	1797.0	1797.0	1799.0	1799.0	1790.0	1790.0	1790.0	1800.0	1800.0	1804.0	1804.0	1804.0	1785.0	1785.0	1801.0	1801.0	1801.0	1808.0	1808.0	1811.0	1811.0	1811.0	1832.0	1832.0	1832.0	1832.0	1832.0	1808.0	1808.0	1814.0	1814.0	1814.0	1835.0	1835.0	1830.0	1830.0	1830.0	1860.0	1860.0	1878.0	1878.0	1878.0	1900.0	1900.0	1890.0	1890.0	1890.0	1927.0	1927.0	1933.0	1933.0	1933.0	1947.0	1947.0	1988.0	1988.0	1988.0	1974.0	1974.0	2036.0	2036.0	2036.0	2059.0	2059.0	2080.0	2080.0	2080.0	2072.0	2072.0	2099.0	2099.0	2099.0	2146.0	2146.0	2168.0	2168.0	2168.0	2165.0	2165.0	2193.0	2193.0	2193.0	2251.0	2251.0	2255.0	2255.0	2255.0	2258.0	2258.0	2282.0	2282.0	2282.0	2313.0	2313.0	2311.0	2311.0	2311.0	2338.0	2338.0	2343.0	2343.0	2343.0	2371.0	2371.0	2384.0	2384.0	2384.0	2395.0	2395.0	2400.0	2400.0	2400.0	2410.0	2410.0	2416.0	2416.0	2416.0	2452.0	2452.0	2444.0	2444.0	2444.0	2432.0	2432.0	2464.0	2464.0	2464.0	2448.0	2448.0	2452.0	2452.0	2452.0	2443.0	2443.0	2465.0	2465.0	2465.0	2464.0	2464.0	2460.0	2460.0	2460.0	2482.0	2482.0	2461.0	2461.0	2461.0	2464.0	2464.0	2459.0	2459.0	2459.0	2463.0	2463.0	2440.0	2440.0	2440.0	2444.0	2444.0	2451.0	2451.0	2451.0	2444.0	2444.0	2457.0	2457.0	2457.0	2443.0	2443.0	2453.0	2453.0	2453.0	2432.0	2432.0	2456.0	2456.0	2456.0	2444.0	2444.0	2441.0	2441.0	2441.0	2411.0	2411.0	2432.0	2432.0	2432.0	2421.0	2421.0	2416.0	2416.0	2416.0	2404.0	2404.0	2420.0	2420.0	2420.0	2402.0	2402.0	2396.0	2396.0	2396.0	2401.0	2401.0	2410.0	2410.0	2392.0	2392.0	2392.0	2369.0	2369.0	2378.0	2378.0	2378.0	2413.0	2413.0	2380.0	2380.0	2380.0	2393.0	2393.0	2393.0	2393.0	2393.0	2371.0	2371.0	2385.0	2385.0	2385.0	2381.0	2381.0	2374.0	2374.0	2374.0	2367.0	2367.0	2365.0	2365.0	2365.0	2343.0	2343.0	2357.0	2357.0	2357.0	2336.0	2336.0	2347.0	2347.0	2347.0	2367.0	2367.0	2337.0	2337.0	2337.0	2334.0	2334.0	2346.0	2346.0	2346.0	2313.0	2313.0	2309.0	2309.0	2309.0	2339.0	2339.0	2318.0	2318.0	2318.0	2339.0	2339.0	2309.0	2309.0	2309.0	2320.0	2320.0	2292.0	2292.0	2292.0	2300.0	2300.0	2310.0	2310.0	2310.0	2318.0	2318.0	2300.0	2300.0	2300.0	2289.0	2289.0	2261.0	2261.0	2261.0	2279.0	2279.0	2285.0	2285.0	2285.0	2271.0	2271.0	2260.0	2260.0	2260.0	2256.0	2256.0	2255.0	2255.0	2255.0	2238.0	2238.0	2245.0	2245.0	2245.0	2218.0	2218.0	2195.0	2195.0	2195.0	2203.0	2203.0	2185.0	2185.0	2185.0	2209.0	2209.0	2182.0	2182.0	2182.0	2194.0	2194.0	2170.0	2170.0	2170.0	2177.0	2177.0	2146.0	2146.0	2146.0	2151.0	2151.0	2181.0	2181.0	2181.0	2129.0	2129.0	2111.0	2111.0	2111.0	2108.0	2108.0	2140.0	2140.0	2140.0	2095.0	2095.0	2110.0	2110.0	2110.0	2109.0	2109.0	2093.0	2093.0	2093.0	2085.0	2085.0	2099.0	2099.0	2099.0	2080.0	2080.0	2060.0	2060.0	2060.0	2065.0	2065.0	2054.0	2054.0	2054.0	2053.0	2053.0	2043.0	2043.0	2043.0	2062.0	2062.0	2045.0	2045.0	2045.0	2062.0	2062.0	2042.0	2042.0	2042.0	2056.0	2056.0	2029.0	2029.0	2029.0	2011.0	2011.0	2047.0	2047.0	2047.0	2017.0	2017.0	2024.0	2024.0	2026.0	2026.0	2026.0	2057.0	2057.0	2036.0	2036.0	2036.0	2040.0	2040.0	2019.0	2019.0	2019.0	2014.0	2014.0	2035.0	2035.0	2035.0	2025.0	2025.0	2032.0	2032.0	2032.0	2027.0	2027.0	2026.0	2026.0	2026.0	2018.0	2018.0	2015.0	2015.0	2015.0	2011.0	2011.0	2044.0	2044.0	2044.0	2048.0	2048.0	2038.0	2038.0	2038.0	2017.0	2017.0	2017.0	2017.0	2017.0	2010.0	2010.0	2017.0	2017.0	2017.0	2011.0	2011.0	2004.0	2004.0	2004.0	1997.0	1997.0	2005.0	2005.0	2005.0	1996.0	1996.0	1971.0	1971.0	1971.0	2008.0	2008.0	1994.0	1994.0	1994.0	1969.0	1969.0	2010.0	2010.0	2010.0	1982.0	1982.0	1982.0	1982.0	1982.0	1977.0	1977.0	1978.0	1978.0	1978.0	1985.0	1985.0	1978.0	1978.0	1978.0	1962.0	1962.0	1956.0	1956.0	1956.0	1963.0	1963.0	1981.0	1981.0	1981.0	1966.0	1966.0	1946.0	1946.0	1946.0	1943.0	1943.0	1946.0	1946.0	1946.0	1942.0	1942.0	1931.0	1931.0	1931.0	1948.0	1948.0	1953.0	1953.0	1953.0	1946.0	1946.0	1945.0	1945.0	1945.0	1954.0	1954.0	1945.0	1945.0	1945.0	1931.0	1931.0	1927.0	1927.0	1927.0	1919.0	1919.0	1933.0	1933.0	1933.0	1916.0	1916.0	1895.0	1895.0	1895.0	1898.0	1898.0	1896.0	1896.0	1896.0	1911.0	1911.0	1889.0	1889.0	1889.0	1906.0	1906.0	1890.0	1890.0	1890.0	1895.0	1895.0	1895.0	1895.0	1895.0	1876.0	1876.0	1905.0	1905.0	1905.0	1872.0	1872.0	1882.0	1882.0	1882.0	1871.0	1871.0	1881.0	1881.0	1881.0	1873.0	1873.0	1895.0	1895.0	1895.0	1866.0	1866.0	1885.0	1885.0	1885.0	1895.0	1895.0	1897.0	1897.0	1897.0	1872.0	1872.0	1857.0	1857.0	1857.0	1849.0	1849.0	1855.0	1855.0	1890.0	1890.0	1890.0	1847.0	1847.0	1882.0	1882.0	1882.0	1869.0	1869.0	1878.0	1878.0	1878.0	1881.0	1881.0	1833.0	1833.0	1833.0	1844.0	1844.0	1846.0	1846.0	1846.0	1871.0	1871.0	1859.0	1859.0	1859.0	1864.0	1864.0	1836.0	1836.0	1836.0	1826.0	1826.0	1838.0	1838.0	1838.0	1835.0	1835.0	1853.0	1853.0	1853.0	1827.0	1827.0	1844.0	1844.0	1844.0	1853.0	1853.0	1834.0	1834.0	1834.0	1839.0	1839.0	1858.0	1858.0	1858.0	1836.0	1836.0	1818.0	1818.0	1818.0	1831.0	1831.0	1847.0	1847.0	1847.0	1853.0	1853.0	1852.0	1852.0	1852.0	1823.0	1823.0	1805.0	1805.0	1805.0	1834.0	1834.0	1823.0	1823.0	1823.0	1814.0	1814.0	1801.0	1801.0	1801.0	1843.0	1843.0	1814.0	1814.0	1814.0	1810.0	1810.0	1803.0	1803.0	1803.0	1799.0	1799.0	1832.0	1832.0	1832.0	1824.0	1824.0	1840.0	1840.0	1840.0	1806.0	1806.0	1786.0	1786.0	1786.0	1819.0	1819.0	1804.0	1804.0	1804.0	1784.0	1784.0	1792.0	1792.0	1792.0	1800.0	1800.0	1819.0	1819.0	1819.0	1801.0	1801.0	1789.0	1789.0	1789.0	1802.0	1802.0	1800.0	1800.0	1800.0	1814.0	1814.0	1807.0	1807.0	1807.0	1781.0	1781.0	1815.0	1815.0	1815.0	1807.0	1807.0	1819.0	1819.0	1819.0	1814.0	1814.0	1807.0	1807.0	1807.0	1789.0	1789.0	1798.0	1798.0	1798.0	1796.0	1796.0	1789.0	1789.0	1789.0	1789.0	1789.0	1784.0	1784.0	1784.0	1785.0	1785.0	1821.0	1821.0	1821.0	1801.0	1801.0	1775.0	1775.0	1775.0	1793.0	1793.0	1796.0	1796.0	1796.0	1790.0	1790.0	1804.0	1804.0	1804.0	1788.0	1788.0	1784.0	1784.0	1784.0	1799.0	1799.0	1810.0	1810.0	1816.0	1816.0	1816.0	1792.0	1792.0	1791.0	1791.0	1791.0	1775.0	1775.0	1796.0	1796.0	1796.0	1787.0	1787.0	1783.0	1783.0	1783.0	1807.0	1807.0	1797.0	1797.0	1797.0	1756.0	1756.0	1779.0	1779.0	1779.0	1801.0	1801.0	1773.0	1773.0	1773.0	1775.0	1775.0	1796.0	1796.0	1796.0	1799.0	1799.0	1776.0	1776.0	1776.0	1763.0	1763.0	1768.0	1768.0	1768.0	1811.0	1811.0	1772.0	1772.0	1772.0	1811.0	1811.0	1813.0	1813.0	1813.0	1793.0	1793.0	1802.0	1802.0	1802.0	1802.0	1802.0	1781.0	1781.0	1781.0	1804.0	1804.0	1801.0	1801.0	1801.0	1771.0	1771.0	1779.0	1779.0	1779.0	1779.0	1779.0	1793.0	1793.0	1793.0	1780.0	1780.0	1800.0	1800.0	1800.0	1804.0	1804.0	1787.0	1787.0	1787.0	1803.0	1803.0	1801.0	1801.0	1801.0	1770.0	1770.0	1800.0	1800.0	1800.0	1787.0	1787.0	1808.0	1808.0	1808.0	1796.0	1796.0	1821.0	1821.0	1821.0	1806.0	1806.0	1807.0	1807.0	1807.0	1779.0	1779.0	1801.0	1801.0	1801.0	1771.0	1771.0	1791.0	1791.0	1791.0	1792.0	1792.0	1808.0	1808.0	1808.0	1807.0	1807.0	1812.0	1812.0	1812.0	1805.0	1805.0	1814.0	1814.0	1814.0	1778.0	1778.0	1816.0	1816.0	1816.0	1788.0	1788.0	1809.0	1809.0	1809.0	