1753.0	1753.0	1757.0	1757.0	1703.0	1703.0	1703.0	1698.0	1698.0	1713.0	1713.0	1678.0	1678.0	1678.0	1734.0	1734.0	1667.0	1667.0	1667.0	1716.0	1716.0	1712.0	1712.0	1712.0	1716.0	1716.0	1667.0	1667.0	1667.0	1703.0	1703.0	1705.0	1705.0	1705.0	1657.0	1657.0	1692.0	1692.0	1692.0	1662.0	1662.0	1702.0	1702.0	1702.0	1645.0	1645.0	1644.0	1644.0	1644.0	1693.0	1693.0	1626.0	1626.0	1626.0	1671.0	1671.0	1616.0	1616.0	1616.0	1639.0	1639.0	1648.0	1648.0	1648.0	1666.0	1666.0	1626.0	1626.0	1626.0	1600.0	1600.0	1658.0	1658.0	1658.0	1603.0	1603.0	1625.0	1625.0	1625.0	1656.0	1656.0	1675.0	1675.0	1675.0	1659.0	1659.0	1667.0	1667.0	1667.0	1613.0	1613.0	1653.0	1653.0	1653.0	1662.0	1662.0	1618.0	1618.0	1618.0	1586.0	1586.0	1582.0	1582.0	1582.0	1594.0	1594.0	1620.0	1620.0	1620.0	1632.0	1632.0	1578.0	1578.0	1578.0	1635.0	1635.0	1574.0	1574.0	1574.0	1603.0	1603.0	1606.0	1606.0	1606.0	1571.0	1571.0	1616.0	1616.0	1616.0	1636.0	1636.0	1621.0	1621.0	1621.0	1638.0	1638.0	1580.0	1580.0	1580.0	1578.0	1578.0	1561.0	1561.0	1561.0	1626.0	1626.0	1583.0	1583.0	1583.0	1570.0	1570.0	1623.0	1623.0	1623.0	1630.0	1630.0	1624.0	1624.0	1624.0	1628.0	1628.0	1566.0	1566.0	1566.0	1626.0	1626.0	1631.0	1631.0	1631.0	1617.0	1617.0	1601.0	1601.0	1601.0	1607.0	1607.0	1570.0	1570.0	1570.0	1585.0	1585.0	1559.0	1559.0	1559.0	1624.0	1624.0	1564.0	1564.0	1564.0	1604.0	1604.0	1580.0	1580.0	1580.0	1615.0	1615.0	1622.0	1622.0	1622.0	1614.0	1614.0	1581.0	1581.0	1581.0	1611.0	1611.0	1562.0	1562.0	1562.0	1612.0	1612.0	1614.0	1614.0	1614.0	1563.0	1563.0	1573.0	1573.0	1623.0	1623.0	1623.0	1601.0	1601.0	1569.0	1569.0	1569.0	1567.0	1567.0	1554.0	1554.0	1554.0	1555.0	1555.0	1552.0	1552.0	1552.0	1587.0	1587.0	1556.0	1556.0	1556.0	1563.0	1563.0	1576.0	1576.0	1576.0	1556.0	1556.0	1577.0	1577.0	1577.0	1614.0	1614.0	1580.0	1580.0	1580.0	1567.0	1567.0	1600.0	1600.0	1600.0	1544.0	1544.0	1549.0	1549.0	1549.0	1551.0	1551.0	1591.0	1591.0	1591.0	1562.0	1562.0	1595.0	1595.0	1595.0	1551.0	1551.0	1554.0	1554.0	1554.0	1598.0	1598.0	1555.0	1555.0	1555.0	1598.0	1598.0	1584.0	1584.0	1584.0	1552.0	1552.0	1528.0	1528.0	1528.0	1537.0	1537.0	1584.0	1584.0	1584.0	1566.0	1566.0	1598.0	1598.0	1598.0	1589.0	1589.0	1604.0	1604.0	1604.0	1603.0	1603.0	1549.0	1549.0	1549.0	1558.0	1558.0	1560.0	1560.0	1560.0	1556.0	1556.0	1559.0	1559.0	1559.0	1600.0	1600.0	1575.0	1575.0	1575.0	1592.0	1592.0	1606.0	1606.0	1606.0	1664.0	1664.0	1708.0	1708.0	1708.0	1676.0	1676.0	1716.0	1716.0	1716.0	1705.0	1705.0	1743.0	1743.0	1743.0	1828.0	1828.0	1855.0	1855.0	1855.0	1847.0	1847.0	1923.0	1923.0	1923.0	1916.0	1916.0	1954.0	1954.0	1954.0	1969.0	1969.0	2037.0	2037.0	2037.0	2055.0	2055.0	2104.0	2104.0	2104.0	2149.0	2149.0	2132.0	2132.0	2132.0	2237.0	2237.0	2249.0	2249.0	2249.0	2293.0	2293.0	2315.0	2315.0	2315.0	2299.0	2299.0	2350.0	2350.0	2350.0	2402.0	2402.0	2400.0	2400.0	2400.0	2391.0	2391.0	2483.0	2483.0	2483.0	2456.0	2456.0	2446.0	2446.0	2446.0	2507.0	2507.0	2488.0	2488.0	2488.0	2537.0	2537.0	2536.0	2536.0	2583.0	2583.0	2583.0	2533.0	2533.0	2566.0	2566.0	2566.0	2541.0	2541.0	2570.0	2570.0	2570.0	2596.0	2596.0	2581.0	2581.0	2581.0	2595.0	2595.0	2611.0	2611.0	2611.0	2617.0	2617.0	2607.0	2607.0	2607.0	2587.0	2587.0	2568.0	2568.0	2568.0	2574.0	2574.0	2555.0	2555.0	2555.0	2603.0	2603.0	2560.0	2560.0	2560.0	2612.0	2612.0	2590.0	2590.0	2590.0	2596.0	2596.0	2562.0	2562.0	2562.0	2588.0	2588.0	2573.0	2573.0	2573.0	2567.0	2567.0	2572.0	2572.0	2572.0	2575.0	2575.0	2591.0	2591.0	2591.0	2594.0	2594.0	2567.0	2567.0	2567.0	2579.0	2579.0	2564.0	2564.0	2564.0	2562.0	2562.0	2571.0	2571.0	2571.0	2514.0	2514.0	2511.0	2511.0	2511.0	2506.0	2506.0	2569.0	2569.0	2569.0	2574.0	2574.0	2572.0	2572.0	2572.0	2563.0	2563.0	2566.0	2566.0	2566.0	2526.0	2526.0	2533.0	2533.0	2533.0	2550.0	2550.0	2515.0	2515.0	2515.0	2503.0	2503.0	2555.0	2555.0	2555.0	2491.0	2491.0	2482.0	2482.0	2482.0	2479.0	2479.0	2470.0	2470.0	2470.0	2537.0	2537.0	2527.0	2527.0	2527.0	2457.0	2457.0	2457.0	2457.0	2457.0	2448.0	2448.0	2454.0	2454.0	2454.0	2477.0	2477.0	2435.0	2435.0	2435.0	2477.0	2477.0	2423.0	2423.0	2423.0	2436.0	2436.0	2467.0	2467.0	2467.0	2453.0	2453.0	2416.0	2416.0	2416.0	2466.0	2466.0	2390.0	2390.0	2390.0	2439.0	2439.0	2380.0	2380.0	2380.0	2370.0	2370.0	2360.0	2360.0	2360.0	2350.0	2350.0	2338.0	2338.0	2338.0	2359.0	2359.0	2371.0	2371.0	2371.0	2360.0	2360.0	2334.0	2334.0	2334.0	2279.0	2279.0	2312.0	2312.0	2312.0	2286.0	2286.0	2291.0	2291.0	2241.0	2241.0	2241.0	2246.0	2246.0	2218.0	2218.0	2218.0	2234.0	2234.0	2191.0	2191.0	2191.0	2167.0	2167.0	2177.0	2177.0	2177.0	2132.0	2132.0	2127.0	2127.0	2127.0	2159.0	2159.0	2103.0	2103.0	2103.0	2090.0	2090.0	2101.0	2101.0	2101.0	2103.0	2103.0	2059.0	2059.0	2059.0	2059.0	2059.0	2100.0	2100.0	2100.0	2048.0	2048.0	2048.0	2048.0	2048.0	2046.0	2046.0	2046.0	2046.0	2046.0	2044.0	2044.0	2002.0	2002.0	2002.0	1991.0	1991.0	1989.0	1989.0	1989.0	2006.0	2006.0	2047.0	2047.0	2047.0	2034.0	2034.0	2034.0	2034.0	2034.0	1986.0	1986.0	1965.0	1965.0	1965.0	2025.0	2025.0	1975.0	1975.0	1975.0	1997.0	1997.0	1978.0	1978.0	1978.0	2023.0	2023.0	2026.0	2026.0	2026.0	2034.0	2034.0	2032.0	2032.0	2032.0	2025.0	2025.0	2008.0	2008.0	2008.0	2017.0	2017.0	2012.0	2012.0	2012.0	2024.0	2024.0	2000.0	2000.0	2000.0	1959.0	1959.0	1992.0	1992.0	1992.0	2017.0	2017.0	1951.0	1951.0	1951.0	1999.0	1999.0	1949.0	1949.0	1949.0	1996.0	1996.0	1952.0	1952.0	1952.0	1983.0	1983.0	1965.0	1965.0	1965.0	1983.0	1983.0	1942.0	1942.0	1942.0	1984.0	1984.0	1918.0	1918.0	1918.0	1973.0	1973.0	1913.0	1913.0	1913.0	1959.0	1959.0	1888.0	1888.0	1888.0	1938.0	1938.0	1892.0	1892.0	1892.0	1927.0	1927.0	1929.0	1929.0	1929.0	1912.0	1912.0	1940.0	1940.0	1940.0	1928.0	1928.0	1911.0	1911.0	1911.0	1894.0	1894.0	1903.0	1903.0	1903.0	1860.0	1860.0	1910.0	1910.0	1910.0	1851.0	1851.0	1868.0	1868.0	1868.0	1839.0	1839.0	1845.0	1845.0	1845.0	1855.0	1855.0	1865.0	1865.0	1865.0	1830.0	1830.0	1830.0	1830.0	1865.0	1865.0	1865.0	1859.0	1859.0	1803.0	1803.0	1803.0	1822.0	1822.0	1794.0	1794.0	1794.0	1781.0	1781.0	1814.0	1814.0	1814.0	1837.0	1837.0	1770.0	1770.0	1770.0	1794.0	1794.0	1770.0	1770.0	1770.0	1770.0	1770.0	1828.0	1828.0	1828.0	1751.0	1751.0	1752.0	1752.0	1752.0	1745.0	1745.0	1734.0	1734.0	1734.0	1743.0	1743.0	1797.0	1797.0	1797.0	1738.0	1738.0	1732.0	1732.0	1732.0	1749.0	1749.0	1729.0	1729.0	1729.0	1705.0	1705.0	1705.0	1705.0	1705.0	1766.0	1766.0	1721.0	1721.0	1721.0	1749.0	1749.0	1699.0	1699.0	1699.0	1742.0	1742.0	1676.0	1676.0	1676.0	1682.0	1682.0	1675.0	1675.0	1675.0	1710.0	1710.0	1676.0	1676.0	1676.0	1696.0	1696.0	1718.0	1718.0	1718.0	1722.0	1722.0	1660.0	1660.0	1660.0	1674.0	1674.0	1646.0	1646.0	1646.0	1658.0	1658.0	1671.0	1671.0	1671.0	1694.0	1694.0	1695.0	1695.0	1695.0	1623.0	1623.0	1687.0	1687.0	1687.0	1670.0	1670.0	1692.0	1692.0	1692.0	1643.0	1643.0	1627.0	1627.0	1627.0	1683.0	1683.0	1673.0	1673.0	1673.0	1608.0	1608.0	1663.0	1663.0	1663.0	1640.0	1640.0	1687.0	1687.0	1687.0	1609.0	1609.0	1659.0	1659.0	1659.0	1615.0	1615.0	1609.0	1609.0	1609.0	1643.0	1643.0	1611.0	1611.0	1611.0	1670.0	1670.0	1662.0	1662.0	1662.0	1597.0	1597.0	1664.0	1664.0	1664.0	1633.0	1633.0	1626.0	1626.0	1626.0	1599.0	1599.0	1616.0	1616.0	1616.0	1599.0	1599.0	1642.0	1642.0	1642.0	1598.0	1598.0	1640.0	1640.0	1640.0	1587.0	1587.0	1608.0	1608.0	1608.0	1584.0	1584.0	1592.0	1592.0	1592.0	1643.0	1643.0	1619.0	1619.0	1629.0	1629.0	1629.0	1595.0	1595.0	1579.0	1579.0	1579.0	1635.0	1635.0	1604.0	1604.0	1604.0	1629.0	1629.0	1594.0	1594.0	1594.0	1592.0	1592.0	1639.0	1639.0	1639.0	1568.0	1568.0	1632.0	1632.0	1632.0	1647.0	1647.0	1635.0	1635.0	1635.0	1624.0	1624.0	1591.0	1591.0	1591.0	1599.0	1599.0	1610.0	1610.0	1610.0	1578.0	1578.0	1611.0	1611.0	1611.0	1614.0	1614.0	1618.0	1618.0	1618.0	1574.0	1574.0	1620.0	1620.0	1620.0	1597.0	1597.0	1643.0	1643.0	1643.0	1632.0	1632.0	1630.0	1630.0	1630.0	1624.0	1624.0	1608.0	1608.0	1608.0	1566.0	1566.0	1575.0	1575.0	1575.0	1585.0	1585.0	1570.0	1570.0	1570.0	1552.0	1552.0	1556.0	1556.0	1556.0	1581.0	1581.0	1599.0	1599.0	1599.0	1597.0	1597.0	1577.0	1577.0	1577.0	1570.0	1570.0	1587.0	1587.0	1587.0	1554.0	1554.0	1569.0	1569.0	1569.0	1564.0	1564.0	1549.0	1549.0	1549.0	1611.0	1611.0	1607.0	1607.0	1607.0	1595.0	1595.0	1538.0	1538.0	1538.0	1548.0	1548.0	1596.0	1596.0	1596.0	1607.0	1607.0	1547.0	1547.0	1547.0	1587.0	1587.0	1538.0	1538.0	1538.0	1535.0	1535.0	1538.0	1538.0	1538.0	1542.0	1542.0	1552.0	1552.0	1552.0	1607.0	1607.0	1595.0	1595.0	1595.0	1545.0	1545.0	1586.0	1586.0	1586.0	1556.0	1556.0	1574.0	1574.0	1574.0	1645.0	1645.0	1590.0	1590.0	1590.0	1595.0	1595.0	1601.0	1601.0	1601.0	1613.0	1613.0	1674.0	1674.0	1674.0	1660.0	1660.0	1674.0	1674.0	1674.0	1707.0	1707.0	1734.0	1734.0	1734.0	1823.0	1823.0	1783.0	1783.0	1783.0	1804.0	1804.0	1887.0	1887.0	1887.0	1916.0	1916.0	1951.0	1951.0	1951.0	2002.0	2002.0	1983.0	1983.0	2038.0	2038.0	2038.0	2071.0	2071.0	2135.0	2135.0	2135.0	2146.0	2146.0	2205.0	2205.0	2205.0	2202.0	2202.0	2275.0	2275.0	2275.0	2292.0	2292.0	2272.0	2272.0	2272.0	2324.0	2324.0	2340.0	2340.0	2340.0	2378.0	2378.0	2390.0	2390.0	2390.0	2401.0	2401.0	2476.0	2476.0	2476.0	2486.0	2486.0	2486.0	2486.0	2486.0	2480.0	2480.0	2535.0	2535.0	2535.0	2559.0	2559.0	2511.0	2511.0	2511.0	2530.0	2530.0	2549.0	2549.0	2549.0	2596.0	2596.0	2528.0	2528.0	2528.0	2571.0	2571.0	2604.0	2604.0	2604.0	2560.0	2560.0	2582.0	2582.0	2582.0	2581.0	2581.0	2586.0	2586.0	2586.0	2555.0	2555.0	2623.0	2623.0	2623.0	2599.0	2599.0	2595.0	2595.0	2595.0	2574.0	2574.0	2563.0	2563.0	2563.0	2566.0	2566.0	2619.0	2619.0	2619.0	2542.0	2542.0	2555.0	2555.0	2555.0	2561.0	2561.0	2552.0	2552.0	2552.0	2585.0	2585.0	2533.0	2533.0	2533.0	2594.0	2594.0	2535.0	2535.0	2535.0	2559.0	2559.0	2555.0	2555.0	2555.0	2587.0	2587.0	2599.0	2599.0	2599.0	2543.0	2543.0	2529.0	2529.0	2529.0	2587.0	2587.0	2524.0	2524.0	2524.0	2517.0	2517.0	2560.0	2560.0	2560.0	2584.0	2584.0	2569.0	2569.0	2569.0	2518.0	2518.0	2503.0	2503.0	2503.0	2558.0	2558.0	2567.0	2567.0	2567.0	2568.0	2568.0	2506.0	2506.0	2506.0	2518.0	2518.0	2566.0	2566.0	2566.0	2542.0	2542.0	2493.0	2493.0	2493.0	2559.0	2559.0	2499.0	2499.0	2499.0	2492.0	2492.0	2532.0	2532.0	2532.0	2486.0	2486.0	2525.0	2525.0	2525.0	2506.0	2506.0	2499.0	2499.0	2499.0	2467.0	2467.0	2472.0	2472.0	2472.0	2482.0	2482.0	2522.0	2522.0	2510.0	2510.0	2510.0	2502.0	2502.0	2472.0	2472.0	2472.0	2468.0	2468.0	2476.0	2476.0	2476.0	2418.0	2418.0	2436.0	2436.0	2436.0	2434.0	2434.0	2395.0	2395.0	2395.0	2454.0	2454.0	2360.0	2360.0	2360.0	2383.0	2383.0	2355.0	2355.0	2355.0	2397.0	2397.0	2327.0	2327.0	2327.0	2388.0	2388.0	2347.0	2347.0	2347.0	2347.0	2347.0	2309.0	2309.0	2309.0	2286.0	2286.0	2291.0	2291.0	2291.0	2260.0	2260.0	2303.0	2303.0	2303.0	2290.0	2290.0	2246.0	2246.0	2246.0	2231.0	2231.0	2195.0	2195.0	2195.0	2175.0	2175.0	2214.0	2214.0	2214.0	2159.0	2159.0	2140.0	2140.0	2140.0	2132.0	2132.0	2162.0	2162.0	2162.0	2164.0	2164.0	2128.0	2128.0	2128.0	2133.0	2133.0	2077.0	2077.0	2077.0	2100.0	2100.0	2098.0	2098.0	2098.0	2099.0	2099.0	2092.0	2092.0	2092.0	2022.0	2022.0	2026.0	2026.0	2026.0	2003.0	2003.0	2067.0	2067.0	2067.0	1994.0	1994.0	2007.0	2007.0	2007.0	2010.0	2010.0	2037.0	2037.0	2037.0	2015.0	2015.0	1985.0	1985.0	1985.0	2037.0	2037.0	1979.0	1979.0	1979.0	1983.0	1983.0	1971.0	1971.0	1971.0	2016.0	2016.0	2000.0	2000.0	2000.0	2020.0	2020.0	1968.0	1968.0	1968.0	1999.0	1999.0	1979.0	1979.0	1979.0	2008.0	2008.0	1955.0	1955.0	1955.0	1990.0	1990.0	2006.0	2006.0	2006.0	1953.0	1953.0	1937.0	1937.0	1937.0	1968.0	1968.0	1971.0	1971.0	1971.0	1973.0	1973.0	1942.0	1942.0	1942.0	1931.0	1931.0	1970.0	1970.0	1970.0	1939.0	1939.0	1921.0	1921.0	1921.0	1980.0	1980.0	1970.0	1970.0	1970.0	1919.0	1919.0	1939.0	1939.0	1939.0	1902.0	1902.0	1930.0	1930.0	1923.0	1923.0	1923.0	1969.0	1969.0	1959.0	1959.0	1959.0	1946.0	1946.0	1890.0	1890.0	1890.0	1955.0	1955.0	1957.0	1957.0	1957.0	1939.0	1939.0	1948.0	1948.0	1948.0	1929.0	1929.0	1871.0	1871.0	1871.0	1939.0	1939.0	1888.0	1888.0	1888.0	1907.0	1907.0	1927.0	1927.0	1927.0	1846.0	1846.0	1859.0	1859.0	1859.0	1896.0	1896.0	1880.0	1880.0	1880.0	1837.0	1837.0	1890.0	1890.0	1890.0	1863.0	1863.0	1816.0	1816.0	1816.0	1845.0	1845.0	1811.0	1811.0	1811.0	1824.0	1824.0	1866.0	1866.0	1866.0	1858.0	1858.0	1800.0	1800.0	1800.0	1826.0	1826.0	1791.0	1791.0	1791.0	1840.0	1840.0	1779.0	1779.0	1779.0	1789.0	1789.0	1817.0	1817.0	1817.0	1758.0	1758.0	1817.0	1817.0	1817.0	1770.0	1770.0	1779.0	1779.0	1779.0	1780.0	1780.0	1807.0	1807.0	1807.0	1742.0	1742.0	1768.0	1768.0	1768.0	1790.0	1790.0	1783.0	1783.0	1783.0	1734.0	1734.0	1759.0	1759.0	1759.0	1726.0	1726.0	1728.0	1728.0	1728.0	1770.0	1770.0	1754.0	1754.0	1754.0	1691.0	1691.0	1723.0	1723.0	1723.0	1750.0	1750.0	1731.0	1731.0	1731.0	1725.0	1725.0	1734.0	1734.0	1734.0	1738.0	1738.0	1731.0	1731.0	1731.0	1710.0	1710.0	1680.0	1680.0	1680.0	1699.0	1699.0	1705.0	1705.0	1705.0	1705.0	1705.0	1725.0	1725.0	1725.0	1698.0	1698.0	1704.0	1704.0	1704.0	1663.0	1663.0	1663.0	1663.0	1663.0	1676.0	1676.0	1643.0	1643.0	1643.0	1683.0	1683.0	1640.0	1640.0	1640.0	1630.0	1630.0	1647.0	1647.0	1647.0	1665.0	1665.0	1619.0	1619.0	1619.0	1653.0	1653.0	1658.0	1658.0	1658.0	1629.0	1629.0	1616.0	1616.0	1616.0	1622.0	1622.0	1667.0	1667.0	1636.0	1636.0	1636.0	1614.0	1614.0	1605.0	1605.0	1605.0	1674.0	1674.0	1667.0	1667.0	1667.0	1617.0	1617.0	1626.0	1626.0	1626.0	1630.0	1630.0	1603.0	1603.0	1603.0	1659.0	1659.0	1600.0	1600.0	1600.0	1649.0	1649.0	1605.0	1605.0	1605.0	1609.0	1609.0	1588.0	1588.0	1588.0	1615.0	1615.0	1615.0	1615.0	1615.0	1654.0	1654.0	1603.0	1603.0	1603.0	1584.0	1584.0	1582.0	1582.0	1582.0	1609.0	1609.0	1579.0	1579.0	1579.0	1641.0	1641.0	1636.0	1636.0	1636.0	1587.0	1587.0	1573.0	1573.0	1573.0	1641.0	1641.0	1571.0	1571.0	1571.0	1564.0	1564.0	1588.0	1588.0	1588.0	1572.0	1572.0	1599.0	1599.0	1599.0	1612.0	1612.0	1636.0	1636.0	1636.0	1579.0	1579.0	1618.0	1618.0	1618.0	1565.0	1565.0	1610.0	1610.0	1610.0	1564.0	1564.0	1563.0	1563.0	1563.0	1624.0	1624.0	1625.0	1625.0	1625.0	1605.0	1605.0	1632.0	1632.0	1632.0	1593.0	1593.0	1560.0	1560.0	1560.0	1605.0	1605.0	1615.0	1615.0	1615.0	1564.0	1564.0	1601.0	1601.0	1601.0	1568.0	1568.0	1568.0	1568.0	1568.0	1623.0	1623.0	1568.0	1568.0	1568.0	1614.0	1614.0	1597.0	1597.0	1597.0	1609.0	1609.0	1579.0	1579.0	1579.0	1541.0	1541.0	1592.0	1592.0	1592.0	1591.0	1591.0	1548.0	1548.0	1548.0	1572.0	1572.0	1581.0	1581.0	1581.0	1606.0	1606.0	1604.0	1604.0	1604.0	1611.0	1611.0	1595.0	1595.0	1595.0	1614.0	1614.0	1589.0	1589.0	1589.0	1552.0	1552.0	1560.0	1560.0	1560.0	1619.0	1619.0	1589.0	1589.0	1589.0	1549.0	1549.0	1576.0	1576.0	1576.0	1607.0	1607.0	1559.0	1559.0	1559.0	1564.0	1564.0	1560.0	1560.0	1599.0	1599.0	1599.0	1548.0	1548.0	1556.0	1556.0	1556.0	1596.0	1596.0	1555.0	1555.0	1555.0	1595.0	1595.0	1614.0	1614.0	1614.0	1592.0	1592.0	1624.0	1624.0	1624.0	1623.0	1623.0	1603.0	1603.0	1603.0	1552.0	1552.0	1549.0	1549.0	1549.0	1551.0	1551.0	1557.0	1557.0	1557.0	1547.0	1547.0	1609.0	1609.0	1609.0	1582.0	1582.0	1607.0	1607.0	1607.0	1545.0	1562.0	1562.0	1518.0	1518.0	1518.0	1476.0	1476.0	1466.0	1466.0	1466.0	1410.0	1410.0	1424.0	1424.0	1424.0	1411.0	1411.0	1388.0	1388.0	1388.0	1379.0	1379.0	1380.0	1380.0	1380.0	1357.0	1357.0	1365.0	1365.0	1365.0	1348.0	1348.0	1367.0	1367.0	1367.0	1374.0	1374.0	1374.0	1374.0	1374.0	1368.0	1368.0	1384.0	1384.0	1384.0	1352.0	1352.0	1368.0	1368.0	1368.0	1392.0	1392.0	1406.0	1406.0	1406.0	1395.0	1395.0	1417.0	1417.0	1417.0	1411.0	1411.0	1383.0	1383.0	1383.0	1384.0	1384.0	1416.0	1416.0	1416.0	1387.0	1387.0	1399.0	1399.0	1399.0	1400.0	1400.0	1424.0	1424.0	1424.0	1434.0	1434.0	1415.0	1415.0	1415.0	1444.0	1444.0	1460.0	1460.0	1438.0	1438.0	1438.0	1440.0	1440.0	1436.0	1436.0	1436.0	1430.0	1430.0	1467.0	1467.0	1467.0	1447.0	1447.0	1447.0	1447.0	1447.0	1457.0	1457.0	1452.0	1452.0	1452.0	1475.0	1475.0	1481.0	1481.0	1481.0	1460.0	1460.0	1500.0	1500.0	1500.0	1458.0	1458.0	1482.0	1482.0	1482.0	1478.0	1478.0	1500.0	1500.0	1500.0	1515.0	1515.0	1513.0	1513.0	1513.0	1474.0	1474.0	1498.0	1498.0	1498.0	1523.0	1523.0	1521.0	1521.0	1521.0	1535.0	1535.0	1509.0	1509.0	1509.0	1515.0	1515.0	1526.0	1526.0	1526.0	1505.0	1505.0	1531.0	1531.0	1531.0	1545.0	1545.0	1514.0	1514.0	1514.0	1517.0	1517.0	1529.0	1529.0	1529.0	1567.0	1567.0	1558.0	1558.0	1558.0	1561.0	1561.0	1564.0	1564.0	1564.0	1568.0	1568.0	1548.0	1548.0	1548.0	1547.0	1547.0	1573.0	1573.0	1573.0	1563.0	1563.0	1561.0	1561.0	1561.0	1560.0	1560.0	1553.0	1553.0	1553.0	1560.0	1560.0	1550.0	1550.0	1550.0	1595.0	1595.0	1556.0	1556.0	1556.0	1603.0	1603.0	1574.0	1574.0	1574.0	1604.0	1604.0	1592.0	1592.0	1592.0	1584.0	1584.0	1567.0	1567.0	1567.0	1578.0	1578.0	1594.0	1594.0	1594.0	1575.0	1575.0	1602.0	1602.0	1602.0	1578.0	1578.0	1584.0	1584.0	1584.0	1628.0	1628.0	1609.0	1609.0	1609.0	1592.0	1592.0	1590.0	1590.0	1590.0	1612.0	1612.0	1600.0	1600.0	1600.0	1595.0	1595.0	1634.0	1634.0	1634.0	1607.0	1607.0	1643.0	1643.0	1643.0	1601.0	1601.0	1606.0	1606.0	1606.0	1620.0	1620.0	1643.0	1643.0	1643.0	1626.0	1626.0	1612.0	1612.0	1612.0	1629.0	1629.0	1657.0	1657.0	1657.0	1647.0	1647.0	1627.0	1627.0	1633.0	1633.0	1633.0	1639.0	1639.0	1651.0	1651.0	1651.0	1652.0	1652.0	1651.0	1651.0	1651.0	1637.0	1637.0	1648.0	1648.0	1648.0	1652.0	1652.0	1665.0	1665.0	1665.0	1652.0	1652.0	1649.0	1649.0	1649.0	1655.0	1655.0	1652.0	1652.0	1652.0	1680.0	1680.0	1671.0	1671.0	1671.0	1656.0	1656.0	1687.0	1687.0	1687.0	1670.0	1670.0	1672.0	1672.0	1672.0	1695.0	1695.0	1668.0	1668.0	1668.0	1696.0	1696.0	1657.0	1657.0	1657.0	1683.0	1683.0	1712.0	1712.0	1712.0	1687.0	1687.0	1681.0	1681.0	1681.0	1696.0	1696.0	1672.0	1672.0	1672.0	1679.0	1679.0	1688.0	1688.0	1688.0	1673.0	1673.0	1694.0	1694.0	1694.0	1707.0	1707.0	1696.0	1696.0	1696.0	1716.0	1716.0	1694.0	1694.0	1694.0	1699.0	1699.0	1697.0	1697.0	1697.0	1708.0	1708.0	1707.0	1707.0	1707.0	1704.0	1704.0	1686.0	1686.0	1686.0	1717.0	1717.0	1722.0	1722.0	1722.0	1700.0	1700.0	1723.0	1723.0	1723.0	1743.0	1743.0	1721.0	1721.0	1721.0	1720.0	1720.0	1730.0	1730.0	1730.0	1730.0	1730.0	1746.0	1746.0	1746.0	1760.0	1760.0	1763.0	1763.0	1763.0	1759.0	1759.0	1764.0	1764.0	1764.0	1760.0	1760.0	1776.0	1776.0	1776.0	1788.0	1788.0	1832.0	1832.0	1832.0	1815.0	1815.0	1838.0	1838.0	1838.0	1884.0	1884.0	1867.0	1867.0	1867.0	1917.0	1917.0	1918.0	1918.0	1918.0	1973.0	1973.0	1988.0	1988.0	1988.0	2009.0	2009.0	2005.0	2005.0	2005.0	2046.0	2046.0	2058.0	2058.0	2058.0	2097.0	2097.0	2123.0	2123.0	2123.0	2152.0	2152.0	2165.0	2165.0	2165.0	2206.0	2206.0	2196.0	2196.0	2196.0	2234.0	2234.0	2246.0	2246.0	2247.0	2247.0	2247.0	2280.0	2280.0	2280.0	2280.0	2280.0	2296.0	2296.0	2333.0	2333.0	2333.0	2330.0	2330.0	2361.0	2361.0	2361.0	2369.0	2369.0	2355.0	2355.0	2355.0	2393.0	2393.0	2361.0	2361.0	2361.0	2376.0	2376.0	2408.0	2408.0	2408.0	2393.0	2393.0	2404.0	2404.0	2404.0	2413.0	2413.0	2399.0	2399.0	2399.0	2405.0	2405.0	2405.0	2405.0	2405.0	2416.0	2416.0	2426.0	2426.0	2426.0	2420.0	2420.0	2430.0	2430.0	2430.0	2402.0	2402.0	2425.0	2425.0	2425.0	2439.0	2439.0	2414.0	2414.0	2414.0	2437.0	2437.0	2401.0	2401.0	2401.0	2391.0	2391.0	2388.0	2388.0	2388.0	2408.0	2408.0	2402.0	2402.0	2402.0	2398.0	2398.0	2388.0	2388.0	2388.0	2384.0	2384.0	2423.0	2423.0	2423.0	2389.0	2389.0	2420.0	2420.0	2420.0	2416.0	2416.0	2398.0	2398.0	2398.0	2375.0	2375.0	2395.0	2395.0	2395.0	2383.0	2383.0	2380.0	2380.0	2380.0	2414.0	2414.0	2381.0	2381.0	2381.0	2389.0	2389.0	2391.0	2391.0	2391.0	2376.0	2376.0	2391.0	2391.0	2391.0	2382.0	2382.0	2368.0	2368.0	2368.0	2393.0	2393.0	2383.0	2383.0	2383.0	2397.0	2397.0	2368.0	2368.0	2368.0	2389.0	2389.0	2392.0	2392.0	2392.0	2369.0	2369.0	2376.0	2376.0	2376.0	2375.0	2375.0	2392.0	2392.0	2392.0	2355.0	2355.0	2374.0	2374.0	2374.0	2360.0	2360.0	2376.0	2376.0	2376.0	2357.0	2357.0	2369.0	2369.0	2369.0	2353.0	2353.0	2342.0	2342.0	2342.0	2337.0	2337.0	2328.0	2328.0	2328.0	2339.0	2339.0	2351.0	2351.0	2351.0	2331.0	2331.0	2332.0	2332.0	2332.0	2344.0	2344.0	2342.0	2342.0	2342.0	2303.0	2303.0	2301.0	2301.0	2301.0	2316.0	2316.0	2324.0	2324.0	2296.0	2296.0	2296.0	2316.0	2316.0	2279.0	2279.0	2279.0	2281.0	2281.0	2269.0	2269.0	2269.0	2285.0	2285.0	2284.0	2284.0	2284.0	2270.0	2270.0	2238.0	2238.0	2238.0	2232.0	2232.0	2239.0	2239.0	2239.0	2211.0	2211.0	2216.0	2216.0	2216.0	2227.0	2227.0	2183.0	2183.0	2183.0	2193.0	2193.0	2174.0	2174.0	2174.0	2197.0	2197.0	2181.0	2181.0	2181.0	2166.0	2166.0	2146.0	2146.0	2146.0	2129.0	2129.0	2126.0	2126.0	2126.0	2139.0	2139.0	2119.0	2119.0	2119.0	2114.0	2114.0	2106.0	2106.0	2106.0	2107.0	2107.0	2096.0	2096.0	2096.0	2094.0	2094.0	2077.0	2077.0	2077.0	2075.0	2075.0	2097.0	2097.0	2097.0	2078.0	2078.0	2075.0	2075.0	2075.0	2081.0	2081.0	2061.0	2061.0	2061.0	2055.0	2055.0	2088.0	2088.0	2088.0	2055.0	2055.0	2054.0	2054.0	2054.0	2056.0	2056.0	2075.0	2075.0	2075.0	2067.0	2067.0	2062.0	2062.0	2062.0	2036.0	2036.0	2067.0	2067.0	2067.0	2045.0	2045.0	2042.0	2042.0	2042.0	2048.0	2048.0	2060.0	2060.0	2060.0	2071.0	2071.0	2045.0	2045.0	2045.0	2067.0	2067.0	2059.0	2059.0	2059.0	2063.0	2063.0	2044.0	2044.0	2044.0	2059.0	2059.0	2051.0	2051.0	2051.0	2014.0	2014.0	2055.0	2055.0	2055.0	2017.0	2017.0	2022.0	2022.0	2022.0	2039.0	2039.0	2022.0	2022.0	2022.0	2040.0	2040.0	2014.0	2014.0	2014.0	2008.0	2008.0	2025.0	2025.0	2025.0	2029.0	2029.0	2008.0	2008.0	2008.0	2015.0	2015.0	2011.0	2011.0	2011.0	2026.0	2026.0	2029.0	2029.0	2029.0	2028.0	2028.0	1995.0	1995.0	1995.0	2000.0	2000.0	2006.0	2006.0	2006.0	1994.0	1994.0	1994.0	1994.0	1997.0	1997.0	1997.0	1963.0	1963.0	2018.0	2018.0	2018.0	1995.0	1995.0	1999.0	1999.0	1999.0	1978.0	1978.0	1961.0	1961.0	1961.0	1969.0	1969.0	1963.0	1963.0	1963.0	1985.0	1985.0	1974.0	1974.0	1974.0	1956.0	1956.0	1967.0	1967.0	1967.0	1976.0	1976.0	1958.0	1958.0	1958.0	1960.0	1960.0	1944.0	1944.0	1944.0	1960.0	1960.0	1940.0	1940.0	1940.0	1950.0	1950.0	1966.0	1966.0	1966.0	1938.0	1938.0	1952.0	1952.0	1952.0	1933.0	1933.0	1926.0	1926.0	1926.0	1947.0	1947.0	1932.0	1932.0	1932.0	1916.0	1916.0	1912.0	1912.0	1912.0	1926.0	1926.0	1925.0	1925.0	1925.0	1926.0	1926.0	1906.0	1906.0	1906.0	1930.0	1930.0	1892.0	1892.0	1892.0	1890.0	1890.0	1898.0	1898.0	1898.0	1888.0	1888.0	1884.0	1884.0	1884.0	1888.0	1888.0	1887.0	1887.0	1887.0	1876.0	1876.0	1897.0	1897.0	1897.0	1901.0	1901.0	1890.0	1890.0	1890.0	1883.0	1883.0	1892.0	1892.0	1892.0	1886.0	1886.0	1875.0	1875.0	1875.0	1869.0	1869.0	1888.0	1888.0	1888.0	1875.0	1875.0	1894.0	1894.0	1894.0	1884.0	1884.0	1844.0	1844.0	1844.0	1856.0	1856.0	1868.0	1868.0	1868.0	1863.0	1863.0	1888.0	1888.0	1888.0	1875.0	1875.0	1874.0	1874.0	1874.0	1853.0	1853.0	1838.0	1838.0	1838.0	1868.0	1868.0	1858.0	1858.0	1858.0	1854.0	1854.0	1838.0	1838.0	1838.0	1856.0	1856.0	1869.0	1869.0	1869.0	1860.0	1860.0	1870.0	1870.0	1870.0	1859.0	1859.0	1867.0	1867.0	1867.0	1848.0	1848.0	1870.0	1870.0	1870.0	1859.0	1859.0	1836.0	1836.0	1836.0	1847.0	1847.0	1821.0	1821.0	1821.0	1849.0	1849.0	1840.0	1840.0	1840.0	1823.0	1823.0	1813.0	1813.0	1811.0	1811.0	1811.0	1811.0	1811.0	1821.0	1821.0	1821.0	1817.0	1817.0	1809.0	1809.0	1809.0	1819.0	1819.0	1857.0	1857.0	1857.0	1827.0	1827.0	1800.0	1800.0	1800.0	1800.0	1800.0	1808.0	1808.0	1808.0	1834.0	1834.0	1813.0	1813.0	1813.0	1840.0	1840.0	1804.0	1804.0	1804.0	1814.0	1814.0	1814.0	1814.0	1814.0	1823.0	1823.0	1811.0	1811.0	1811.0	1805.0	1805.0	1821.0	1821.0	1821.0	1808.0	1808.0	1812.0	1812.0	1812.0	1831.0	1831.0	1811.0	1811.0	1811.0	1815.0	1815.0	1790.0	1790.0	1790.0	1818.0	1818.0	1808.0	1808.0	1808.0	1815.0	1815.0	1800.0	1800.0	1800.0	1808.0	1808.0	1801.0	1801.0	1801.0	1813.0	1813.0	1819.0	1819.0	1819.0	1802.0	1802.0	1810.0	1810.0	1810.0	1806.0	1806.0	1799.0	1799.0	1799.0	1823.0	1823.0	1803.0	1803.0	1803.0	1823.0	1823.0	1800.0	1800.0	1800.0	1788.0	1788.0	1823.0	1823.0	1823.0	1806.0	1806.0	1828.0	1828.0	1828.0	1827.0	1827.0	1799.0	1799.0	1799.0	1829.0	1829.0	1805.0	1805.0	1805.0	1822.0	1822.0	1808.0	1808.0	1808.0	1828.0	1828.0	1810.0	1810.0	1810.0	1794.0	1794.0	1836.0	1836.0	1836.0	1827.0	1827.0	1815.0	1815.0	1815.0	1829.0	1829.0	1806.0	1806.0	1806.0	1804.0	1804.0	1795.0	1795.0	1795.0	1799.0	1799.0	1827.0	1827.0	1827.0	1801.0	1801.0	1834.0	1834.0	1834.0	1822.0	1822.0	1799.0	1799.0	1799.0	1808.0	1808.0	1821.0	1821.0	1821.0	1816.0	1816.0	1809.0	1809.0	1809.0	1806.0	1806.0	1811.0	1811.0	1811.0	1816.0	1816.0	1807.0	1807.0	1807.0	1796.0	1796.0	1823.0	1823.0	1823.0	1804.0	1804.0	1825.0	1825.0	1797.0	1797.0	1797.0	1786.0	1786.0	1819.0	1819.0	1819.0	1799.0	1799.0	1804.0	1804.0	1804.0	1793.0	1793.0	1793.0	1793.0	1793.0	1826.0	1826.0	1798.0	1798.0	1798.0	1809.0	1809.0	1813.0	1813.0	1813.0	1783.0	1783.0	1817.0	1817.0	1817.0	1838.0	1838.0	1804.0	1804.0	1804.0	1814.0	1814.0	1805.0	1805.0	1805.0	1829.0	1829.0	1779.0	1779.0	1779.0	1781.0	1781.0	1779.0	1779.0	1779.0	1792.0	1792.0	1793.0	1793.0	1793.0	1779.0	1779.0	1788.0	1788.0	1788.0	1797.0	1797.0	1805.0	1805.0	1805.0	1818.0	1818.0	1773.0	1773.0	1773.0	1819.0	1819.0	1796.0	1796.0	1796.0	1826.0	1826.0	1794.0	1794.0	1794.0	1827.0	1827.0	1817.0	1817.0	1817.0	1844.0	1844.0	1858.0	1858.0	1858.0	1859.0	1859.0	1863.0	1863.0	1863.0	1888.0	1888.0	1883.0	1883.0	1883.0	1895.0	1895.0	1906.0	1906.0	1906.0	1946.0	1946.0	1950.0	1950.0	1950.0	1996.0	1996.0	1979.0	1979.0	1979.0	2024.0	2024.0	2022.0	2022.0	2022.0	2076.0	2076.0	2108.0	2108.0	2108.0	2114.0	2114.0	2126.0	2126.0	2126.0	2139.0	2139.0	2165.0	2165.0	2165.0	2186.0	2186.0	2203.0	2203.0	2203.0	2250.0	2250.0	2259.0	2259.0	2259.0	2277.0	2277.0	2290.0	2290.0	2290.0	2301.0	2301.0	2310.0	2310.0	2310.0	2353.0	2353.0	2343.0	2343.0	2343.0	2354.0	2354.0	2371.0	2371.0	2371.0	2379.0	2379.0	2400.0	2400.0	2400.0	2422.0	2422.0	2429.0	2429.0	2429.0	2437.0	2437.0	2430.0	2430.0	2430.0	2436.0	2436.0	2434.0	2434.0	2434.0	2457.0	2457.0	2467.0	2467.0	2467.0	2473.0	2473.0	2474.0	2474.0	2474.0	2441.0	2441.0	2443.0	2443.0	2467.0	2467.0	2467.0	2474.0	2474.0	2446.0	2446.0	2446.0	2456.0	2456.0	2463.0	2463.0	2463.0	2437.0	2437.0	2465.0	2465.0	2465.0	2435.0	2435.0	2441.0	2441.0	2441.0	2428.0	2428.0	2439.0	2439.0	2439.0	2421.0	2421.0	2422.0	2422.0	2422.0	2440.0	2440.0	2451.0	2451.0	2451.0	2433.0	2433.0	2418.0	2418.0	2418.0	2417.0	2417.0	2425.0	2425.0	2425.0	2404.0	2404.0	2442.0	2442.0	2442.0	2418.0	2418.0	2404.0	2404.0	2404.0	2421.0	2421.0	2411.0	2411.0	2411.0	2411.0	2411.0	2410.0	2410.0	2410.0	2431.0	2431.0	2433.0	2433.0	2433.0	2400.0	2400.0	2403.0	2403.0	2403.0	2408.0	2408.0	2415.0	2415.0	2415.0	2402.0	2402.0	2414.0	2414.0	2414.0	2386.0	2386.0	2396.0	2396.0	2396.0	2396.0	2396.0	2376.0	2376.0	2376.0	2405.0	2405.0	2371.0	2371.0	2371.0	2394.0	2394.0	2379.0	2379.0	2379.0	2389.0	2389.0	2376.0	2376.0	2376.0	2380.0	2380.0	2364.0	2364.0	2364.0	2392.0	2392.0	2359.0	2359.0	2359.0	2346.0	2346.0	2358.0	2358.0	2358.0	2361.0	2361.0	2353.0	2353.0	2353.0	2356.0	2356.0	2355.0	2355.0	2355.0	2335.0	2335.0	2366.0	2366.0	2366.0	2339.0	2339.0	2336.0	2336.0	2336.0	2308.0	2308.0	2307.0	2307.0	2307.0	2326.0	2326.0	2299.0	2299.0	2299.0	2311.0	2311.0	2286.0	2286.0	2286.0	2276.0	2276.0	2279.0	2279.0	2279.0	2266.0	2266.0	2301.0	2301.0	2301.0	2258.0	2258.0	2259.0	2259.0	2259.0	2236.0	2236.0	2243.0	2243.0	2243.0	2236.0	2236.0	2216.0	2216.0	2216.0	2220.0	2220.0	2216.0	2216.0	2216.0	2200.0	2200.0	2196.0	2196.0	2196.0	2184.0	2184.0	2179.0	2179.0	2179.0	2175.0	2175.0	2179.0	2179.0	2146.0	2146.0	2146.0	2125.0	2125.0	2119.0	2119.0	2119.0	2125.0	2125.0	2118.0	2118.0	2118.0	2135.0	2135.0	2102.0	2102.0	2102.0	2107.0	2107.0	2100.0	2100.0	2100.0	2105.0	2105.0	2082.0	2082.0	2082.0	2097.0	2097.0	2095.0	2095.0	2095.0	2094.0	2094.0	2088.0	2088.0	2088.0	2066.0	2066.0	2046.0	2046.0	2046.0	2068.0	2068.0	2076.0	2076.0	2076.0	2065.0	2065.0	2072.0	2072.0	2072.0	2050.0	2050.0	2050.0	2050.0	2050.0	2056.0	2056.0	2034.0	2034.0	2034.0	2050.0	2050.0	2060.0	2060.0	2060.0	2025.0	2025.0	2047.0	2047.0	2047.0	2026.0	2026.0	2053.0	2053.0	2053.0	2035.0	2035.0	2021.0	2021.0	2021.0	2054.0	2054.0	2046.0	2046.0	2046.0	2008.0	2008.0	2035.0	2035.0	2035.0	2010.0	2010.0	2035.0	2035.0	2035.0	2041.0	2041.0	2030.0	2030.0	2030.0	2046.0	2046.0	2009.0	2009.0	2009.0	2006.0	2006.0	1993.0	1993.0	1993.0	2010.0	2010.0	2003.0	2003.0	2003.0	2033.0	2033.0	2027.0	2027.0	2027.0	1989.0	1989.0	2002.0	2002.0	2002.0	1985.0	1985.0	2015.0	2015.0	2015.0	2002.0	2002.0	2007.0	2007.0	2007.0	1992.0	1992.0	2004.0	2004.0	2004.0	1987.0	1987.0	1971.0	1971.0	1971.0	1990.0	1990.0	1975.0	1975.0	1975.0	1976.0	1976.0	1973.0	1973.0	1973.0	1985.0	1985.0	1972.0	1972.0	1972.0	1959.0	1959.0	1954.0	1954.0	1954.0	1976.0	1976.0	1971.0	1971.0	1971.0	1949.0	1949.0	1955.0	1955.0	1955.0	1939.0	1939.0	1968.0	1968.0	1968.0	1955.0	1955.0	1955.0	1955.0	1955.0	1961.0	1961.0	1930.0	1930.0	1930.0	1917.0	1917.0	1946.0	1946.0	1946.0	1924.0	1924.0	1925.0	1925.0	1941.0	1941.0	1941.0	1924.0	1924.0	1897.0	1897.0	1897.0	1907.0	1907.0	1937.0	1937.0	1937.0	1936.0	1936.0	1889.0	1889.0	1889.0	1912.0	1912.0	1924.0	1924.0	1924.0	1901.0	1901.0	1890.0	1890.0	1890.0	1928.0	1928.0	1865.0	1865.0	1865.0	1882.0	1882.0	1892.0	1892.0	1892.0	1870.0	1870.0	1919.0	1919.0	1919.0	1871.0	1871.0	1869.0	1869.0	1869.0	1909.0	1909.0	1889.0	1889.0	1889.0	1870.0	1870.0	1875.0	1875.0	1875.0	1847.0	1847.0	1851.0	1851.0	1851.0	1887.0	1887.0	1878.0	1878.0	1878.0	1869.0	1869.0	1840.0	1840.0	1840.0	1858.0	1858.0	1857.0	1857.0	1857.0	1846.0	1846.0	1836.0	1836.0	1836.0	1879.0	1879.0	1854.0	1854.0	1854.0	1843.0	1843.0	1825.0	1825.0	1825.0	1851.0	1851.0	1858.0	1858.0	1858.0	1847.0	1847.0	1867.0	1867.0	1867.0	1846.0	1846.0	1861.0	1861.0	1861.0	1815.0	1815.0	1810.0	1810.0	1810.0	1834.0	1834.0	1852.0	1852.0	1852.0	1832.0	1832.0	1833.0	1833.0	1833.0	1835.0	1835.0	1830.0	1830.0	1830.0	1831.0	1831.0	1853.0	1853.0	1853.0	1843.0	1843.0	1837.0	1837.0	1837.0	1851.0	1851.0	1843.0	1843.0	1843.0	1818.0	1818.0	1823.0	1823.0	1823.0	1820.0	1820.0	1833.0	1833.0	1833.0	1798.0	1798.0	1803.0	1803.0	1803.0	1806.0	1806.0	1799.0	1799.0	1799.0	1838.0	1838.0	1813.0	1813.0	1813.0	1815.0	1815.0	1803.0	1803.0	1803.0	1793.0	1793.0	1828.0	1828.0	1828.0	