1824.0	1882.0	1882.0	1882.0	1876.0	1876.0	1920.0	1920.0	1920.0	1890.0	1890.0	1963.0	1963.0	1963.0	1970.0	1970.0	1892.0	1892.0	1965.0	1965.0	1965.0	1945.0	1945.0	1978.0	1978.0	1978.0	1973.0	1973.0	1987.0	1987.0	1987.0	2024.0	2024.0	2114.0	2114.0	2114.0	2075.0	2075.0	2092.0	2092.0	2092.0	2093.0	2093.0	2122.0	2122.0	2122.0	2223.0	2223.0	2230.0	2230.0	2230.0	2254.0	2254.0	2211.0	2211.0	2211.0	2324.0	2324.0	2348.0	2348.0	2348.0	2382.0	2382.0	2305.0	2305.0	2305.0	2332.0	2332.0	2381.0	2381.0	2381.0	2373.0	2373.0	2419.0	2419.0	2419.0	2459.0	2459.0	2519.0	2519.0	2519.0	2494.0	2494.0	2461.0	2461.0	2461.0	2518.0	2518.0	2513.0	2513.0	2513.0	2542.0	2542.0	2550.0	2550.0	2550.0	2556.0	2556.0	2660.0	2660.0	2660.0	2587.0	2587.0	2660.0	2660.0	2660.0	2706.0	2706.0	2626.0	2626.0	2626.0	2713.0	2713.0	2667.0	2667.0	2667.0	2741.0	2741.0	2661.0	2661.0	2661.0	2686.0	2686.0	2687.0	2687.0	2687.0	2730.0	2730.0	2728.0	2728.0	2728.0	2761.0	2761.0	2774.0	2774.0	2774.0	2730.0	2730.0	2834.0	2834.0	2834.0	2775.0	2775.0	2751.0	2751.0	2751.0	2798.0	2798.0	2753.0	2753.0	2753.0	2758.0	2758.0	2791.0	2791.0	2791.0	2771.0	2771.0	2827.0	2827.0	2827.0	2838.0	2838.0	2852.0	2852.0	2852.0	2877.0	2877.0	2860.0	2860.0	2860.0	2860.0	2860.0	2783.0	2783.0	2783.0	2795.0	2795.0	2807.0	2807.0	2807.0	2775.0	2775.0	2813.0	2813.0	2813.0	2836.0	2836.0	2765.0	2765.0	2765.0	2828.0	2828.0	2854.0	2854.0	2854.0	2823.0	2823.0	2744.0	2744.0	2744.0	2843.0	2843.0	2725.0	2725.0	2725.0	2747.0	2747.0	2812.0	2812.0	2812.0	2773.0	2773.0	2722.0	2722.0	2722.0	2688.0	2688.0	2774.0	2774.0	2765.0	2765.0	2765.0	2671.0	2671.0	2699.0	2699.0	2699.0	2649.0	2649.0	2704.0	2704.0	2704.0	2704.0	2704.0	2704.0	2704.0	2704.0	2610.0	2610.0	2643.0	2643.0	2643.0	2563.0	2563.0	2596.0	2596.0	2596.0	2539.0	2539.0	2523.0	2523.0	2523.0	2508.0	2508.0	2594.0	2594.0	2594.0	2572.0	2572.0	2576.0	2576.0	2576.0	2491.0	2491.0	2491.0	2491.0	2491.0	2440.0	2440.0	2447.0	2447.0	2447.0	2513.0	2513.0	2471.0	2471.0	2471.0	2407.0	2407.0	2378.0	2378.0	2378.0	2363.0	2363.0	2369.0	2369.0	2369.0	2417.0	2417.0	2437.0	2437.0	2437.0	2353.0	2353.0	2331.0	2331.0	2331.0	2404.0	2404.0	2350.0	2350.0	2350.0	2356.0	2356.0	2317.0	2317.0	2317.0	2380.0	2380.0	2296.0	2296.0	2296.0	2352.0	2352.0	2336.0	2336.0	2336.0	2320.0	2320.0	2339.0	2339.0	2339.0	2243.0	2243.0	2250.0	2250.0	2250.0	2313.0	2313.0	2235.0	2235.0	2235.0	2241.0	2241.0	2256.0	2256.0	2256.0	2213.0	2213.0	2232.0	2232.0	2232.0	2284.0	2284.0	2288.0	2288.0	2288.0	2260.0	2260.0	2218.0	2218.0	2218.0	2214.0	2214.0	2191.0	2191.0	2191.0	2256.0	2256.0	2208.0	2208.0	2208.0	2284.0	2284.0	2274.0	2274.0	2274.0	2204.0	2204.0	2182.0	2182.0	2182.0	2269.0	2269.0	2169.0	2169.0	2169.0	2188.0	2188.0	2235.0	2235.0	2235.0	2172.0	2172.0	2159.0	2159.0	2159.0	2191.0	2191.0	2249.0	2249.0	2249.0	2154.0	2154.0	2174.0	2174.0	2174.0	2210.0	2210.0	2224.0	2224.0	2224.0	2218.0	2218.0	2173.0	2173.0	2173.0	2147.0	2147.0	2243.0	2243.0	2243.0	2233.0	2233.0	2164.0	2164.0	2164.0	2139.0	2139.0	2215.0	2215.0	2215.0	2174.0	2174.0	2156.0	2156.0	2193.0	2193.0	2193.0	2172.0	2172.0	2156.0	2156.0	2156.0	2132.0	2132.0	2215.0	2215.0	2215.0	2156.0	2156.0	2142.0	2142.0	2142.0	2113.0	2113.0	2126.0	2126.0	2126.0	2119.0	2119.0	2132.0	2132.0	2132.0	2110.0	2110.0	2115.0	2115.0	2115.0	2193.0	2193.0	2127.0	2127.0	2127.0	2193.0	2193.0	2094.0	2094.0	2094.0	2182.0	2182.0	2162.0	2162.0	2162.0	2096.0	2096.0	2116.0	2116.0	2116.0	2122.0	2122.0	2087.0	2087.0	2087.0	2160.0	2160.0	2143.0	2143.0	2143.0	2143.0	2143.0	2072.0	2072.0	2072.0	2106.0	2106.0	2072.0	2072.0	2072.0	2125.0	2125.0	2105.0	2105.0	2105.0	2049.0	2049.0	2071.0	2071.0	2071.0	2136.0	2136.0	2036.0	2036.0	2036.0	2134.0	2134.0	2102.0	2102.0	2102.0	2039.0	2039.0	2118.0	2118.0	2118.0	2018.0	2018.0	2034.0	2034.0	2034.0	2020.0	2020.0	2071.0	2071.0	2071.0	2101.0	2101.0	2002.0	2002.0	2002.0	2002.0	2002.0	2057.0	2057.0	2057.0	2035.0	2035.0	2035.0	2035.0	2035.0	2060.0	2060.0	2081.0	2081.0	2081.0	2073.0	2073.0	2011.0	2011.0	2011.0	2073.0	2073.0	2077.0	2077.0	2077.0	2065.0	2065.0	2020.0	2020.0	2020.0	1963.0	1963.0	1978.0	1978.0	1978.0	2044.0	2044.0	2008.0	2008.0	2008.0	2006.0	2006.0	1951.0	1951.0	1951.0	2048.0	2048.0	2029.0	2029.0	2029.0	1967.0	1967.0	1985.0	1985.0	1985.0	1973.0	1973.0	1948.0	1948.0	1948.0	2028.0	2028.0	2026.0	2026.0	2026.0	1944.0	1944.0	2007.0	2007.0	2007.0	1932.0	1932.0	1924.0	1924.0	1924.0	1923.0	1923.0	2004.0	2004.0	2004.0	1907.0	1907.0	1997.0	1997.0	1997.0	1979.0	1979.0	1903.0	1903.0	1972.0	1972.0	1972.0	1903.0	1903.0	1905.0	1905.0	1905.0	1927.0	1927.0	1956.0	1956.0	1956.0	1927.0	1927.0	1885.0	1885.0	1885.0	1871.0	1871.0	1883.0	1883.0	1883.0	1966.0	1966.0	1951.0	1951.0	1951.0	1948.0	1948.0	1868.0	1868.0	1868.0	1916.0	1916.0	1865.0	1865.0	1865.0	1852.0	1852.0	1863.0	1863.0	1863.0	1894.0	1894.0	1843.0	1843.0	1843.0	1866.0	1866.0	1932.0	1932.0	1932.0	1931.0	1931.0	1917.0	1917.0	1917.0	1854.0	1854.0	1819.0	1819.0	1819.0	1823.0	1823.0	1900.0	1900.0	1900.0	1833.0	1833.0	1884.0	1884.0	1884.0	1874.0	1874.0	1814.0	1814.0	1814.0	1805.0	1805.0	1885.0	1885.0	1885.0	1850.0	1850.0	1799.0	1799.0	1799.0	1895.0	1895.0	1864.0	1864.0	1864.0	1850.0	1850.0	1803.0	1803.0	1803.0	1889.0	1889.0	1791.0	1791.0	1791.0	1858.0	1858.0	1823.0	1823.0	1823.0	1826.0	1826.0	1795.0	1795.0	1795.0	1828.0	1828.0	1897.0	1897.0	1897.0	1880.0	1880.0	1848.0	1848.0	1848.0	1857.0	1857.0	1841.0	1841.0	1841.0	1853.0	1853.0	1938.0	1938.0	1938.0	1919.0	1919.0	1866.0	1866.0	1866.0	1944.0	1944.0	1971.0	1971.0	1971.0	2004.0	2004.0	1988.0	1988.0	1988.0	1960.0	1960.0	2060.0	2060.0	2060.0	2034.0	2034.0	2097.0	2097.0	2097.0	2119.0	2119.0	2139.0	2139.0	2139.0	2120.0	2120.0	2177.0	2177.0	2177.0	2133.0	2133.0	2216.0	2216.0	2216.0	2187.0	2187.0	2290.0	2290.0	2290.0	2247.0	2247.0	2336.0	2336.0	2336.0	2291.0	2291.0	2369.0	2369.0	2369.0	2335.0	2335.0	2396.0	2396.0	2396.0	2446.0	2446.0	2448.0	2448.0	2448.0	2463.0	2463.0	2510.0	2510.0	2438.0	2438.0	2438.0	2482.0	2482.0	2476.0	2476.0	2476.0	2568.0	2568.0	2605.0	2605.0	2605.0	2619.0	2619.0	2555.0	2555.0	2555.0	2659.0	2659.0	2584.0	2584.0	2584.0	2634.0	2634.0	2678.0	2678.0	2678.0	2672.0	2672.0	2728.0	2728.0	2728.0	2732.0	2732.0	2659.0	2659.0	2659.0	2666.0	2666.0	2723.0	2723.0	2723.0	2727.0	2727.0	2727.0	2727.0	2727.0	2806.0	2806.0	2764.0	2764.0	2764.0	2807.0	2807.0	2734.0	2734.0	2734.0	2753.0	2753.0	2806.0	2806.0	2806.0	2797.0	2797.0	2777.0	2777.0	2777.0	2799.0	2799.0	2810.0	2810.0	2810.0	2791.0	2791.0	2868.0	2868.0	2868.0	2773.0	2773.0	2878.0	2878.0	2878.0	2792.0	2792.0	2785.0	2785.0	2785.0	2857.0	2857.0	2867.0	2867.0	2867.0	2787.0	2787.0	2811.0	2811.0	2811.0	2825.0	2825.0	2836.0	2836.0	2836.0	2791.0	2791.0	2777.0	2777.0	2777.0	2791.0	2791.0	2832.0	2832.0	2832.0	2761.0	2761.0	2817.0	2817.0	2817.0	2803.0	2803.0	2821.0	2821.0	2821.0	2739.0	2739.0	2731.0	2731.0	2731.0	2817.0	2817.0	2775.0	2775.0	2775.0	2730.0	2730.0	2691.0	2691.0	2691.0	2708.0	2708.0	2743.0	2743.0	2743.0	2727.0	2727.0	2675.0	2675.0	2675.0	2725.0	2725.0	2625.0	2625.0	2625.0	2647.0	2647.0	2698.0	2698.0	2698.0	2591.0	2591.0	2664.0	2664.0	2664.0	2662.0	2662.0	2625.0	2625.0	2625.0	2611.0	2611.0	2526.0	2526.0	2526.0	2587.0	2587.0	2496.0	2496.0	2496.0	2587.0	2587.0	2523.0	2523.0	2523.0	2515.0	2515.0	2515.0	2515.0	2515.0	2480.0	2480.0	2429.0	2429.0	2429.0	2502.0	2502.0	2445.0	2445.0	2445.0	2482.0	2482.0	2472.0	2472.0	2472.0	2442.0	2442.0	2417.0	2417.0	2386.0	2386.0	2386.0	2373.0	2373.0	2348.0	2348.0	2348.0	2320.0	2320.0	2342.0	2342.0	2342.0	2302.0	2302.0	2323.0	2323.0	2323.0	2309.0	2309.0	2361.0	2361.0	2361.0	2259.0	2259.0	2339.0	2339.0	2339.0	2289.0	2289.0	2334.0	2334.0	2334.0	2326.0	2326.0	2276.0	2276.0	2276.0	2215.0	2215.0	2248.0	2248.0	2248.0	2225.0	2225.0	2209.0	2209.0	2209.0	2223.0	2223.0	2273.0	2273.0	2273.0	2254.0	2254.0	2195.0	2195.0	2195.0	2246.0	2246.0	2262.0	2262.0	2262.0	2250.0	2250.0	2241.0	2241.0	2241.0	2245.0	2245.0	2246.0	2246.0	2246.0	2247.0	2247.0	2214.0	2214.0	2214.0	2145.0	2145.0	2194.0	2194.0	2194.0	2235.0	2235.0	2202.0	2202.0	2202.0	2151.0	2151.0	2140.0	2140.0	2140.0	2207.0	2207.0	2169.0	2169.0	2169.0	2184.0	2184.0	2218.0	2218.0	2218.0	2129.0	2129.0	2191.0	2191.0	2191.0	2130.0	2130.0	2202.0	2202.0	2202.0	2199.0	2199.0	2152.0	2152.0	2152.0	2209.0	2209.0	2142.0	2142.0	2142.0	2193.0	2193.0	2172.0	2172.0	2172.0	2202.0	2202.0	2108.0	2108.0	2108.0	2160.0	2160.0	2096.0	2096.0	2096.0	2098.0	2098.0	2176.0	2176.0	2176.0	2138.0	2138.0	2191.0	2191.0	2191.0	2101.0	2101.0	2104.0	2104.0	2104.0	2180.0	2180.0	2183.0	2183.0	2183.0	2177.0	2177.0	2133.0	2133.0	2133.0	2162.0	2162.0	2173.0	2173.0	2173.0	2169.0	2169.0	2161.0	2161.0	2161.0	2142.0	2142.0	2099.0	2099.0	2099.0	2153.0	2153.0	2147.0	2147.0	2147.0	2139.0	2139.0	2049.0	2049.0	2049.0	2112.0	2112.0	2136.0	2136.0	2136.0	2109.0	2109.0	2056.0	2056.0	2056.0	2088.0	2088.0	2048.0	2048.0	2031.0	2031.0	2031.0	2044.0	2044.0	2032.0	2032.0	2032.0	2013.0	2013.0	2099.0	2099.0	2099.0	2067.0	2067.0	2053.0	2053.0	2053.0	2020.0	2020.0	2087.0	2087.0	2087.0	2063.0	2063.0	2048.0	2048.0	2048.0	2074.0	2074.0	2028.0	2028.0	2028.0	1997.0	1997.0	2016.0	2016.0	2016.0	2015.0	2015.0	2011.0	2011.0	2011.0	2031.0	2031.0	1985.0	1985.0	1985.0	1994.0	1994.0	1967.0	1967.0	1967.0	1981.0	1981.0	2035.0	2035.0	2035.0	2050.0	2050.0	1958.0	1958.0	1958.0	2018.0	2018.0	1991.0	1991.0	1991.0	1993.0	1993.0	1977.0	1977.0	1977.0	1938.0	1938.0	2028.0	2028.0	2028.0	2004.0	2004.0	1959.0	1959.0	1959.0	2027.0	2027.0	1980.0	1980.0	1980.0	1961.0	1961.0	1994.0	1994.0	1994.0	1924.0	1924.0	2009.0	2009.0	2009.0	1919.0	1919.0	1947.0	1947.0	1947.0	1920.0	1920.0	1932.0	1932.0	1932.0	1895.0	1895.0	1942.0	1942.0	1942.0	1935.0	1935.0	1928.0	1928.0	1928.0	1910.0	1910.0	1918.0	1918.0	1918.0	1931.0	1931.0	1884.0	1884.0	1884.0	1963.0	1963.0	1882.0	1882.0	1882.0	1967.0	1967.0	1969.0	1969.0	1969.0	1954.0	1954.0	1891.0	1891.0	1891.0	1903.0	1903.0	1858.0	1858.0	1858.0	1954.0	1954.0	1946.0	1946.0	1946.0	1898.0	1898.0	1950.0	1950.0	1950.0	1839.0	1839.0	1837.0	1837.0	1837.0	1931.0	1931.0	1935.0	1935.0	1935.0	1927.0	1927.0	1841.0	1841.0	1841.0	1831.0	1831.0	1873.0	1873.0	1873.0	1874.0	1874.0	1904.0	1904.0	1904.0	1824.0	1824.0	1913.0	1913.0	1913.0	1910.0	1910.0	1869.0	1869.0	1869.0	1825.0	1825.0	1889.0	1889.0	1889.0	1799.0	1799.0	1819.0	1819.0	1819.0	1894.0	1894.0	1788.0	1788.0	1854.0	1854.0	1854.0	1784.0	1784.0	1856.0	1856.0	1856.0	1776.0	1776.0	1879.0	1879.0	1879.0	1804.0	1804.0	1869.0	1869.0	1869.0	1855.0	1855.0	1779.0	1779.0	1779.0	1799.0	1799.0	1788.0	1788.0	1788.0	1827.0	1827.0	1842.0	1842.0	1842.0	1758.0	1758.0	1771.0	1771.0	1771.0	1854.0	1854.0	1841.0	1841.0	1841.0	1837.0	1837.0	1749.0	1749.0	1749.0	1745.0	1745.0	1744.0	1744.0	1744.0	1792.0	1792.0	1779.0	1779.0	1779.0	1747.0	1747.0	1811.0	1811.0	1811.0	1829.0	1829.0	1784.0	1784.0	1784.0	1799.0	1799.0	1827.0	1827.0	1827.0	1766.0	1766.0	1830.0	1830.0	1830.0	1866.0	1866.0	1861.0	1861.0	1861.0	1873.0	1873.0	1838.0	1838.0	1838.0	1914.0	1914.0	1921.0	1921.0	1921.0	1848.0	1848.0	1915.0	1915.0	1915.0	1883.0	1883.0	1963.0	1963.0	1963.0	1963.0	1963.0	2040.0	2040.0	2040.0	1960.0	1960.0	1982.0	1982.0	1982.0	2090.0	2090.0	2117.0	2117.0	2117.0	2089.0	2089.0	2102.0	2102.0	2102.0	2099.0	2099.0	2137.0	2137.0	2137.0	2233.0	2233.0	2241.0	2241.0	2241.0	2198.0	2198.0	2233.0	2233.0	2233.0	2269.0	2269.0	2273.0	2273.0	2273.0	2296.0	2296.0	2328.0	2328.0	2328.0	2346.0	2346.0	2412.0	2412.0	2412.0	2441.0	2441.0	2478.0	2478.0	2478.0	2425.0	2425.0	2450.0	2450.0	2450.0	2543.0	2543.0	2549.0	2549.0	2549.0	2514.0	2514.0	2593.0	2593.0	2593.0	2634.0	2634.0	2561.0	2561.0	2561.0	2575.0	2575.0	2647.0	2647.0	2647.0	2607.0	2607.0	2613.0	2613.0	2613.0	2648.0	2648.0	2659.0	2659.0	2659.0	2743.0	2743.0	2709.0	2709.0	2709.0	2740.0	2740.0	2725.0	2725.0	2742.0	2742.0	2742.0	2794.0	2794.0	2724.0	2724.0	2724.0	2722.0	2722.0	2715.0	2715.0	2715.0	2811.0	2811.0	2743.0	2743.0	2743.0	2732.0	2732.0	2823.0	2823.0	2823.0	2749.0	2749.0	2741.0	2741.0	2741.0	2840.0	2840.0	2751.0	2751.0	2751.0	2842.0	2842.0	2773.0	2773.0	2773.0	2765.0	2765.0	2763.0	2763.0	2763.0	2816.0	2816.0	2824.0	2824.0	2824.0	2755.0	2755.0	2782.0	2782.0	2782.0	2846.0	2846.0	2771.0	2771.0	2771.0	2839.0	2839.0	2762.0	2762.0	2762.0	2760.0	2760.0	2743.0	2743.0	2743.0	2716.0	2716.0	2797.0	2797.0	2797.0	2804.0	2804.0	2714.0	2714.0	2714.0	2728.0	2728.0	2728.0	2728.0	2728.0	2768.0	2768.0	2718.0	2718.0	2718.0	2656.0	2656.0	2749.0	2749.0	2749.0	2695.0	2695.0	2690.0	2690.0	2690.0	2662.0	2662.0	2640.0	2640.0	2640.0	2688.0	2688.0	2595.0	2595.0	2595.0	2572.0	2572.0	2627.0	2627.0	2627.0	2634.0	2634.0	2555.0	2555.0	2555.0	2568.0	2568.0	2522.0	2522.0	2522.0	2507.0	2507.0	2594.0	2594.0	2594.0	2500.0	2500.0	2561.0	2561.0	2561.0	2452.0	2452.0	2475.0	2475.0	2475.0	2479.0	2479.0	2423.0	2423.0	2423.0	2415.0	2415.0	2447.0	2447.0	2447.0	2456.0	2456.0	2369.0	2369.0	2369.0	2456.0	2456.0	2347.0	2347.0	2347.0	2367.0	2367.0	2395.0	2395.0	2395.0	2323.0	2323.0	2339.0	2339.0	2339.0	2402.0	2402.0	2348.0	2348.0	2348.0	2375.0	2375.0	2361.0	2361.0	2361.0	2353.0	2353.0	2363.0	2363.0	2363.0	2358.0	2358.0	2343.0	2343.0	2343.0	2244.0	2244.0	2328.0	2328.0	2328.0	2227.0	2227.0	2288.0	2288.0	2288.0	2300.0	2300.0	2220.0	2220.0	2204.0	2204.0	2204.0	2301.0	2301.0	2293.0	2293.0	2293.0	2244.0	2244.0	2227.0	2227.0	2227.0	2275.0	2275.0	2288.0	2288.0	2288.0	2270.0	2270.0	2203.0	2203.0	2203.0	2223.0	2223.0	2185.0	2185.0	2185.0	2174.0	2174.0	2255.0	2255.0	2255.0	2204.0	2204.0	2165.0	2165.0	2165.0	2158.0	2158.0	2213.0	2213.0	2213.0	2177.0	2177.0	2177.0	2177.0	2177.0	2161.0	2161.0	2166.0	2166.0	2166.0	2153.0	2153.0	2238.0	2238.0	2238.0	2188.0	2188.0	2237.0	2237.0	2237.0	2234.0	2234.0	2190.0	2190.0	2190.0	2146.0	2146.0	2139.0	2139.0	2139.0	2211.0	2211.0	2191.0	2191.0	2191.0	2236.0	2236.0	2217.0	2217.0	2217.0	2138.0	2138.0	2211.0	2211.0	2211.0	2211.0	2211.0	2151.0	2151.0	2151.0	2150.0	2150.0	2128.0	2128.0	2128.0	2138.0	2138.0	2141.0	2141.0	2141.0	2152.0	2152.0	2119.0	2119.0	2119.0	2143.0	2143.0	2135.0	2135.0	2135.0	2156.0	2156.0	2159.0	2159.0	2159.0	2183.0	2183.0	2198.0	2198.0	2198.0	2191.0	2191.0	2143.0	2143.0	2143.0	2172.0	2172.0	2098.0	2098.0	2098.0	2126.0	2126.0	2180.0	2180.0	2180.0	2133.0	2133.0	2122.0	2122.0	2122.0	2098.0	2098.0	2184.0	2184.0	2184.0	2083.0	2083.0	2089.0	2089.0	2089.0	2093.0	2093.0	2156.0	2156.0	2156.0	2084.0	2084.0	2111.0	2111.0	2111.0	2137.0	2137.0	2118.0	2118.0	2118.0	2070.0	2070.0	2093.0	2093.0	2093.0	2127.0	2127.0	2137.0	2137.0	2137.0	2115.0	2115.0	2140.0	2140.0	2140.0	2136.0	2136.0	2056.0	2056.0	2056.0	2076.0	2076.0	2035.0	2035.0	2035.0	2127.0	2127.0	2045.0	2045.0	2045.0	2025.0	2025.0	2029.0	2029.0	2029.0	2076.0	2076.0	2009.0	2009.0	2011.0	2011.0	2011.0	2013.0	2013.0	2004.0	2004.0	2004.0	2032.0	2032.0	2023.0	2023.0	2023.0	2052.0	2052.0	2007.0	2007.0	2007.0	2029.0	2029.0	2012.0	2012.0	2012.0	2054.0	2054.0	2003.0	2003.0	2003.0	2020.0	2020.0	1980.0	1980.0	1980.0	1965.0	1965.0	1959.0	1959.0	1959.0	2039.0	2039.0	2057.0	2057.0	