2404.0	2404.0	2404.0	2346.0	2346.0	2322.0	2322.0	2322.0	2356.0	2356.0	2380.0	2380.0	2380.0	2383.0	2383.0	2363.0	2363.0	2363.0	2358.0	2358.0	2341.0	2341.0	2341.0	2286.0	2286.0	2311.0	2311.0	2310.0	2310.0	2310.0	2289.0	2289.0	2261.0	2261.0	2261.0	2289.0	2289.0	2265.0	2265.0	2265.0	2276.0	2276.0	2262.0	2262.0	2262.0	2220.0	2220.0	2222.0	2222.0	2222.0	2156.0	2156.0	2196.0	2196.0	2196.0	2178.0	2178.0	2217.0	2217.0	2217.0	2174.0	2174.0	2198.0	2198.0	2198.0	2147.0	2147.0	2112.0	2112.0	2112.0	2176.0	2176.0	2160.0	2160.0	2160.0	2074.0	2074.0	2094.0	2094.0	2094.0	2105.0	2105.0	2111.0	2111.0	2111.0	2055.0	2055.0	2110.0	2110.0	2110.0	2124.0	2124.0	2034.0	2034.0	2034.0	2021.0	2021.0	2067.0	2067.0	2067.0	2050.0	2050.0	2041.0	2041.0	2041.0	2033.0	2033.0	2003.0	2003.0	2003.0	2013.0	2013.0	2034.0	2034.0	2034.0	2038.0	2038.0	2062.0	2062.0	2062.0	1993.0	1993.0	2046.0	2046.0	2046.0	1970.0	1970.0	2015.0	2015.0	2015.0	1963.0	1963.0	2038.0	2038.0	2038.0	2027.0	2027.0	1969.0	1969.0	1969.0	2023.0	2023.0	1962.0	1962.0	1962.0	1928.0	1928.0	1990.0	1990.0	1990.0	1979.0	1979.0	2006.0	2006.0	2006.0	1960.0	1960.0	1985.0	1985.0	1985.0	1914.0	1914.0	1974.0	1974.0	1974.0	1980.0	1980.0	1891.0	1891.0	1891.0	1889.0	1889.0	1959.0	1959.0	1959.0	1955.0	1955.0	1871.0	1871.0	1871.0	1941.0	1941.0	1950.0	1950.0	1950.0	1904.0	1904.0	1885.0	1885.0	1885.0	1856.0	1856.0	1901.0	1901.0	1901.0	1905.0	1905.0	1842.0	1842.0	1842.0	1930.0	1930.0	1841.0	1841.0	1841.0	1835.0	1835.0	1912.0	1912.0	1912.0	1899.0	1899.0	1859.0	1859.0	1859.0	1824.0	1824.0	1835.0	1835.0	1835.0	1863.0	1863.0	1847.0	1847.0	1847.0	1860.0	1860.0	1832.0	1832.0	1867.0	1867.0	1867.0	1849.0	1849.0	1880.0	1880.0	1880.0	1838.0	1838.0	1850.0	1850.0	1850.0	1841.0	1841.0	1813.0	1813.0	1813.0	1815.0	1815.0	1777.0	1777.0	1777.0	1820.0	1820.0	1843.0	1843.0	1843.0	1844.0	1844.0	1807.0	1807.0	1807.0	1844.0	1844.0	1784.0	1784.0	1784.0	1764.0	1764.0	1768.0	1768.0	1768.0	1823.0	1823.0	1823.0	1823.0	1823.0	1823.0	1823.0	1841.0	1841.0	1841.0	1754.0	1754.0	1810.0	1810.0	1810.0	1771.0	1771.0	1747.0	1747.0	1747.0	1771.0	1771.0	1819.0	1819.0	1819.0	1747.0	1747.0	1733.0	1733.0	1733.0	1759.0	1759.0	1772.0	1772.0	1772.0	1819.0	1819.0	1772.0	1772.0	1772.0	1793.0	1793.0	1724.0	1724.0	1724.0	1792.0	1792.0	1748.0	1748.0	1748.0	1740.0	1740.0	1762.0	1762.0	1762.0	1739.0	1739.0	1735.0	1735.0	1735.0	1705.0	1705.0	1712.0	1712.0	1712.0	1768.0	1768.0	1781.0	1781.0	1781.0	1720.0	1720.0	1792.0	1792.0	1792.0	1716.0	1716.0	1788.0	1788.0	1788.0	1714.0	1714.0	1723.0	1723.0	1723.0	1768.0	1768.0	1703.0	1703.0	1703.0	1784.0	1784.0	1733.0	1733.0	1733.0	1741.0	1741.0	1704.0	1704.0	1704.0	1712.0	1712.0	1731.0	1731.0	1731.0	1782.0	1782.0	1764.0	1764.0	1764.0	1734.0	1734.0	1715.0	1715.0	1715.0	1778.0	1778.0	1735.0	1735.0	1735.0	1770.0	1770.0	1721.0	1721.0	1721.0	1751.0	1751.0	1766.0	1766.0	1766.0	1686.0	1686.0	1750.0	1750.0	1750.0	1759.0	1759.0	1731.0	1731.0	1731.0	1751.0	1751.0	1714.0	1714.0	1714.0	1686.0	1686.0	1706.0	1706.0	1706.0	1685.0	1685.0	1737.0	1737.0	1737.0	1676.0	1676.0	1669.0	1669.0	1669.0	1753.0	1753.0	1695.0	1695.0	1668.0	1668.0	1668.0	1702.0	1702.0	1674.0	1674.0	1674.0	1733.0	1733.0	1724.0	1724.0	1724.0	1700.0	1700.0	1716.0	1716.0	1716.0	1692.0	1692.0	1692.0	1692.0	1692.0	1719.0	1719.0	1703.0	1703.0	1703.0	1666.0	1666.0	1704.0	1704.0	1704.0	1662.0	1662.0	1698.0	1698.0	1698.0	1710.0	1710.0	1683.0	1683.0	1683.0	1671.0	1671.0	1648.0	1648.0	1648.0	1729.0	1729.0	1706.0	1706.0	1706.0	1643.0	1643.0	1651.0	1651.0	1651.0	1715.0	1715.0	1726.0	1726.0	1726.0	1679.0	1679.0	1702.0	1702.0	1702.0	1726.0	1726.0	1634.0	1634.0	1634.0	1647.0	1647.0	1719.0	1719.0	1719.0	1651.0	1651.0	1715.0	1715.0	1715.0	1675.0	1675.0	1639.0	1639.0	1639.0	1648.0	1648.0	1659.0	1659.0	1659.0	1645.0	1645.0	1639.0	1639.0	1639.0	1716.0	1716.0	1663.0	1663.0	1663.0	1665.0	1665.0	1715.0	1715.0	1715.0	1766.0	1766.0	1768.0	1768.0	1768.0	1707.0	1707.0	1716.0	1716.0	1716.0	1730.0	1730.0	1777.0	1777.0	1777.0	1790.0	1790.0	1848.0	1848.0	1848.0	1795.0	1795.0	1854.0	1854.0	1854.0	1830.0	1830.0	1855.0	1855.0	1855.0	1946.0	1946.0	1941.0	1941.0	1941.0	1959.0	1959.0	1948.0	1948.0	1948.0	2048.0	2048.0	2022.0	2022.0	2022.0	2091.0	2091.0	2065.0	2065.0	2065.0	2104.0	2104.0	2155.0	2155.0	2155.0	2158.0	2158.0	2176.0	2176.0	2176.0	2215.0	2215.0	2243.0	2243.0	2243.0	2174.0	2174.0	2266.0	2266.0	2266.0	2231.0	2231.0	2320.0	2320.0	2320.0	2264.0	2264.0	2339.0	2339.0	2339.0	2377.0	2377.0	2315.0	2315.0	2315.0	2398.0	2398.0	2413.0	2413.0	2413.0	2404.0	2404.0	2447.0	2447.0	2456.0	2456.0	2456.0	2461.0	2461.0	2477.0	2477.0	2477.0	2404.0	2404.0	2438.0	2438.0	2438.0	2416.0	2416.0	2459.0	2459.0	2459.0	2471.0	2471.0	2457.0	2457.0	2457.0	2499.0	2499.0	2539.0	2539.0	2539.0	2481.0	2481.0	2511.0	2511.0	2511.0	2527.0	2527.0	2495.0	2495.0	2495.0	2483.0	2483.0	2544.0	2544.0	2544.0	2578.0	2578.0	2498.0	2498.0	2498.0	2495.0	2495.0	2500.0	2500.0	2500.0	2537.0	2537.0	2505.0	2505.0	2505.0	2588.0	2588.0	2573.0	2573.0	2573.0	2521.0	2521.0	2586.0	2586.0	2586.0	2570.0	2570.0	2502.0	2502.0	2502.0	2492.0	2492.0	2499.0	2499.0	2499.0	2502.0	2502.0	2496.0	2496.0	2496.0	2553.0	2553.0	2490.0	2490.0	2490.0	2516.0	2516.0	2475.0	2475.0	2475.0	2523.0	2523.0	2554.0	2554.0	2554.0	2555.0	2555.0	2469.0	2469.0	2469.0	2499.0	2499.0	2491.0	2491.0	2491.0	2543.0	2543.0	2500.0	2500.0	2500.0	2519.0	2519.0	2513.0	2513.0	2513.0	2495.0	2495.0	2436.0	2436.0	2436.0	2459.0	2459.0	2432.0	2432.0	2432.0	2492.0	2492.0	2493.0	2493.0	2493.0	2488.0	2488.0	2412.0	2412.0	2412.0	2413.0	2413.0	2487.0	2487.0	2487.0	2436.0	2436.0	2386.0	2386.0	2386.0	2382.0	2382.0	2440.0	2440.0	2440.0	2393.0	2393.0	2438.0	2438.0	2438.0	2416.0	2416.0	2367.0	2367.0	2367.0	2350.0	2350.0	2408.0	2408.0	2408.0	2384.0	2384.0	2391.0	2391.0	2391.0	2337.0	2337.0	2305.0	2305.0	2305.0	2367.0	2367.0	2274.0	2274.0	2274.0	2301.0	2301.0	2314.0	2314.0	2314.0	2316.0	2316.0	2309.0	2309.0	2309.0	2278.0	2278.0	2292.0	2292.0	2292.0	2211.0	2211.0	2255.0	2255.0	2255.0	2270.0	2270.0	2183.0	2183.0	2193.0	2193.0	2193.0	2156.0	2156.0	2219.0	2219.0	2219.0	2222.0	2222.0	2160.0	2160.0	2160.0	2205.0	2205.0	2121.0	2121.0	2121.0	2117.0	2117.0	2103.0	2103.0	2103.0	2101.0	2101.0	2143.0	2143.0	2143.0	2129.0	2129.0	2166.0	2166.0	2166.0	2164.0	2164.0	2085.0	2085.0	2085.0	2077.0	2077.0	2078.0	2078.0	2078.0	2044.0	2044.0	2123.0	2123.0	2123.0	2123.0	2123.0	2086.0	2086.0	2086.0	2116.0	2116.0	2045.0	2045.0	2045.0	2068.0	2068.0	2094.0	2094.0	2094.0	2028.0	2028.0	2045.0	2045.0	2045.0	2009.0	2009.0	2036.0	2036.0	2036.0	2033.0	2033.0	1996.0	1996.0	1996.0	2029.0	2029.0	2034.0	2034.0	2034.0	2018.0	2018.0	2005.0	2005.0	2005.0	2019.0	2019.0	1989.0	1989.0	1989.0	2003.0	2003.0	2008.0	2008.0	2008.0	1997.0	1997.0	2034.0	2034.0	2034.0	1951.0	1951.0	2022.0	2022.0	2022.0	2001.0	2001.0	2028.0	2028.0	2028.0	2032.0	2032.0	1991.0	1991.0	1991.0	1999.0	1999.0	2006.0	2006.0	2006.0	2009.0	2009.0	1921.0	1921.0	1921.0	1969.0	1969.0	1942.0	1942.0	1942.0	1997.0	1997.0	1938.0	1938.0	1938.0	1938.0	1938.0	1915.0	1915.0	1915.0	1897.0	1897.0	1941.0	1941.0	1941.0	1888.0	1888.0	1960.0	1960.0	1960.0	1918.0	1918.0	1879.0	1879.0	1879.0	1961.0	1961.0	1901.0	1901.0	1901.0	1911.0	1911.0	1868.0	1868.0	1868.0	1945.0	1945.0	1938.0	1938.0	1938.0	1943.0	1943.0	1913.0	1913.0	1913.0	1886.0	1886.0	1859.0	1859.0	1859.0	1859.0	1859.0	1833.0	1833.0	1833.0	1871.0	1871.0	1865.0	1865.0	1865.0	1839.0	1839.0	1894.0	1894.0	1894.0	1825.0	1825.0	1891.0	1891.0	1828.0	1828.0	1828.0	1888.0	1888.0	1831.0	1831.0	1831.0	1860.0	1860.0	1895.0	1895.0	1895.0	1858.0	1858.0	1819.0	1819.0	1819.0	1836.0	1836.0	1867.0	1867.0	1867.0	1883.0	1883.0	1846.0	1846.0	1846.0	1862.0	1862.0	1853.0	1853.0	1853.0	1823.0	1823.0	1828.0	1828.0	1828.0	1814.0	1814.0	1831.0	1831.0	1831.0	1795.0	1795.0	1812.0	1812.0	1812.0	1802.0	1802.0	1799.0	1799.0	1799.0	1812.0	1812.0	1783.0	1783.0	1783.0	1762.0	1762.0	1796.0	1796.0	1796.0	1764.0	1764.0	1846.0	1846.0	1846.0	1810.0	1810.0	1798.0	1798.0	1798.0	1783.0	1783.0	1786.0	1786.0	1786.0	1842.0	1842.0	1829.0	1829.0	1829.0	1776.0	1776.0	1829.0	1829.0	1829.0	1768.0	1768.0	1754.0	1754.0	1754.0	1811.0	1811.0	1820.0	1820.0	1820.0	1821.0	1821.0	1811.0	1811.0	1811.0	1816.0	1816.0	1814.0	1814.0	1814.0	1797.0	1797.0	1793.0	1793.0	1793.0	1738.0	1738.0	1733.0	1733.0	1733.0	1808.0	1808.0	1809.0	1809.0	1809.0	1788.0	1788.0	1804.0	1804.0	1804.0	1757.0	1757.0	1784.0	1784.0	1784.0	1734.0	1734.0	1769.0	1769.0	1769.0	1712.0	1712.0	1715.0	1715.0	1715.0	1722.0	1722.0	1788.0	1788.0	1788.0	1715.0	1715.0	1715.0	1715.0	1715.0	1776.0	1776.0	1774.0	1774.0	1774.0	1732.0	1732.0	1767.0	1767.0	1767.0	1687.0	1687.0	1771.0	1771.0	1771.0	1719.0	1719.0	1758.0	1758.0	1758.0	1693.0	1693.0	1693.0	1693.0	1693.0	1754.0	1754.0	1722.0	1722.0	1722.0	1767.0	1767.0	1682.0	1682.0	1682.0	1751.0	1751.0	1728.0	1728.0	1728.0	1749.0	1749.0	1749.0	1749.0	1749.0	1707.0	1707.0	1731.0	1731.0	1733.0	1733.0	1733.0	1662.0	1662.0	1758.0	1758.0	1758.0	1744.0	1744.0	1749.0	1749.0	1749.0	1677.0	1677.0	1710.0	1710.0	1710.0	1681.0	1681.0	1741.0	1741.0	1741.0	1659.0	1659.0	1662.0	1662.0	1662.0	1732.0	1732.0	1728.0	1728.0	1728.0	1720.0	1720.0	1726.0	1726.0	1726.0	1677.0	1677.0	1737.0	1737.0	1737.0	1703.0	1703.0	1703.0	1703.0	1703.0	1645.0	1645.0	1661.0	1661.0	1661.0	1664.0	1664.0	1631.0	1631.0	1631.0	1698.0	1698.0	1716.0	1716.0	1716.0	1642.0	1642.0	1717.0	1717.0	1717.0	1650.0	1650.0	1719.0	1719.0	1719.0	1719.0	1719.0	1733.0	1733.0	1733.0	1654.0	1654.0	1675.0	1675.0	1675.0	1747.0	1747.0	1776.0	1776.0	1776.0	1746.0	1746.0	1750.0	1750.0	1750.0	1789.0	1789.0	1787.0	1787.0	1787.0	1829.0	1829.0	1815.0	1815.0	1815.0	1785.0	1785.0	1851.0	1851.0	1851.0	1822.0	1822.0	1881.0	1881.0	1881.0	1909.0	1909.0	1886.0	1886.0	1886.0	1909.0	1909.0	1996.0	1996.0	1996.0	1956.0	1956.0	2007.0	2007.0	2007.0	2037.0	2037.0	2052.0	2052.0	2052.0	2119.0	2119.0	2125.0	2125.0	2125.0	2153.0	2153.0	2133.0	2133.0	2133.0	2119.0	2119.0	2169.0	2169.0	2169.0	2240.0	2240.0	2257.0	2257.0	2257.0	2274.0	2274.0	2212.0	2212.0	2212.0	2313.0	2313.0	2321.0	2321.0	2321.0	2350.0	2350.0	2302.0	2302.0	2302.0	2305.0	2305.0	2344.0	2344.0	2344.0	2401.0	2401.0	2342.0	2342.0	2342.0	2431.0	2431.0	2393.0	2393.0	2393.0	2374.0	2374.0	2401.0	2401.0	2401.0	2399.0	2399.0	2486.0	2486.0	2486.0	2468.0	2468.0	2420.0	2420.0	2420.0	2427.0	2427.0	2437.0	2437.0	2437.0	2440.0	2440.0	2506.0	2506.0	2543.0	2543.0	2543.0	2533.0	2533.0	2541.0	2541.0	2541.0	2525.0	2525.0	2529.0	2529.0	2529.0	2480.0	2480.0	2543.0	2543.0	2543.0	2516.0	2516.0	2502.0	2502.0	2502.0	2484.0	2484.0	2504.0	2504.0	2504.0	2515.0	2515.0	2520.0	2520.0	2520.0	2522.0	2522.0	2551.0	2551.0	2551.0	2500.0	2500.0	2486.0	2486.0	2486.0	2477.0	2477.0	2509.0	2509.0	2509.0	2470.0	2470.0	2479.0	2479.0	2479.0	2523.0	2523.0	2557.0	2557.0	2557.0	2540.0	2540.0	2515.0	2515.0	2515.0	2468.0	2468.0	2475.0	2475.0	2475.0	2456.0	2456.0	2449.0	2449.0	2449.0	2507.0	2507.0	2465.0	2465.0	2465.0	2456.0	2456.0	2474.0	2474.0	2474.0	2496.0	2496.0	2435.0	2435.0	2435.0	2505.0	2505.0	2483.0	2483.0	2483.0	2494.0	2494.0	2458.0	2458.0	2458.0	2491.0	2491.0	2414.0	2414.0	2414.0	2485.0	2485.0	2396.0	2396.0	2396.0	2423.0	2423.0	2385.0	2385.0	2385.0	2434.0	2434.0	2456.0	2456.0	2456.0	2469.0	2469.0	2437.0	2437.0	2437.0	2417.0	2417.0	2391.0	2391.0	2391.0	2354.0	2354.0	2328.0	2328.0	2328.0	2403.0	2403.0	2351.0	2351.0	2351.0	2311.0	2311.0	2373.0	2373.0	2373.0	2314.0	2314.0	2332.0	2332.0	2332.0	2310.0	2310.0	2266.0	2266.0	2266.0	2279.0	2279.0	2319.0	2319.0	2319.0	2264.0	2264.0	2310.0	2310.0	2310.0	2263.0	2263.0	2258.0	2258.0	2258.0	2227.0	2227.0	2191.0	2191.0	2191.0	2236.0	2236.0	2195.0	2195.0	2195.0	2246.0	2246.0	2157.0	2157.0	2157.0	2223.0	2223.0	2215.0	2215.0	2215.0	2154.0	2154.0	2120.0	2120.0	2120.0	2173.0	2173.0	2139.0	2139.0	2139.0	2128.0	2128.0	2095.0	2095.0	2134.0	2134.0	2134.0	2082.0	2082.0	2128.0	2128.0	2128.0	2117.0	2117.0	2091.0	2091.0	2091.0	2045.0	2045.0	2091.0	2091.0	2091.0	2108.0	2108.0	2055.0	2055.0	2055.0	2032.0	2032.0	2096.0	2096.0	2096.0	2048.0	2048.0	2045.0	2045.0	2045.0	2019.0	2019.0	2078.0	2078.0	2078.0	2018.0	2018.0	2007.0	2007.0	2007.0	2016.0	2016.0	2015.0	2015.0	2015.0	1991.0	1991.0	2020.0	2020.0	2020.0	1977.0	1977.0	2058.0	2058.0	2058.0	1972.0	1972.0	2055.0	2055.0	2055.0	1970.0	1970.0	2032.0	2032.0	2032.0	1984.0	1984.0	2004.0	2004.0	2004.0	2021.0	2021.0	2035.0	2035.0	2035.0	1973.0	1973.0	1949.0	1949.0	1949.0	1969.0	1969.0	1940.0	1940.0	1940.0	1960.0	1960.0	2006.0	2006.0	2006.0	1999.0	1999.0	1989.0	1989.0	1989.0	1987.0	1987.0	1934.0	1934.0	1934.0	1928.0	1928.0	1982.0	1982.0	1982.0	1892.0	1892.0	1935.0	1935.0	1935.0	1942.0	1942.0	1971.0	1971.0	1971.0	1886.0	1886.0	1927.0	1927.0	1927.0	1937.0	1937.0	1945.0	1945.0	1945.0	1936.0	1936.0	1874.0	1874.0	1874.0	1891.0	1891.0	1874.0	1874.0	1874.0	1923.0	1923.0	1938.0	1938.0	1938.0	1908.0	1908.0	1928.0	1928.0	1928.0	1847.0	1847.0	1872.0	1872.0	1872.0	1889.0	1889.0	1861.0	1861.0	1861.0	1916.0	1916.0	1864.0	1864.0	1864.0	1888.0	1888.0	1849.0	1849.0	1849.0	1899.0	1899.0	1831.0	1831.0	1831.0	1908.0	1908.0	1867.0	1867.0	1867.0	1823.0	1823.0	1883.0	1883.0	1883.0	1831.0	1831.0	1865.0	1865.0	1865.0	1887.0	1887.0	1846.0	1846.0	1846.0	1887.0	1887.0	1885.0	1885.0	1885.0	1812.0	1812.0	1846.0	1846.0	1866.0	1866.0	1866.0	1872.0	1872.0	1860.0	1860.0	1860.0	1788.0	1788.0	1774.0	1774.0	1774.0	1804.0	1804.0	1790.0	1790.0	1790.0	1788.0	1788.0	1842.0	1842.0	1842.0	1831.0	1831.0	1822.0	1822.0	1822.0	1770.0	1770.0	1810.0	1810.0	1810.0	1760.0	1760.0	1770.0	1770.0	1770.0	1845.0	1845.0	1806.0	1806.0	1806.0	1832.0	1832.0	1832.0	1832.0	1832.0	1779.0	1779.0	1774.0	1774.0	1774.0	1767.0	1767.0	1778.0	1778.0	1778.0	1805.0	1805.0	1742.0	1742.0	1742.0	1763.0	1763.0	1755.0	1755.0	1755.0	1766.0	1766.0	1827.0	1827.0	1827.0	1747.0	1747.0	1783.0	1783.0	1783.0	1751.0	1751.0	1762.0	1762.0	1762.0	1790.0	1790.0	1803.0	1803.0	1803.0	1803.0	1803.0	1749.0	1749.0	1749.0	1803.0	1803.0	1755.0	1755.0	1755.0	1736.0	1736.0	1790.0	1790.0	1790.0	1751.0	1751.0	1698.0	1698.0	1698.0	1714.0	1714.0	1754.0	1754.0	1754.0	1703.0	1703.0	1771.0	1771.0	1771.0	1757.0	1757.0	1759.0	1759.0	1759.0	1691.0	1691.0	1755.0	1755.0	1755.0	1767.0	1767.0	1693.0	1693.0	1693.0	1775.0	1775.0	1684.0	1684.0	1684.0	1759.0	1759.0	1743.0	1743.0	1743.0	1678.0	1678.0	1740.0	1740.0	1740.0	1724.0	1724.0	1684.0	1684.0	1684.0	1692.0	1692.0	1752.0	1752.0	1752.0	1720.0	1720.0	1714.0	1714.0	1714.0	1746.0	1746.0	1720.0	1720.0	1720.0	1739.0	1739.0	1752.0	1752.0	1752.0	1723.0	1723.0	1659.0	1659.0	1659.0	1742.0	1742.0	1658.0	1658.0	1658.0	1672.0	1672.0	1658.0	1658.0	1658.0	1733.0	1733.0	1673.0	1673.0	1673.0	1650.0	1650.0	1742.0	1742.0	1742.0	1658.0	1658.0	1738.0	1738.0	1738.0	1654.0	1654.0	1736.0	1736.0	1652.0	1652.0	1652.0	1741.0	1741.0	1735.0	1735.0	1735.0	1655.0	1655.0	1725.0	1725.0	1725.0	1720.0	1720.0	1647.0	1647.0	1647.0	1690.0	1690.0	1716.0	1716.0	1716.0	1701.0	1701.0	1722.0	1722.0	1722.0	1677.0	1677.0	1736.0	1736.0	1736.0	