1761.0	1762.0	1762.0	1731.0	1731.0	1731.0	1752.0	1752.0	1751.0	1751.0	1751.0	1687.0	1687.0	1656.0	1656.0	1656.0	1711.0	1711.0	1744.0	1744.0	1744.0	1700.0	1700.0	1675.0	1675.0	1675.0	1637.0	1637.0	1722.0	1722.0	1722.0	1656.0	1656.0	1636.0	1636.0	1636.0	1645.0	1645.0	1719.0	1719.0	1719.0	1668.0	1668.0	1707.0	1707.0	1707.0	1714.0	1714.0	1634.0	1634.0	1634.0	1644.0	1644.0	1700.0	1700.0	1700.0	1666.0	1666.0	1698.0	1698.0	1698.0	1637.0	1637.0	1644.0	1644.0	1644.0	1617.0	1617.0	1707.0	1707.0	1707.0	1639.0	1639.0	1657.0	1657.0	1657.0	1670.0	1670.0	1687.0	1687.0	1687.0	1710.0	1710.0	1706.0	1706.0	1706.0	1722.0	1722.0	1655.0	1655.0	1655.0	1651.0	1651.0	1735.0	1735.0	1735.0	1717.0	1717.0	1696.0	1696.0	1696.0	1741.0	1741.0	1774.0	1774.0	1774.0	1807.0	1807.0	1815.0	1815.0	1815.0	1812.0	1812.0	1875.0	1875.0	1875.0	1855.0	1855.0	1958.0	1958.0	1995.0	1995.0	1995.0	1986.0	1986.0	2050.0	2050.0	2050.0	2000.0	2000.0	2125.0	2125.0	2125.0	2072.0	2072.0	2181.0	2181.0	2181.0	2220.0	2220.0	2265.0	2265.0	2265.0	2221.0	2221.0	2328.0	2328.0	2328.0	2350.0	2350.0	2319.0	2319.0	2319.0	2351.0	2351.0	2462.0	2462.0	2462.0	2502.0	2502.0	2451.0	2451.0	2451.0	2556.0	2556.0	2556.0	2556.0	2556.0	2554.0	2554.0	2556.0	2556.0	2556.0	2657.0	2657.0	2687.0	2687.0	2687.0	2632.0	2632.0	2650.0	2650.0	2650.0	2696.0	2696.0	2689.0	2689.0	2689.0	2717.0	2717.0	2762.0	2762.0	2762.0	2737.0	2737.0	2821.0	2821.0	2821.0	2848.0	2848.0	2832.0	2832.0	2832.0	2772.0	2772.0	2852.0	2852.0	2852.0	2790.0	2790.0	2818.0	2818.0	2818.0	2862.0	2862.0	2840.0	2840.0	2840.0	2827.0	2827.0	2865.0	2865.0	2865.0	2856.0	2856.0	2836.0	2836.0	2836.0	2808.0	2808.0	2846.0	2846.0	2846.0	2885.0	2885.0	2849.0	2849.0	2849.0	2790.0	2790.0	2872.0	2872.0	2872.0	2864.0	2864.0	2866.0	2866.0	2866.0	2782.0	2782.0	2793.0	2793.0	2793.0	2754.0	2754.0	2788.0	2788.0	2788.0	2779.0	2779.0	2815.0	2815.0	2815.0	2807.0	2807.0	2742.0	2742.0	2742.0	2703.0	2703.0	2733.0	2733.0	2733.0	2730.0	2730.0	2707.0	2707.0	2707.0	2665.0	2665.0	2727.0	2727.0	2727.0	2629.0	2629.0	2614.0	2614.0	2614.0	2654.0	2654.0	2675.0	2675.0	2675.0	2626.0	2626.0	2565.0	2565.0	2565.0	2575.0	2575.0	2541.0	2541.0	2541.0	2577.0	2577.0	2556.0	2556.0	2556.0	2538.0	2538.0	2536.0	2536.0	2536.0	2528.0	2528.0	2521.0	2521.0	2521.0	2534.0	2534.0	2487.0	2487.0	2487.0	2422.0	2422.0	2497.0	2497.0	2456.0	2456.0	2456.0	2470.0	2470.0	2380.0	2380.0	2380.0	2379.0	2379.0	2395.0	2395.0	2395.0	2363.0	2363.0	2369.0	2369.0	2369.0	2364.0	2364.0	2318.0	2318.0	2318.0	2328.0	2328.0	2282.0	2282.0	2282.0	2327.0	2327.0	2294.0	2294.0	2294.0	2228.0	2228.0	2258.0	2258.0	2258.0	2191.0	2191.0	2184.0	2184.0	2184.0	2167.0	2167.0	2222.0	2222.0	2222.0	2144.0	2144.0	2124.0	2124.0	2124.0	2135.0	2135.0	2154.0	2154.0	2154.0	2090.0	2090.0	2086.0	2086.0	2086.0	2131.0	2131.0	2144.0	2144.0	2144.0	2133.0	2133.0	2110.0	2110.0	2110.0	2051.0	2051.0	2092.0	2092.0	2092.0	2086.0	2086.0	2042.0	2042.0	2042.0	2083.0	2083.0	1998.0	1998.0	1998.0	1977.0	1977.0	2009.0	2009.0	2009.0	1999.0	1999.0	2053.0	2053.0	2053.0	2029.0	2029.0	2024.0	2024.0	2024.0	1994.0	1994.0	1967.0	1967.0	1967.0	1951.0	1951.0	1990.0	1990.0	1990.0	2008.0	2008.0	2031.0	2031.0	2031.0	1962.0	1962.0	1997.0	1997.0	1997.0	2016.0	2016.0	2008.0	2008.0	2008.0	2010.0	2010.0	1948.0	1948.0	1948.0	1999.0	1999.0	1947.0	1947.0	1947.0	1927.0	1927.0	1928.0	1928.0	1928.0	1984.0	1984.0	2006.0	2006.0	2006.0	2021.0	2021.0	1925.0	1925.0	1925.0	2002.0	2002.0	2017.0	2017.0	2017.0	1928.0	1928.0	1928.0	1928.0	1928.0	1983.0	1983.0	2011.0	2011.0	2011.0	1977.0	1977.0	2017.0	2017.0	2017.0	1959.0	1959.0	2009.0	2009.0	2009.0	1933.0	1933.0	2010.0	2010.0	2010.0	1967.0	1967.0	1982.0	1982.0	1982.0	1920.0	1920.0	1974.0	1974.0	1974.0	2012.0	2012.0	1935.0	1935.0	1935.0	1940.0	1940.0	2000.0	2000.0	1988.0	1988.0	1988.0	1917.0	1917.0	1987.0	1987.0	1987.0	1931.0	1931.0	1910.0	1910.0	1910.0	1910.0	1910.0	1983.0	1983.0	1983.0	1986.0	1986.0	1901.0	1901.0	1901.0	1925.0	1925.0	1933.0	1933.0	1933.0	1975.0	1975.0	1949.0	1949.0	1949.0	1962.0	1962.0	1953.0	1953.0	1953.0	1926.0	1926.0	1883.0	1883.0	1883.0	1882.0	1882.0	1927.0	1927.0	1927.0	1968.0	1968.0	1923.0	1923.0	1923.0	1879.0	1879.0	1865.0	1865.0	1865.0	1926.0	1926.0	1859.0	1859.0	1859.0	1879.0	1879.0	1909.0	1909.0	1909.0	1907.0	1907.0	1877.0	1877.0	1877.0	1912.0	1912.0	1855.0	1855.0	1855.0	1835.0	1835.0	1874.0	1874.0	1874.0	1823.0	1823.0	1839.0	1839.0	1839.0	1910.0	1910.0	1865.0	1865.0	1865.0	1895.0	1895.0	1811.0	1811.0	1811.0	1848.0	1848.0	1854.0	1854.0	1854.0	1826.0	1826.0	1872.0	1872.0	1872.0	1815.0	1815.0	1831.0	1831.0	1831.0	1819.0	1819.0	1839.0	1839.0	1839.0	1777.0	1777.0	1767.0	1767.0	1767.0	1764.0	1764.0	1806.0	1806.0	1806.0	1844.0	1844.0	1767.0	1767.0	1767.0	1811.0	1811.0	1827.0	1827.0	1827.0	1743.0	1743.0	1832.0	1832.0	1832.0	1741.0	1741.0	1735.0	1735.0	1735.0	1724.0	1724.0	1802.0	1802.0	1802.0	1812.0	1812.0	1725.0	1725.0	1725.0	1803.0	1803.0	1713.0	1713.0	1713.0	1714.0	1714.0	1707.0	1707.0	1707.0	1715.0	1715.0	1750.0	1750.0	1750.0	1712.0	1712.0	1697.0	1697.0	1697.0	1753.0	1753.0	1760.0	1760.0	1760.0	1682.0	1682.0	1759.0	1759.0	1759.0	1755.0	1755.0	1681.0	1681.0	1681.0	1699.0	1699.0	1680.0	1680.0	1680.0	1753.0	1753.0	1744.0	1744.0	1735.0	1735.0	1735.0	1722.0	1722.0	1660.0	1660.0	1660.0	1688.0	1688.0	1733.0	1733.0	1733.0	1674.0	1674.0	1650.0	1650.0	1650.0	1690.0	1690.0	1706.0	1706.0	1706.0	1718.0	1718.0	1635.0	1635.0	1635.0	1719.0	1719.0	1697.0	1697.0	1697.0	1692.0	1692.0	1664.0	1664.0	1664.0	1667.0	1667.0	1764.0	1764.0	1764.0	1727.0	1727.0	1727.0	1727.0	1727.0	1793.0	1793.0	1729.0	1729.0	1729.0	1803.0	1803.0	1790.0	1790.0	1790.0	1809.0	1809.0	1850.0	1850.0	1850.0	1842.0	1842.0	1889.0	1889.0	1889.0	1916.0	1916.0	1965.0	1965.0	1965.0	1987.0	1987.0	2003.0	2003.0	2003.0	2099.0	2099.0	2042.0	2042.0	2042.0	2146.0	2146.0	2117.0	2117.0	2117.0	2218.0	2218.0	2259.0	2259.0	2259.0	2267.0	2267.0	2235.0	2235.0	2235.0	2303.0	2303.0	2295.0	2295.0	2295.0	2345.0	2345.0	2396.0	2396.0	2396.0	2482.0	2482.0	2428.0	2428.0	2428.0	2460.0	2460.0	2499.0	2499.0	2499.0	2525.0	2525.0	2600.0	2600.0	2600.0	2645.0	2645.0	2654.0	2654.0	2654.0	2645.0	2645.0	2656.0	2656.0	2656.0	2702.0	2702.0	2664.0	2664.0	2664.0	2715.0	2715.0	2776.0	2776.0	2776.0	2704.0	2704.0	2722.0	2722.0	2722.0	2761.0	2761.0	2833.0	2833.0	2833.0	2807.0	2807.0	2815.0	2815.0	2815.0	2788.0	2788.0	2831.0	2831.0	2831.0	2807.0	2807.0	2769.0	2769.0	2769.0	2810.0	2810.0	2785.0	2785.0	2785.0	2805.0	2805.0	2783.0	2783.0	2783.0	2803.0	2803.0	2877.0	2877.0	2877.0	2778.0	2778.0	2789.0	2789.0	2789.0	2784.0	2784.0	2818.0	2818.0	2818.0	2761.0	2761.0	2778.0	2778.0	2778.0	2807.0	2807.0	2751.0	2751.0	2751.0	2800.0	2800.0	2723.0	2723.0	2721.0	2721.0	2721.0	2782.0	2782.0	2771.0	2771.0	2771.0	2747.0	2747.0	2690.0	2690.0	2690.0	2673.0	2673.0	2708.0	2708.0	2708.0	2711.0	2711.0	2707.0	2707.0	2707.0	2696.0	2696.0	2629.0	2629.0	2629.0	2675.0	2675.0	2609.0	2609.0	2609.0	2680.0	2680.0	2673.0	2673.0	2673.0	2657.0	2657.0	2640.0	2640.0	2640.0	2564.0	2564.0	2632.0	2632.0	2632.0	2587.0	2587.0	2541.0	2541.0	2541.0	2544.0	2544.0	2500.0	2500.0	2500.0	2534.0	2534.0	2566.0	2566.0	2566.0	2475.0	2475.0	2539.0	2539.0	2539.0	2483.0	2483.0	2461.0	2461.0	2461.0	2483.0	2483.0	2388.0	2388.0	2388.0	2448.0	2448.0	2427.0	2427.0	2427.0	2395.0	2395.0	2328.0	2328.0	2328.0	2392.0	2392.0	2365.0	2365.0	2365.0	2277.0	2277.0	2261.0	2261.0	2261.0	2251.0	2251.0	2223.0	2223.0	2223.0	2256.0	2256.0	2199.0	2199.0	2199.0	2188.0	2188.0	2175.0	2175.0	2175.0	2227.0	2227.0	2219.0	2219.0	2219.0	2156.0	2156.0	2190.0	2190.0	2190.0	2122.0	2122.0	2160.0	2160.0	2160.0	2122.0	2122.0	2064.0	2064.0	2064.0	2045.0	2045.0	2061.0	2061.0	2061.0	2013.0	2013.0	2074.0	2074.0	2074.0	2072.0	2072.0	2068.0	2068.0	2068.0	1970.0	1970.0	1971.0	1971.0	1971.0	2011.0	2011.0	2021.0	2021.0	2021.0	1940.0	1940.0	2001.0	2001.0	2001.0	1949.0	1949.0	1918.0	1918.0	1918.0	1928.0	1928.0	1974.0	1974.0	1974.0	1937.0	1937.0	1962.0	1962.0	1962.0	1943.0	1943.0	1945.0	1945.0	1945.0	1867.0	1867.0	1943.0	1943.0	1943.0	1949.0	1949.0	1853.0	1853.0	1853.0	1869.0	1869.0	1944.0	1944.0	1944.0	1916.0	1916.0	1890.0	1890.0	1861.0	1861.0	1861.0	1888.0	1888.0	1902.0	1902.0	1902.0	1926.0	1926.0	1930.0	1930.0	1930.0	1900.0	1900.0	1843.0	1843.0	1843.0	1857.0	1857.0	1875.0	1875.0	1875.0	1929.0	1929.0	1910.0	1910.0	1910.0	1846.0	1846.0	1913.0	1913.0	1913.0	1888.0	1888.0	1925.0	1925.0	1925.0	1846.0	1846.0	1901.0	1901.0	1901.0	1924.0	1924.0	1844.0	1844.0	1844.0	1913.0	1913.0	1866.0	1866.0	1866.0	1841.0	1841.0	1847.0	1847.0	1847.0	1928.0	1928.0	1891.0	1891.0	1891.0	1870.0	1870.0	1891.0	1891.0	1891.0	1884.0	1884.0	1927.0	1927.0	1927.0	1848.0	1848.0	1911.0	1911.0	1911.0	1856.0	1856.0	1922.0	1922.0	1922.0	1840.0	1840.0	1876.0	1876.0	1876.0	1891.0	1891.0	1882.0	1882.0	1882.0	1903.0	1903.0	1888.0	1888.0	1888.0	1904.0	1904.0	1838.0	1838.0	1838.0	1830.0	1830.0	1840.0	1840.0	1840.0	1833.0	1833.0	1884.0	1884.0	1884.0	1871.0	1871.0	1839.0	1839.0	1839.0	1848.0	1848.0	1875.0	1875.0	1875.0	1832.0	1832.0	1834.0	1834.0	1834.0	1850.0	1850.0	1891.0	1891.0	1891.0	1895.0	1895.0	1828.0	1828.0	1828.0	1879.0	1879.0	1801.0	1801.0	1801.0	1791.0	1791.0	1881.0	1881.0	1881.0	1821.0	1821.0	1791.0	1791.0	1791.0	1808.0	1808.0	1782.0	1782.0	1782.0	1794.0	1794.0	1831.0	1831.0	1831.0	1815.0	1815.0	1851.0	1851.0	1851.0	1839.0	1839.0	1787.0	1787.0	1787.0	1842.0	1842.0	1794.0	1794.0	1794.0	1751.0	1751.0	1753.0	1753.0	1753.0	1746.0	1746.0	1761.0	1761.0	1761.0	1815.0	1815.0	1809.0	1809.0	1809.0	1751.0	1751.0	1721.0	1721.0	1721.0	1711.0	1711.0	1738.0	1738.0	1738.0	1702.0	1702.0	1708.0	1708.0	1730.0	1730.0	1730.0	1774.0	1774.0	1699.0	1699.0	1699.0	1767.0	1767.0	1771.0	1771.0	1771.0	1763.0	1763.0	1677.0	1677.0	1677.0	1720.0	1720.0	1673.0	1673.0	1673.0	1691.0	1691.0	1678.0	1678.0	1678.0	1747.0	1747.0	1665.0	1665.0	1665.0	1716.0	1716.0	1664.0	1664.0	1664.0	1650.0	1650.0	1682.0	1682.0	1682.0	1727.0	1727.0	1654.0	1654.0	1654.0	1664.0	1664.0	1709.0	1709.0	1709.0	1626.0	1626.0	1643.0	1643.0	1643.0	1625.0	1625.0	1611.0	1611.0	1611.0	1682.0	1682.0	1668.0	1668.0	1668.0	1643.0	1643.0	1631.0	1631.0	1631.0	1596.0	1596.0	1639.0	1639.0	1639.0	1605.0	1605.0	1631.0	1631.0	1631.0	1640.0	1640.0	1644.0	1644.0	1644.0	1658.0	1658.0	1584.0	1584.0	1584.0	1564.0	1564.0	1650.0	1650.0	1650.0	1645.0	1645.0	1575.0	1575.0	1575.0	1564.0	1564.0	1577.0	1577.0	1577.0	1630.0	1630.0	1647.0	1647.0	1647.0	1569.0	1569.0	1578.0	1578.0	1578.0	1605.0	1605.0	1589.0	1589.0	1589.0	1670.0	1670.0	1617.0	1617.0	1617.0	1689.0	1689.0	1718.0	1718.0	1718.0	1750.0	1750.0	1756.0	1756.0	1756.0	1715.0	1715.0	1763.0	1763.0	1763.0	1845.0	1845.0	1866.0	1866.0	1866.0	1814.0	1814.0	1929.0	1929.0	1929.0	1958.0	1958.0	1909.0	1909.0	1909.0	2031.0	2031.0	2062.0	2062.0	2062.0	2060.0	2060.0	2059.0	2059.0	2059.0	2118.0	2118.0	2116.0	2116.0	2116.0	2237.0	2237.0	2197.0	2197.0	2197.0	2224.0	2224.0	2260.0	2260.0	2260.0	2378.0	2378.0	2407.0	2407.0	2407.0	2356.0	2356.0	2378.0	2378.0	2378.0	2440.0	2440.0	2439.0	2439.0	2439.0	2542.0	2542.0	2542.0	2542.0	2602.0	2602.0	2602.0	2610.0	2610.0	2566.0	2566.0	2566.0	2669.0	2669.0	2601.0	2601.0	2601.0	2709.0	2709.0	2637.0	2637.0	2637.0	2734.0	2734.0	2727.0	2727.0	2727.0	2691.0	2691.0	2706.0	2706.0	2706.0	2703.0	2703.0	2752.0	2752.0	2752.0	2766.0	2766.0	2798.0	2798.0	2798.0	2737.0	2737.0	2739.0	2739.0	2739.0	2829.0	2829.0	2775.0	2775.0	2775.0	2823.0	2823.0	2827.0	2827.0	2827.0	2819.0	2819.0	2755.0	2755.0	2755.0	2814.0	2814.0	2739.0	2739.0	2739.0	2727.0	2727.0	2729.0	2729.0	2729.0	2723.0	2723.0	2775.0	2775.0	2775.0	2756.0	2756.0	2774.0	2774.0	2774.0	2692.0	2692.0	2698.0	2698.0	2698.0	2694.0	2694.0	2743.0	2743.0	2743.0	2652.0	2652.0	2722.0	2722.0	2722.0	2724.0	2724.0	2642.0	2642.0	2642.0	2700.0	2700.0	2641.0	2641.0	2641.0	2662.0	2662.0	2619.0	2619.0	2619.0	2572.0	2572.0	2559.0	2559.0	2559.0	2561.0	2561.0	2608.0	2608.0	2608.0	2611.0	2611.0	2604.0	2604.0	2604.0	2575.0	2575.0	2509.0	2509.0	2509.0	2488.0	2488.0	2480.0	2480.0	2480.0	2475.0	2475.0	2444.0	2444.0	2444.0	2511.0	2511.0	2433.0	2433.0	2433.0	2402.0	2402.0	2429.0	2429.0	2429.0	2369.0	2369.0	2401.0	2401.0	2401.0	2420.0	2420.0	2366.0	2366.0	2366.0	2346.0	2346.0	2309.0	2309.0	2309.0	2291.0	2291.0	2270.0	2270.0	2270.0	2314.0	2314.0	2235.0	2235.0	2235.0	2295.0	2295.0	2242.0	2242.0	2242.0	2228.0	2228.0	2207.0	2207.0	2207.0	2242.0	2242.0	2200.0	2200.0	2200.0	2201.0	2201.0	2105.0	2105.0	2105.0	2153.0	2153.0	2175.0	2175.0	2175.0	2092.0	2092.0	2084.0	2084.0	2053.0	2053.0	2053.0	2033.0	2033.0	2101.0	2101.0	2101.0	2005.0	2005.0	1997.0	1997.0	1997.0	2041.0	2041.0	1974.0	1974.0	1974.0	2046.0	2046.0	1950.0	1950.0	1950.0	1941.0	1941.0	2004.0	2004.0	2004.0	1942.0	1942.0	1936.0	1936.0	1936.0	1912.0	1912.0	1964.0	1964.0	1964.0	1921.0	1921.0	1896.0	1896.0	1896.0	1946.0	1946.0	1946.0	1946.0	1946.0	1873.0	1873.0	1903.0	1903.0	1903.0	1926.0	1926.0	1919.0	1919.0	1919.0	1828.0	1828.0	1899.0	1899.0	1899.0	1895.0	1895.0	1839.0	1839.0	1839.0	1881.0	1881.0	1840.0	1840.0	1840.0	1876.0	1876.0	1789.0	1789.0	1789.0	1803.0	1803.0	1880.0	1880.0	1880.0	1791.0	1791.0	1810.0	1810.0	1810.0	1851.0	1851.0	1875.0	1875.0	1875.0	1796.0	1796.0	1877.0	1877.0	1877.0	1781.0	1781.0	1808.0	1808.0	1808.0	1836.0	1836.0	1837.0	1837.0	1837.0	1865.0	1865.0	1851.0	1851.0	1851.0	1796.0	1796.0	1834.0	1834.0	1834.0	1793.0	1793.0	1853.0	1853.0	1853.0	1875.0	1875.0	1801.0	1801.0	1801.0	1858.0	1858.0	1876.0	1876.0	1876.0	1879.0	1879.0	1879.0	1879.0	1879.0	1868.0	1868.0	1844.0	1844.0	1844.0	1806.0	1806.0	1794.0	1794.0	1794.0	1879.0	1879.0	1815.0	1815.0	1815.0	1805.0	1805.0	1817.0	1817.0	1817.0	1832.0	1832.0	1856.0	1856.0	1856.0	1864.0	1864.0	1807.0	1807.0	1807.0	1864.0	1864.0	1861.0	1861.0	1861.0	1794.0	1794.0	1859.0	1859.0	1859.0	1783.0	1783.0	1862.0	1862.0	1862.0	1801.0	1801.0	1869.0	1869.0	1869.0	1876.0	1876.0	1832.0	1832.0	1832.0	1812.0	1812.0	1783.0	1783.0	1783.0	1819.0	1819.0	1779.0	1779.0	1779.0	1775.0	1775.0	1816.0	1816.0	1793.0	1793.0	1793.0	1859.0	1859.0	1813.0	1813.0	1813.0	1790.0	1790.0	1770.0	1770.0	1770.0	1838.0	1838.0	1806.0	1806.0	1806.0	1825.0	1825.0	1763.0	1763.0	1763.0	1768.0	1768.0	1741.0	1741.0	1741.0	1827.0	1827.0	1764.0	1764.0	1764.0	1798.0	1798.0	1817.0	1817.0	1817.0	1814.0	1814.0	1758.0	1758.0	1758.0	1759.0	1759.0	1748.0	1748.0	1748.0	1734.0	1734.0	1764.0	1764.0	1764.0	1803.0	1803.0	1705.0	1705.0	1705.0	1790.0	1790.0	1723.0	1723.0	1723.0	1769.0	1769.0	1736.0	1736.0	1736.0	1683.0	1683.0	1778.0	1778.0	1778.0	1766.0	1766.0	1683.0	1683.0	1683.0	1732.0	1732.0	1752.0	1752.0	1752.0	1762.0	1762.0	1740.0	1740.0	1740.0	1743.0	1743.0	1738.0	1738.0	1738.0	1691.0	1691.0	1743.0	1743.0	1743.0	1739.0	1739.0	1706.0	1706.0	1706.0	1644.0	1644.0	1710.0	1710.0	1710.0	1687.0	1687.0	1632.0	1632.0	1632.0	1625.0	1625.0	1708.0	1708.0	1708.0	1646.0	1646.0	1618.0	1618.0	1618.0	1637.0	1637.0	1693.0	1693.0	1693.0	1651.0	1651.0	1604.0	1604.0	1604.0	1675.0	1675.0	1685.0	1685.0	1685.0	1597.0	1597.0	1649.0	1649.0	