2640.0	2640.0	2678.0	2678.0	2678.0	2587.0	2587.0	2579.0	2579.0	2579.0	2660.0	2660.0	2611.0	2611.0	2611.0	2618.0	2618.0	2588.0	2588.0	2588.0	2544.0	2544.0	2566.0	2566.0	2566.0	2600.0	2600.0	2512.0	2512.0	2512.0	2563.0	2563.0	2544.0	2544.0	2544.0	2511.0	2511.0	2558.0	2558.0	2558.0	2457.0	2457.0	2501.0	2501.0	2501.0	2499.0	2499.0	2504.0	2504.0	2504.0	2419.0	2419.0	2461.0	2461.0	2461.0	2418.0	2418.0	2389.0	2389.0	2389.0	2384.0	2384.0	2418.0	2418.0	2418.0	2370.0	2370.0	2340.0	2340.0	2340.0	2388.0	2388.0	2388.0	2388.0	2388.0	2391.0	2391.0	2381.0	2381.0	2381.0	2339.0	2339.0	2355.0	2355.0	2262.0	2262.0	2262.0	2279.0	2279.0	2303.0	2303.0	2303.0	2246.0	2246.0	2238.0	2238.0	2238.0	2278.0	2278.0	2268.0	2268.0	2268.0	2208.0	2208.0	2179.0	2179.0	2179.0	2146.0	2146.0	2148.0	2148.0	2148.0	2115.0	2115.0	2160.0	2160.0	2160.0	2135.0	2135.0	2064.0	2064.0	2064.0	2078.0	2078.0	2047.0	2047.0	2047.0	2103.0	2103.0	2041.0	2041.0	2041.0	1980.0	1980.0	1968.0	1968.0	1968.0	2031.0	2031.0	1988.0	1988.0	1988.0	1948.0	1948.0	1953.0	1953.0	1953.0	1908.0	1908.0	1883.0	1883.0	1883.0	1923.0	1923.0	1872.0	1872.0	1872.0	1863.0	1863.0	1857.0	1857.0	1857.0	1928.0	1928.0	1839.0	1839.0	1839.0	1881.0	1881.0	1910.0	1910.0	1910.0	1859.0	1859.0	1846.0	1846.0	1846.0	1829.0	1829.0	1844.0	1844.0	1844.0	1805.0	1805.0	1858.0	1858.0	1858.0	1775.0	1775.0	1786.0	1786.0	1786.0	1834.0	1834.0	1761.0	1761.0	1761.0	1770.0	1770.0	1835.0	1835.0	1835.0	1755.0	1755.0	1747.0	1747.0	1747.0	1778.0	1778.0	1742.0	1742.0	1742.0	1760.0	1760.0	1765.0	1765.0	1765.0	1812.0	1812.0	1722.0	1722.0	1722.0	1768.0	1768.0	1730.0	1730.0	1730.0	1783.0	1783.0	1817.0	1817.0	1817.0	1800.0	1800.0	1729.0	1729.0	1729.0	1812.0	1812.0	1723.0	1723.0	1723.0	1742.0	1742.0	1788.0	1788.0	1788.0	1767.0	1767.0	1783.0	1783.0	1783.0	1763.0	1763.0	1730.0	1730.0	1730.0	1813.0	1813.0	1725.0	1725.0	1725.0	1783.0	1783.0	1757.0	1757.0	1757.0	1731.0	1731.0	1750.0	1750.0	1750.0	1810.0	1810.0	1748.0	1748.0	1748.0	1732.0	1732.0	1783.0	1783.0	1783.0	1799.0	1799.0	1733.0	1733.0	1815.0	1815.0	1815.0	1787.0	1787.0	1796.0	1796.0	1796.0	1784.0	1784.0	1733.0	1733.0	1733.0	1735.0	1735.0	1747.0	1747.0	1747.0	1731.0	1731.0	1781.0	1781.0	1781.0	1739.0	1739.0	1811.0	1811.0	1811.0	1751.0	1751.0	1726.0	1726.0	1726.0	1736.0	1736.0	1754.0	1754.0	1754.0	1775.0	1775.0	1768.0	1768.0	1768.0	1729.0	1729.0	1750.0	1750.0	1750.0	1736.0	1736.0	1729.0	1729.0	1729.0	1776.0	1776.0	1728.0	1728.0	1728.0	1724.0	1724.0	1757.0	1757.0	1757.0	1719.0	1719.0	1730.0	1730.0	1730.0	1701.0	1701.0	1788.0	1788.0	1788.0	1789.0	1789.0	1716.0	1716.0	1716.0	1727.0	1727.0	1737.0	1737.0	1737.0	1726.0	1726.0	1756.0	1756.0	1756.0	1683.0	1683.0	1709.0	1709.0	1709.0	1730.0	1730.0	1675.0	1675.0	1675.0	1733.0	1733.0	1751.0	1751.0	1751.0	1754.0	1754.0	1701.0	1701.0	1701.0	1749.0	1749.0	1742.0	1742.0	1742.0	1722.0	1722.0	1643.0	1643.0	1643.0	1711.0	1711.0	1732.0	1732.0	1732.0	1719.0	1719.0	1695.0	1695.0	1695.0	1669.0	1669.0	1644.0	1644.0	1644.0	1635.0	1635.0	1652.0	1652.0	1652.0	1714.0	1714.0	1612.0	1612.0	1612.0	1627.0	1627.0	1678.0	1678.0	1678.0	1693.0	1693.0	1623.0	1623.0	1623.0	1626.0	1626.0	1606.0	1606.0	1606.0	1601.0	1601.0	1615.0	1615.0	1615.0	1600.0	1600.0	1583.0	1583.0	1583.0	1649.0	1649.0	1669.0	1669.0	1669.0	1655.0	1655.0	1629.0	1629.0	1629.0	1625.0	1625.0	1571.0	1571.0	1571.0	1604.0	1604.0	1554.0	1554.0	1554.0	1629.0	1629.0	1589.0	1589.0	1589.0	1635.0	1635.0	1546.0	1546.0	1546.0	1546.0	1546.0	1545.0	1545.0	1545.0	1535.0	1535.0	1600.0	1600.0	1574.0	1574.0	1574.0	1541.0	1541.0	1596.0	1596.0	1596.0	1529.0	1529.0	1551.0	1551.0	1551.0	1590.0	1590.0	1599.0	1599.0	1599.0	1585.0	1585.0	1559.0	1559.0	1559.0	1518.0	1518.0	1585.0	1585.0	1585.0	1539.0	1539.0	1518.0	1518.0	1518.0	1600.0	1600.0	1529.0	1529.0	1529.0	1588.0	1588.0	1543.0	1543.0	1543.0	1556.0	1556.0	1529.0	1529.0	1529.0	1546.0	1546.0	1563.0	1563.0	1563.0	1577.0	1577.0	1537.0	1537.0	1537.0	1504.0	1504.0	1486.0	1486.0	1486.0	1495.0	1495.0	1492.0	1492.0	1492.0	1516.0	1516.0	1483.0	1483.0	1483.0	1526.0	1526.0	1561.0	1561.0	1561.0	1553.0	1553.0	1498.0	1498.0	1498.0	1512.0	1512.0	1503.0	1503.0	1503.0	1602.0	1602.0	1578.0	1578.0	1578.0	1535.0	1535.0	1618.0	1618.0	1618.0	1639.0	1639.0	1668.0	1668.0	1668.0	1685.0	1685.0	1624.0	1624.0	1624.0	1679.0	1679.0	1660.0	1660.0	1660.0	1755.0	1755.0	1800.0	1800.0	1800.0	1803.0	1803.0	1828.0	1828.0	1828.0	1833.0	1833.0	1885.0	1885.0	1885.0	1950.0	1950.0	1897.0	1897.0	1897.0	1979.0	1979.0	1962.0	1962.0	1962.0	2043.0	2043.0	2030.0	2030.0	2030.0	2067.0	2067.0	2137.0	2137.0	2137.0	2171.0	2171.0	2168.0	2168.0	2168.0	2214.0	2214.0	2274.0	2274.0	2274.0	2325.0	2325.0	2327.0	2327.0	2327.0	2382.0	2382.0	2416.0	2416.0	2416.0	2417.0	2417.0	2378.0	2378.0	2378.0	2401.0	2401.0	2414.0	2414.0	2414.0	2462.0	2462.0	2457.0	2457.0	2457.0	2558.0	2558.0	2547.0	2547.0	2547.0	2591.0	2591.0	2508.0	2508.0	2508.0	2526.0	2526.0	2561.0	2561.0	2561.0	2540.0	2540.0	2633.0	2633.0	2611.0	2611.0	2611.0	2630.0	2630.0	2571.0	2571.0	2571.0	2658.0	2658.0	2579.0	2579.0	2579.0	2668.0	2668.0	2577.0	2577.0	2577.0	2615.0	2615.0	2576.0	2576.0	2576.0	2572.0	2572.0	2573.0	2573.0	2573.0	2628.0	2628.0	2580.0	2580.0	2580.0	2610.0	2610.0	2559.0	2559.0	2559.0	2548.0	2548.0	2535.0	2535.0	2535.0	2584.0	2584.0	2574.0	2574.0	2574.0	2600.0	2600.0	2572.0	2572.0	2572.0	2506.0	2506.0	2522.0	2522.0	2522.0	2513.0	2513.0	2549.0	2549.0	2549.0	2516.0	2516.0	2450.0	2450.0	2450.0	2465.0	2465.0	2418.0	2418.0	2418.0	2412.0	2412.0	2395.0	2395.0	2395.0	2440.0	2440.0	2475.0	2475.0	2475.0	2375.0	2375.0	2454.0	2454.0	2454.0	2396.0	2396.0	2403.0	2403.0	2403.0	2424.0	2424.0	2403.0	2403.0	2403.0	2319.0	2319.0	2358.0	2358.0	2358.0	2365.0	2365.0	2363.0	2363.0	2363.0	2277.0	2277.0	2339.0	2339.0	2339.0	2266.0	2266.0	2340.0	2340.0	2340.0	2247.0	2247.0	2228.0	2228.0	2228.0	2252.0	2252.0	2233.0	2233.0	2233.0	2243.0	2243.0	2268.0	2268.0	2268.0	2231.0	2231.0	2166.0	2166.0	2166.0	2191.0	2191.0	2223.0	2223.0	2223.0	2153.0	2153.0	2201.0	2201.0	2201.0	2097.0	2097.0	2139.0	2139.0	2139.0	2108.0	2108.0	2095.0	2095.0	2095.0	2059.0	2059.0	2091.0	2091.0	2091.0	2111.0	2111.0	2057.0	2057.0	2057.0	2016.0	2016.0	2001.0	2001.0	2001.0	2069.0	2069.0	1981.0	1981.0	1981.0	1955.0	1955.0	2018.0	2018.0	2018.0	1994.0	1994.0	1928.0	1928.0	1928.0	1944.0	1944.0	1998.0	1998.0	1998.0	1974.0	1974.0	1964.0	1964.0	1964.0	1926.0	1926.0	1927.0	1927.0	1926.0	1926.0	1926.0	1909.0	1909.0	1859.0	1859.0	1859.0	1926.0	1926.0	1931.0	1931.0	1931.0	1835.0	1835.0	1869.0	1869.0	1869.0	1924.0	1924.0	1869.0	1869.0	1869.0	1886.0	1886.0	1871.0	1871.0	1871.0	1841.0	1841.0	1819.0	1819.0	1819.0	1897.0	1897.0	1818.0	1818.0	1818.0	1846.0	1846.0	1817.0	1817.0	1817.0	1803.0	1803.0	1803.0	1803.0	1803.0	1883.0	1883.0	1808.0	1808.0	1808.0	1876.0	1876.0	1795.0	1795.0	1795.0	1817.0	1817.0	1802.0	1802.0	1802.0	1799.0	1799.0	1856.0	1856.0	1856.0	1836.0	1836.0	1840.0	1840.0	1840.0	1880.0	1880.0	1786.0	1786.0	1786.0	1799.0	1799.0	1877.0	1877.0	1877.0	1848.0	1848.0	1793.0	1793.0	1793.0	1853.0	1853.0	1784.0	1784.0	1784.0	1797.0	1797.0	1795.0	1795.0	1795.0	1810.0	1810.0	1846.0	1846.0	1846.0	1842.0	1842.0	1794.0	1794.0	1794.0	1859.0	1859.0	1846.0	1846.0	1846.0	1853.0	1853.0	1798.0	1798.0	1798.0	1876.0	1876.0	1827.0	1827.0	1827.0	1813.0	1813.0	1865.0	1865.0	1865.0	1868.0	1868.0	1874.0	1874.0	1874.0	1814.0	1814.0	1866.0	1866.0	1866.0	1816.0	1816.0	1886.0	1886.0	1886.0	1841.0	1841.0	1880.0	1880.0	1880.0	1891.0	1891.0	1791.0	1791.0	1791.0	1803.0	1803.0	1819.0	1819.0	1819.0	1793.0	1793.0	1863.0	1863.0	1863.0	1783.0	1783.0	1827.0	1827.0	1827.0	1824.0	1824.0	1838.0	1838.0	1838.0	1870.0	1870.0	1871.0	1871.0	1871.0	1773.0	1773.0	1811.0	1811.0	1811.0	1798.0	1798.0	1819.0	1819.0	1819.0	1796.0	1796.0	1762.0	1762.0	1762.0	1777.0	1777.0	1765.0	1765.0	1765.0	1771.0	1771.0	1796.0	1796.0	1796.0	1819.0	1819.0	1777.0	1777.0	1771.0	1771.0	1771.0	1810.0	1810.0	1797.0	1797.0	1797.0	1791.0	1791.0	1776.0	1776.0	1776.0	1777.0	1777.0	1816.0	1816.0	1816.0	1766.0	1766.0	1792.0	1792.0	1792.0	1797.0	1797.0	1808.0	1808.0	1808.0	1759.0	1759.0	1722.0	1722.0	1722.0	1707.0	1707.0	1779.0	1779.0	1779.0	1718.0	1718.0	1760.0	1760.0	1760.0	1682.0	1682.0	1707.0	1707.0	1707.0	1712.0	1712.0	1742.0	1742.0	1742.0	1674.0	1674.0	1705.0	1705.0	1705.0	1748.0	1748.0	1680.0	1680.0	1680.0	1745.0	1745.0	1676.0	1676.0	1676.0	1668.0	1668.0	1640.0	1640.0	1640.0	1717.0	1717.0	1718.0	1718.0	1718.0	1650.0	1650.0	1698.0	1698.0	1698.0	1650.0	1650.0	1644.0	1644.0	1644.0	1625.0	1625.0	1628.0	1628.0	1628.0	1617.0	1617.0	1665.0	1665.0	1665.0	1621.0	1621.0	1647.0	1647.0	1647.0	1701.0	1701.0	1604.0	1604.0	1604.0	1646.0	1646.0	1669.0	1669.0	1669.0	1634.0	1634.0	1595.0	1595.0	1595.0	1587.0	1587.0	1598.0	1598.0	1598.0	1603.0	1603.0	1609.0	1609.0	1609.0	1663.0	1663.0	1660.0	1660.0	1660.0	1569.0	1569.0	1648.0	1648.0	1648.0	1650.0	1650.0	1641.0	1641.0	1641.0	1573.0	1573.0	1584.0	1584.0	1584.0	1644.0	1644.0	1587.0	1587.0	1587.0	1620.0	1620.0	1635.0	1635.0	1635.0	1540.0	1540.0	1619.0	1619.0	1619.0	1557.0	1557.0	1540.0	1540.0	1540.0	1619.0	1619.0	1605.0	1605.0	1605.0	1610.0	1610.0	1552.0	1552.0	1552.0	1532.0	1532.0	1547.0	1547.0	1547.0	1561.0	1561.0	1527.0	1527.0	1527.0	1569.0	1569.0	1521.0	1521.0	1521.0	1538.0	1538.0	1513.0	1513.0	1513.0	1582.0	1582.0	1610.0	1610.0	1520.0	1520.0	1520.0	1565.0	1565.0	1543.0	1543.0	1543.0	1599.0	1599.0	1635.0	1635.0	1635.0	1623.0	1623.0	1601.0	1601.0	1601.0	1609.0	1609.0	1696.0	1696.0	1696.0	1681.0	1681.0	1632.0	1632.0	1632.0	1707.0	1707.0	1727.0	1727.0	1727.0	1736.0	1736.0	1732.0	1732.0	1732.0	1828.0	1828.0	1827.0	1827.0	1827.0	1871.0	1871.0	1912.0	1912.0	1912.0	1885.0	1885.0	1920.0	1920.0	1920.0	1981.0	1981.0	2051.0	2051.0	2051.0	2053.0	2053.0	2126.0	2126.0	2126.0	2127.0	2127.0	2192.0	2192.0	2192.0	2208.0	2208.0	2153.0	2153.0	2153.0	2215.0	2215.0	2219.0	2219.0	2219.0	2333.0	2333.0	2317.0	2317.0	2317.0	2357.0	2357.0	2397.0	2397.0	2397.0	2337.0	2337.0	2387.0	2387.0	2387.0	2456.0	2456.0	2450.0	2450.0	2450.0	2417.0	2417.0	2508.0	2508.0	2508.0	2493.0	2493.0	2541.0	2541.0	2541.0	2483.0	2483.0	2571.0	2571.0	2571.0	2584.0	2584.0	2577.0	2577.0	2577.0	2523.0	2523.0	2599.0	2599.0	2599.0	2598.0	2598.0	2580.0	2580.0	2580.0	2618.0	2618.0	2623.0	2623.0	2623.0	2558.0	2558.0	2575.0	2575.0	2575.0	2539.0	2539.0	2534.0	2534.0	2534.0	2624.0	2624.0	2542.0	2542.0	2542.0	2521.0	2521.0	2601.0	2601.0	2601.0	2548.0	2548.0	2509.0	2509.0	2509.0	2543.0	2543.0	2532.0	2532.0	2532.0	2486.0	2486.0	2528.0	2528.0	2528.0	2472.0	2472.0	2461.0	2461.0	2461.0	2461.0	2461.0	2507.0	2507.0	2507.0	2481.0	2481.0	2483.0	2483.0	2483.0	2475.0	2475.0	2423.0	2423.0	2423.0	2413.0	2413.0	2460.0	2460.0	2460.0	2409.0	2409.0	2431.0	2431.0	2431.0	2343.0	2343.0	2324.0	2324.0	2354.0	2354.0	2354.0	2361.0	2361.0	2353.0	2353.0	2353.0	2308.0	2308.0	2289.0	2289.0	2289.0	2344.0	2344.0	2284.0	2284.0	2284.0	2273.0	2273.0	2269.0	2269.0	2269.0	2307.0	2307.0	2296.0	2296.0	2296.0	2249.0	2249.0	2264.0	2264.0	2264.0	2197.0	2197.0	2182.0	2182.0	2182.0	2220.0	2220.0	2187.0	2187.0	2187.0	2201.0	2201.0	2201.0	2201.0	2201.0	2133.0	2133.0	2093.0	2093.0	2093.0	2113.0	2113.0	2087.0	2087.0	2087.0	2090.0	2090.0	2088.0	2088.0	2088.0	2107.0	2107.0	2022.0	2022.0	2022.0	2022.0	2022.0	1985.0	1985.0	1985.0	1960.0	1960.0	2015.0	2015.0	2015.0	2001.0	2001.0	2012.0	2012.0	2012.0	1925.0	1925.0	1953.0	1953.0	1953.0	1903.0	1903.0	1878.0	1878.0	1878.0	1951.0	1951.0	1947.0	1947.0	1947.0	1857.0	1857.0	1897.0	1897.0	1897.0	1856.0	1856.0	1888.0	1888.0	1888.0	1890.0	1890.0	1831.0	1831.0	1831.0	1793.0	1793.0	1772.0	1772.0	1772.0	1820.0	1820.0	1790.0	1790.0	1790.0	1754.0	1754.0	1758.0	1758.0	1758.0	1741.0	1741.0	1732.0	1732.0	1732.0	1791.0	1791.0	1721.0	1721.0	1721.0	1741.0	1741.0	1759.0	1759.0	1759.0	1772.0	1772.0	1712.0	1712.0	1712.0	1785.0	1785.0	1726.0	1726.0	1726.0	1693.0	1693.0	1760.0	1760.0	1760.0	1779.0	1779.0	1733.0	1733.0	1733.0	1698.0	1698.0	1734.0	1734.0	1734.0	1773.0	1773.0	1701.0	1701.0	1701.0	1683.0	1683.0	1692.0	1692.0	1692.0	1777.0	1777.0	1707.0	1707.0	1707.0	1771.0	1771.0	1765.0	1765.0	1765.0	1738.0	1738.0	1739.0	1739.0	1739.0	1688.0	1688.0	1693.0	1693.0	1693.0	1696.0	1696.0	1753.0	1753.0	1753.0	1742.0	1742.0	1746.0	1746.0	1779.0	1779.0	1779.0	1720.0	1720.0	1705.0	1705.0	1705.0	1773.0	1773.0	1716.0	1716.0	1716.0	1708.0	1708.0	1784.0	1784.0	1784.0	1710.0	1710.0	1788.0	1788.0	1788.0	1767.0	1767.0	1731.0	1731.0	1731.0	1753.0	1753.0	1787.0	1787.0	1787.0	1746.0	1746.0	1765.0	1765.0	1765.0	1796.0	1796.0	1783.0	1783.0	1783.0	1784.0	1784.0	1771.0	1771.0	1771.0	1792.0	1792.0	1706.0	1706.0	1706.0	1718.0	1718.0	1701.0	1701.0	1701.0	1765.0	1765.0	1708.0	1708.0	1708.0	1742.0	1742.0	1702.0	1702.0	1702.0	1700.0	1700.0	1698.0	1698.0	1698.0	1728.0	1728.0	1738.0	1738.0	1738.0	1716.0	1716.0	1765.0	1765.0	1765.0	1756.0	1756.0	1772.0	1772.0	1772.0	1731.0	1731.0	1719.0	1719.0	1719.0	1685.0	1685.0	1684.0	1684.0	1684.0	1724.0	1724.0	1750.0	1750.0	1750.0	1716.0	1716.0	1695.0	1695.0	1695.0	1718.0	1718.0	1707.0	1707.0	1707.0	1678.0	1678.0	1651.0	1651.0	1651.0	1666.0	1666.0	1643.0	1643.0	1643.0	1703.0	1703.0	1700.0	1700.0	1700.0	1631.0	1631.0	1631.0	1631.0	1631.0	1631.0	1631.0	1623.0	1623.0	1623.0	1625.0	1625.0	1619.0	1619.0	1619.0	1699.0	1699.0	1635.0	1635.0	1635.0	1607.0	1607.0	1691.0	1691.0	1691.0	1632.0	1632.0	1600.0	1600.0	1600.0	1683.0	1683.0	1614.0	1614.0	1614.0	1643.0	1643.0	1608.0	1608.0	1608.0	1671.0	1671.0	1665.0	1665.0	1665.0	1644.0	1644.0	1592.0	1592.0	1592.0	1612.0	1612.0	1560.0	1560.0	1560.0	1599.0	1599.0	1575.0	1575.0	1575.0	1562.0	1562.0	1604.0	1604.0	1604.0	1641.0	1641.0	1552.0	1552.0	1552.0	1547.0	1547.0	1541.0	1541.0	1557.0	1557.0	1557.0	1553.0	1553.0	1535.0	1535.0	1535.0	1614.0	1614.0	1567.0	1567.0	1567.0	1527.0	1527.0	1587.0	1587.0	1587.0	1607.0	1607.0	1598.0	1598.0	1598.0	1578.0	1578.0	1525.0	1525.0	1525.0	1551.0	1551.0	1603.0	1603.0	1603.0	1516.0	1516.0	1556.0	1556.0	1556.0	1591.0	1591.0	1589.0	1589.0	1589.0	1507.0	1507.0	1504.0	1504.0	1504.0	1543.0	1543.0	1579.0	1579.0	1579.0	1544.0	1544.0	1546.0	1546.0	1546.0	1548.0	1548.0	1501.0	1501.0	1501.0	1551.0	1551.0	1522.0	1522.0	1522.0	1476.0	1476.0	1503.0	1503.0	1503.0	1528.0	1528.0	1481.0	1481.0	1481.0	1473.0	1473.0	1556.0	1556.0	1556.0	1474.0	1474.0	1507.0	1507.0	1507.0	1516.0	1516.0	1546.0	1546.0	1546.0	1466.0	1466.0	1535.0	1535.0	1535.0	1520.0	1520.0	1559.0	1559.0	1559.0	1479.0	1479.0	1539.0	1539.0	1539.0	1548.0	1548.0	1549.0	1549.0	1549.0	1555.0	1555.0	1488.0	1488.0	1488.0	1529.0	1529.0	1517.0	1517.0	1517.0	1580.0	1580.0	1525.0	1525.0	1525.0	1628.0	1628.0	1635.0	1635.0	1635.0	1633.0	1633.0	1676.0	1676.0	1676.0	1648.0	1648.0	1659.0	1659.0	1659.0	1689.0	1689.0	1779.0	1779.0	1779.0	1732.0	1732.0	1835.0	1835.0	1835.0	1827.0	1827.0	1886.0	1886.0	1886.0	1920.0	1920.0	1927.0	1927.0	1927.0	1972.0	1972.0	2012.0	2012.0	2012.0	1972.0	1972.0	2095.0	2095.0	2095.0	2035.0	2035.0	2154.0	2154.0	2154.0	2095.0	2095.0	2154.0	2154.0	2154.0	