2236.0	2236.0	2236.0	2265.0	2265.0	2257.0	2257.0	2257.0	2269.0	2269.0	2274.0	2274.0	2274.0	2221.0	2221.0	2218.0	2218.0	2218.0	2193.0	2193.0	2250.0	2250.0	2250.0	2224.0	2224.0	2206.0	2206.0	2206.0	2233.0	2233.0	2234.0	2234.0	2234.0	2170.0	2170.0	2211.0	2211.0	2211.0	2181.0	2181.0	2147.0	2147.0	2147.0	2137.0	2137.0	2127.0	2127.0	2127.0	2167.0	2167.0	2113.0	2113.0	2113.0	2123.0	2123.0	2150.0	2150.0	2150.0	2138.0	2138.0	2138.0	2138.0	2138.0	2083.0	2083.0	2079.0	2079.0	2079.0	2102.0	2102.0	2055.0	2055.0	2055.0	2091.0	2091.0	2078.0	2078.0	2078.0	2102.0	2102.0	2073.0	2073.0	2073.0	2023.0	2023.0	2032.0	2032.0	2045.0	2045.0	2045.0	2029.0	2029.0	2025.0	2025.0	2025.0	2046.0	2046.0	2021.0	2021.0	2021.0	1982.0	1982.0	1959.0	1959.0	1959.0	2013.0	2013.0	1952.0	1952.0	1952.0	1971.0	1971.0	1974.0	1974.0	1974.0	1943.0	1943.0	1955.0	1955.0	1955.0	1947.0	1947.0	1932.0	1932.0	1932.0	1927.0	1927.0	1937.0	1937.0	1937.0	1962.0	1962.0	1962.0	1962.0	1962.0	1900.0	1900.0	1928.0	1928.0	1928.0	1925.0	1925.0	1877.0	1877.0	1877.0	1950.0	1950.0	1880.0	1880.0	1880.0	1901.0	1901.0	1933.0	1933.0	1933.0	1889.0	1889.0	1876.0	1876.0	1876.0	1913.0	1913.0	1927.0	1927.0	1927.0	1876.0	1876.0	1889.0	1889.0	1889.0	1890.0	1890.0	1860.0	1860.0	1860.0	1883.0	1883.0	1890.0	1890.0	1890.0	1898.0	1898.0	1865.0	1865.0	1865.0	1853.0	1853.0	1867.0	1867.0	1867.0	1891.0	1891.0	1856.0	1856.0	1856.0	1884.0	1884.0	1866.0	1866.0	1866.0	1856.0	1856.0	1918.0	1918.0	1918.0	1904.0	1904.0	1888.0	1888.0	1888.0	1923.0	1923.0	1912.0	1912.0	1912.0	1857.0	1857.0	1923.0	1923.0	1923.0	1911.0	1911.0	1915.0	1915.0	1915.0	1873.0	1873.0	1904.0	1904.0	1904.0	1911.0	1911.0	1920.0	1920.0	1920.0	1852.0	1852.0	1922.0	1922.0	1922.0	1892.0	1892.0	1906.0	1906.0	1906.0	1927.0	1927.0	1920.0	1920.0	1920.0	1847.0	1847.0	1860.0	1860.0	1860.0	1849.0	1849.0	1884.0	1884.0	1884.0	1876.0	1876.0	1847.0	1847.0	1847.0	1901.0	1901.0	1868.0	1868.0	1868.0	1844.0	1844.0	1897.0	1897.0	1897.0	1856.0	1856.0	1865.0	1865.0	1865.0	1905.0	1905.0	1866.0	1866.0	1866.0	1878.0	1878.0	1901.0	1901.0	1901.0	1884.0	1884.0	1896.0	1896.0	1829.0	1829.0	1829.0	1841.0	1841.0	1838.0	1838.0	1838.0	1855.0	1855.0	1871.0	1871.0	1871.0	1835.0	1835.0	1831.0	1831.0	1831.0	1889.0	1889.0	1828.0	1828.0	1828.0	1884.0	1884.0	1853.0	1853.0	1853.0	1884.0	1884.0	1835.0	1835.0	1835.0	1882.0	1882.0	1860.0	1860.0	1860.0	1870.0	1870.0	1861.0	1861.0	1861.0	1823.0	1823.0	1821.0	1821.0	1821.0	1837.0	1837.0	1856.0	1856.0	1856.0	1807.0	1807.0	1872.0	1872.0	1872.0	1816.0	1816.0	1866.0	1866.0	1866.0	1816.0	1816.0	1854.0	1854.0	1854.0	1836.0	1836.0	1820.0	1820.0	1820.0	1832.0	1832.0	1792.0	1792.0	1792.0	1812.0	1812.0	1836.0	1836.0	1836.0	1811.0	1811.0	1814.0	1814.0	1814.0	1786.0	1786.0	1783.0	1783.0	1783.0	1843.0	1843.0	1775.0	1775.0	1775.0	1794.0	1794.0	1815.0	1815.0	1815.0	1790.0	1790.0	1807.0	1807.0	1807.0	1763.0	1763.0	1796.0	1796.0	1796.0	1764.0	1764.0	1807.0	1807.0	1807.0	1827.0	1827.0	1777.0	1777.0	1777.0	1808.0	1808.0	1763.0	1763.0	1763.0	1792.0	1792.0	1813.0	1813.0	1813.0	1753.0	1753.0	1800.0	1800.0	1800.0	1807.0	1807.0	1791.0	1791.0	1791.0	1750.0	1750.0	1774.0	1774.0	1774.0	1798.0	1798.0	1742.0	1742.0	1742.0	1739.0	1739.0	1791.0	1791.0	1791.0	1800.0	1800.0	1806.0	1806.0	1806.0	1733.0	1733.0	1804.0	1804.0	1804.0	1751.0	1751.0	1760.0	1760.0	1760.0	1777.0	1777.0	1728.0	1728.0	1728.0	1799.0	1799.0	1739.0	1739.0	1739.0	1792.0	1792.0	1744.0	1744.0	1744.0	1740.0	1740.0	1790.0	1790.0	1790.0	1791.0	1791.0	1738.0	1738.0	1738.0	1773.0	1773.0	1759.0	1759.0	1763.0	1763.0	1763.0	1769.0	1769.0	1768.0	1768.0	1768.0	1706.0	1706.0	1787.0	1787.0	1787.0	1723.0	1723.0	1724.0	1724.0	1724.0	1785.0	1785.0	1758.0	1758.0	1758.0	1729.0	1729.0	1753.0	1753.0	1753.0	1718.0	1718.0	1782.0	1782.0	1782.0	1762.0	1762.0	1740.0	1740.0	1740.0	1761.0	1761.0	1809.0	1809.0	1809.0	1759.0	1759.0	1818.0	1818.0	1818.0	1795.0	1795.0	1843.0	1843.0	1843.0	1834.0	1834.0	1887.0	1887.0	1887.0	1843.0	1843.0	1923.0	1923.0	1923.0	1944.0	1944.0	1927.0	1927.0	1927.0	1988.0	1988.0	1930.0	1930.0	1930.0	1996.0	1996.0	2039.0	2039.0	2039.0	2047.0	2047.0	2066.0	2066.0	2066.0	2021.0	2021.0	2106.0	2106.0	2106.0	2113.0	2113.0	2116.0	2116.0	2116.0	2153.0	2153.0	2151.0	2151.0	2151.0	2130.0	2130.0	2213.0	2213.0	2213.0	2239.0	2239.0	2214.0	2214.0	2214.0	2241.0	2241.0	2238.0	2238.0	2238.0	2240.0	2240.0	2236.0	2236.0	2236.0	2249.0	2249.0	2253.0	2253.0	2253.0	2326.0	2326.0	2344.0	2344.0	2344.0	2308.0	2308.0	2353.0	2353.0	2353.0	2321.0	2321.0	2354.0	2354.0	2354.0	2307.0	2307.0	2311.0	2311.0	2311.0	2308.0	2308.0	2322.0	2322.0	2322.0	2372.0	2372.0	2355.0	2355.0	2355.0	2322.0	2322.0	2325.0	2325.0	2325.0	2354.0	2354.0	2353.0	2353.0	2353.0	2359.0	2359.0	2364.0	2364.0	2364.0	2331.0	2331.0	2360.0	2360.0	2360.0	2374.0	2374.0	2379.0	2379.0	2379.0	2306.0	2306.0	2325.0	2325.0	2325.0	2356.0	2356.0	2345.0	2345.0	2345.0	2301.0	2301.0	2306.0	2306.0	2306.0	2294.0	2294.0	2329.0	2329.0	2329.0	2323.0	2323.0	2311.0	2311.0	2311.0	2295.0	2295.0	2280.0	2280.0	2241.0	2241.0	2241.0	2283.0	2283.0	2287.0	2287.0	2287.0	2236.0	2236.0	2229.0	2229.0	2229.0	2216.0	2216.0	2214.0	2214.0	2214.0	2231.0	2231.0	2201.0	2201.0	2201.0	2249.0	2249.0	2254.0	2254.0	2254.0	2187.0	2187.0	2207.0	2207.0	2207.0	2186.0	2186.0	2175.0	2175.0	2175.0	2158.0	2158.0	2214.0	2214.0	2214.0	2164.0	2164.0	2193.0	2193.0	2193.0	2141.0	2141.0	2129.0	2129.0	2129.0	2115.0	2115.0	2143.0	2143.0	2143.0	2154.0	2154.0	2102.0	2102.0	2102.0	2080.0	2080.0	2086.0	2086.0	2086.0	2071.0	2071.0	2066.0	2066.0	2066.0	2061.0	2061.0	2111.0	2111.0	2111.0	2070.0	2070.0	2026.0	2026.0	2026.0	2031.0	2031.0	2048.0	2048.0	2048.0	2053.0	2053.0	2043.0	2043.0	2043.0	2039.0	2039.0	1986.0	1986.0	1986.0	2022.0	2022.0	1996.0	1996.0	1996.0	2012.0	2012.0	1951.0	1951.0	1951.0	1941.0	1941.0	1992.0	1992.0	1992.0	1935.0	1935.0	1969.0	1969.0	1969.0	1975.0	1975.0	1931.0	1931.0	1931.0	1978.0	1978.0	1909.0	1909.0	1909.0	1895.0	1895.0	1952.0	1952.0	1952.0	1895.0	1895.0	1889.0	1889.0	1889.0	1941.0	1941.0	1884.0	1884.0	1884.0	1898.0	1898.0	1945.0	1945.0	1945.0	1865.0	1865.0	1914.0	1914.0	1914.0	1929.0	1929.0	1871.0	1871.0	1871.0	1903.0	1903.0	1869.0	1869.0	1869.0	1878.0	1878.0	1872.0	1872.0	1872.0	1934.0	1934.0	1912.0	1912.0	1912.0	1942.0	1942.0	1911.0	1911.0	1911.0	1864.0	1864.0	1936.0	1936.0	1936.0	1895.0	1895.0	1933.0	1933.0	1933.0	1869.0	1869.0	1874.0	1874.0	1874.0	1914.0	1914.0	1879.0	1879.0	1879.0	1911.0	1911.0	1893.0	1893.0	1899.0	1899.0	1899.0	1880.0	1880.0	1937.0	1937.0	1937.0	1943.0	1943.0	1920.0	1920.0	1920.0	1892.0	1892.0	1959.0	1959.0	1959.0	1892.0	1892.0	1958.0	1958.0	1958.0	1909.0	1909.0	1910.0	1910.0	1910.0	1963.0	1963.0	1915.0	1915.0	1915.0	1953.0	1953.0	1902.0	1902.0	1902.0	1951.0	1951.0	1955.0	1955.0	1955.0	1970.0	1970.0	1953.0	1953.0	1953.0	1984.0	1984.0	1972.0	1972.0	1972.0	1920.0	1920.0	1947.0	1947.0	1947.0	1912.0	1912.0	1963.0	1963.0	1963.0	1956.0	1956.0	1961.0	1961.0	1961.0	1912.0	1912.0	1924.0	1924.0	1924.0	1946.0	1946.0	1929.0	1929.0	1929.0	1948.0	1948.0	1965.0	1965.0	1965.0	1927.0	1927.0	1947.0	1947.0	1947.0	1985.0	1985.0	1976.0	1976.0	1976.0	1928.0	1928.0	1953.0	1953.0	1953.0	1970.0	1970.0	1954.0	1954.0	1954.0	1937.0	1937.0	1912.0	1912.0	1912.0	1910.0	1910.0	1932.0	1932.0	1932.0	1970.0	1970.0	1976.0	1976.0	1976.0	1901.0	1901.0	1912.0	1912.0	1912.0	1924.0	1924.0	1903.0	1903.0	1903.0	1917.0	1917.0	1973.0	1973.0	1973.0	1968.0	1968.0	1963.0	1963.0	1963.0	1902.0	1902.0	1943.0	1943.0	1943.0	1907.0	1907.0	1899.0	1899.0	1899.0	1964.0	1964.0	1957.0	1957.0	1957.0	1886.0	1886.0	1886.0	1886.0	1886.0	1897.0	1897.0	1933.0	1933.0	1933.0	1924.0	1924.0	1944.0	1944.0	1944.0	1945.0	1945.0	1893.0	1893.0	1893.0	1885.0	1885.0	1899.0	1899.0	1899.0	1898.0	1898.0	1883.0	1883.0	1883.0	1938.0	1938.0	1875.0	1875.0	1875.0	1890.0	1890.0	1910.0	1910.0	1910.0	1862.0	1862.0	1873.0	1873.0	1873.0	1865.0	1865.0	1905.0	1905.0	1923.0	1923.0	1923.0	1853.0	1853.0	1924.0	1924.0	1924.0	1883.0	1883.0	1891.0	1891.0	1891.0	1892.0	1892.0	1882.0	1882.0	1882.0	1857.0	1857.0	1910.0	1910.0	1910.0	1838.0	1838.0	1869.0	1869.0	1869.0	1898.0	1898.0	1894.0	1894.0	1894.0	1846.0	1846.0	1869.0	1869.0	1869.0	1860.0	1860.0	1885.0	1885.0	1885.0	1837.0	1837.0	1837.0	1837.0	1837.0	1876.0	1876.0	1857.0	1857.0	1857.0	1851.0	1851.0	1901.0	1901.0	1901.0	1836.0	1836.0	1891.0	1891.0	1891.0	1832.0	1832.0	1820.0	1820.0	1820.0	1828.0	1828.0	1870.0	1870.0	1870.0	1867.0	1867.0	1843.0	1843.0	1843.0	1867.0	1867.0	1872.0	1872.0	1872.0	1872.0	1872.0	1851.0	1851.0	1851.0	1864.0	1864.0	1879.0	1879.0	1879.0	1840.0	1840.0	1867.0	1867.0	1867.0	1813.0	1813.0	1840.0	1840.0	1840.0	1826.0	1826.0	1883.0	1883.0	1883.0	1840.0	1840.0	1853.0	1853.0	1853.0	1840.0	1840.0	1842.0	1842.0	1842.0	1901.0	1901.0	1924.0	1924.0	1924.0	1863.0	1863.0	1885.0	1885.0	1885.0	1922.0	1922.0	1911.0	1911.0	1911.0	1986.0	1986.0	1971.0	1971.0	1971.0	1993.0	1993.0	1967.0	1967.0	1967.0	2033.0	2033.0	2040.0	2040.0	2040.0	2063.0	2063.0	2060.0	2060.0	2060.0	2065.0	2065.0	2103.0	2103.0	2103.0	2143.0	2143.0	2122.0	2122.0	2122.0	2197.0	2197.0	2204.0	2204.0	2204.0	2216.0	2216.0	2216.0	2216.0	2216.0	2256.0	2256.0	2283.0	2283.0	2283.0	2297.0	2297.0	2332.0	2332.0	2332.0	2307.0	2307.0	2335.0	2335.0	2335.0	2375.0	2375.0	2358.0	2358.0	2358.0	2359.0	2359.0	2355.0	2355.0	2355.0	2371.0	2371.0	2388.0	2388.0	2388.0	2387.0	2387.0	2401.0	2401.0	2409.0	2409.0	2409.0	2472.0	2472.0	2436.0	2436.0	2436.0	2439.0	2439.0	2470.0	2470.0	2470.0	2504.0	2504.0	2448.0	2448.0	2448.0	2502.0	2502.0	2457.0	2457.0	2457.0	2484.0	2484.0	2490.0	2490.0	2490.0	2479.0	2479.0	2473.0	2473.0	2473.0	2501.0	2501.0	2459.0	2459.0	2459.0	2514.0	2514.0	2467.0	2467.0	2467.0	2507.0	2507.0	2457.0	2457.0	2457.0	2480.0	2480.0	2441.0	2441.0	2441.0	2488.0	2488.0	2491.0	2491.0	2491.0	2453.0	2453.0	2431.0	2431.0	2431.0	2482.0	2482.0	2439.0	2439.0	2439.0	2404.0	2404.0	2434.0	2434.0	2434.0	2455.0	2455.0	2439.0	2439.0	2439.0	2404.0	2404.0	2375.0	2375.0	2375.0	2378.0	2378.0	2419.0	2419.0	2419.0	2396.0	2396.0	2389.0	2389.0	2389.0	2383.0	2383.0	2346.0	2346.0	2346.0	2349.0	2349.0	2374.0	2374.0	2374.0	2371.0	2371.0	2349.0	2349.0	2349.0	2337.0	2337.0	2308.0	2308.0	2308.0	2290.0	2290.0	2345.0	2345.0	2345.0	2330.0	2330.0	2321.0	2321.0	2321.0	2288.0	2288.0	2274.0	2274.0	2274.0	2270.0	2270.0	2256.0	2256.0	2256.0	2276.0	2276.0	2246.0	2246.0	2246.0	2229.0	2229.0	2222.0	2222.0	2222.0	2266.0	2266.0	2231.0	2231.0	2231.0	2197.0	2197.0	2218.0	2218.0	2218.0	2202.0	2202.0	2225.0	2225.0	2225.0	2181.0	2181.0	2201.0	2201.0	2201.0	2148.0	2148.0	2186.0	2186.0	2186.0	2189.0	2189.0	2134.0	2134.0	2134.0	2156.0	2156.0	2175.0	2175.0	2175.0	2135.0	2135.0	2161.0	2161.0	2161.0	2127.0	2127.0	2099.0	2099.0	2099.0	2073.0	2073.0	2133.0	2133.0	2133.0	2132.0	2132.0	2106.0	2106.0	2106.0	2058.0	2058.0	2101.0	2101.0	2063.0	2063.0	2063.0	2032.0	2032.0	2089.0	2089.0	2089.0	2043.0	2043.0	2045.0	2045.0	2045.0	2077.0	2077.0	2047.0	2047.0	2047.0	2031.0	2031.0	2025.0	2025.0	2025.0	1999.0	1999.0	2012.0	2012.0	2012.0	2010.0	2010.0	1995.0	1995.0	1995.0	2035.0	2035.0	2041.0	2041.0	2041.0	2008.0	2008.0	1993.0	1993.0	1993.0	2023.0	2023.0	2020.0	2020.0	2020.0	1977.0	1977.0	1971.0	1971.0	1971.0	2003.0	2003.0	1971.0	1971.0	1971.0	2024.0	2024.0	2020.0	2020.0	2020.0	2002.0	2002.0	2023.0	2023.0	2023.0	2018.0	2018.0	1976.0	1976.0	1976.0	2014.0	2014.0	1989.0	1989.0	1989.0	1969.0	1969.0	1995.0	1995.0	1995.0	2022.0	2022.0	2011.0	2011.0	2011.0	2040.0	2040.0	2020.0	2020.0	2020.0	1980.0	1980.0	1958.0	1958.0	1958.0	2030.0	2030.0	1966.0	1966.0	1966.0	1961.0	1961.0	1999.0	1999.0	1999.0	1983.0	1983.0	1974.0	1974.0	1974.0	1966.0	1966.0	2023.0	2023.0	2023.0	2029.0	2029.0	2002.0	2002.0	2002.0	1996.0	1996.0	1990.0	1990.0	1990.0	1978.0	1978.0	1990.0	1990.0	1990.0	2026.0	2026.0	2021.0	2021.0	2021.0	2005.0	2005.0	1994.0	1994.0	1994.0	1985.0	1985.0	2006.0	2006.0	2006.0	2001.0	2001.0	1959.0	1959.0	1959.0	1969.0	1969.0	1962.0	1962.0	1962.0	1998.0	1998.0	1983.0	1983.0	1983.0	1963.0	1963.0	1939.0	1939.0	1939.0	1946.0	1946.0	1950.0	1950.0	1950.0	1931.0	1931.0	1932.0	1932.0	1932.0	1963.0	1963.0	1951.0	1951.0	1951.0	1983.0	1983.0	1931.0	1931.0	1931.0	1939.0	1939.0	1940.0	1940.0	1940.0	1950.0	1950.0	1963.0	1963.0	1963.0	1966.0	1966.0	1925.0	1925.0	1974.0	1974.0	1974.0	1939.0	1939.0	1944.0	1944.0	1944.0	1910.0	1910.0	1959.0	1959.0	1959.0	1927.0	1927.0	1955.0	1955.0	1955.0	1959.0	1959.0	1906.0	1906.0	1906.0	1887.0	1887.0	1935.0	1935.0	1935.0	1893.0	1893.0	1951.0	1951.0	1951.0	1910.0	1910.0	1875.0	1875.0	1875.0	1892.0	1892.0	1887.0	1887.0	1887.0	1875.0	1875.0	1875.0	1875.0	1875.0	1884.0	1884.0	1928.0	1928.0	1928.0	1917.0	1917.0	1921.0	1921.0	1921.0	1882.0	1882.0	1864.0	1864.0	1864.0	1872.0	1872.0	1859.0	1859.0	1859.0	1900.0	1900.0	1866.0	1866.0	1866.0	1883.0	1883.0	1825.0	1825.0	1825.0	1892.0	1892.0	1886.0	1886.0	1886.0	1835.0	1835.0	1818.0	1818.0	1818.0	1825.0	1825.0	1871.0	1871.0	1871.0	1814.0	1814.0	1847.0	1847.0	1847.0	1857.0	1857.0	1821.0	1821.0	1821.0	1820.0	1820.0	1808.0	1808.0	1808.0	1813.0	1813.0	1794.0	1794.0	1794.0	1789.0	1789.0	1807.0	1807.0	1807.0	1827.0	1827.0	1824.0	1824.0	1824.0	1797.0	1797.0	1790.0	1790.0	1790.0	1783.0	1783.0	1823.0	1823.0	1823.0	1799.0	1799.0	1822.0	1822.0	1822.0	1828.0	1828.0	1810.0	1810.0	1810.0	1795.0	1795.0	1824.0	1824.0	1824.0	1765.0	1765.0	1801.0	1801.0	1801.0	1804.0	1804.0	1777.0	1777.0	1777.0	1824.0	1824.0	1806.0	1806.0	1806.0	1827.0	1827.0	1808.0	1808.0	1808.0	1756.0	1756.0	1789.0	1789.0	1789.0	1763.0	1763.0	1756.0	1756.0	1756.0	1794.0	1794.0	1836.0	1836.0	1836.0	1772.0	1772.0	1776.0	1776.0	1776.0	1837.0	1837.0	1840.0	1840.0	1840.0	1807.0	1807.0	1809.0	1809.0	1809.0	1811.0	1811.0	1830.0	1830.0	1830.0	1893.0	1893.0	1840.0	1840.0	1855.0	1855.0	1855.0	1915.0	1915.0	1882.0	1882.0	1882.0	1923.0	1923.0	1920.0	1920.0	1920.0	1990.0	1990.0	1957.0	1957.0	1957.0	2021.0	2021.0	2013.0	2013.0	2013.0	2087.0	2087.0	2032.0	2032.0	2032.0	2063.0	2063.0	2112.0	2112.0	2112.0	2103.0	2103.0	2136.0	2136.0	2136.0	2133.0	2133.0	2214.0	2214.0	2214.0	2184.0	2184.0	2220.0	2220.0	2220.0	2221.0	2221.0	2284.0	2284.0	2284.0	2247.0	2247.0	2255.0	2255.0	2255.0	2285.0	2285.0	2289.0	2289.0	2289.0	2315.0	2315.0	2368.0	2368.0	2368.0	2336.0	2336.0	2345.0	2345.0	2345.0	2415.0	2415.0	2362.0	2362.0	2362.0	2398.0	2398.0	2398.0	2398.0	2398.0	2380.0	2380.0	2439.0	2439.0	2439.0	2390.0	2390.0	2410.0	2410.0	2410.0	2463.0	2463.0	2414.0	2414.0	2414.0	2434.0	2434.0	2443.0	2443.0	2443.0	2443.0	2443.0	2478.0	2478.0	2478.0	2400.0	2400.0	2454.0	2454.0	2454.0	2415.0	2415.0	2416.0	2416.0	2416.0	2474.0	2474.0	2459.0	2459.0	2459.0	2447.0	2447.0	2447.0	2447.0	2447.0	2421.0	2421.0	2415.0	2415.0	2415.0	2418.0	2418.0	2457.0	2457.0	2457.0	2411.0	2411.0	2440.0	2440.0	2440.0	2385.0	2385.0	2413.0	2413.0	2413.0	2432.0	2432.0	2395.0	2395.0	2395.0	2365.0	2365.0	2392.0	2392.0	2392.0	2379.0	2379.0	2360.0	2360.0	2360.0	2371.0	2371.0	2382.0	2382.0	2382.0	2351.0	2351.0	2382.0	2382.0	2382.0	2380.0	2380.0	