2036.0	2036.0	2036.0	1983.0	1983.0	2015.0	2015.0	2015.0	1965.0	1965.0	1951.0	1951.0	1951.0	1951.0	1951.0	1961.0	1961.0	1961.0	1953.0	1953.0	1948.0	1948.0	1948.0	2000.0	2000.0	1975.0	1975.0	1955.0	1955.0	1955.0	1984.0	1984.0	1965.0	1965.0	1965.0	1948.0	1948.0	1935.0	1935.0	1935.0	1947.0	1947.0	1967.0	1967.0	1967.0	1948.0	1948.0	1945.0	1945.0	1945.0	1944.0	1944.0	1956.0	1956.0	1956.0	1930.0	1930.0	1908.0	1908.0	1908.0	1895.0	1895.0	1888.0	1888.0	1888.0	1897.0	1897.0	1887.0	1887.0	1887.0	1882.0	1882.0	1919.0	1919.0	1919.0	1886.0	1886.0	1900.0	1900.0	1900.0	1888.0	1888.0	1910.0	1910.0	1910.0	1864.0	1864.0	1861.0	1861.0	1861.0	1913.0	1913.0	1863.0	1863.0	1863.0	1905.0	1905.0	1870.0	1870.0	1870.0	1871.0	1871.0	1863.0	1863.0	1863.0	1847.0	1847.0	1904.0	1904.0	1904.0	1844.0	1844.0	1839.0	1839.0	1839.0	1885.0	1885.0	1858.0	1858.0	1858.0	1831.0	1831.0	1858.0	1858.0	1858.0	1851.0	1851.0	1822.0	1822.0	1822.0	1850.0	1850.0	1812.0	1812.0	1812.0	1860.0	1860.0	1837.0	1837.0	1837.0	1864.0	1864.0	1800.0	1800.0	1800.0	1829.0	1829.0	1848.0	1848.0	1848.0	1796.0	1796.0	1823.0	1823.0	1823.0	1837.0	1837.0	1831.0	1831.0	1831.0	1847.0	1847.0	1781.0	1781.0	1781.0	1781.0	1781.0	1778.0	1778.0	1778.0	1819.0	1819.0	1811.0	1811.0	1811.0	1804.0	1804.0	1823.0	1823.0	1823.0	1796.0	1796.0	1789.0	1789.0	1789.0	1807.0	1807.0	1792.0	1792.0	1792.0	1807.0	1807.0	1812.0	1812.0	1812.0	1783.0	1783.0	1760.0	1760.0	1760.0	1784.0	1784.0	1772.0	1772.0	1772.0	1772.0	1772.0	1766.0	1766.0	1766.0	1803.0	1803.0	1751.0	1751.0	1751.0	1738.0	1738.0	1767.0	1767.0	1767.0	1730.0	1730.0	1801.0	1801.0	1801.0	1734.0	1734.0	1773.0	1773.0	1759.0	1759.0	1759.0	1747.0	1747.0	1787.0	1787.0	1787.0	1789.0	1789.0	1771.0	1771.0	1771.0	1741.0	1741.0	1777.0	1777.0	1777.0	1759.0	1759.0	1773.0	1773.0	1773.0	1741.0	1741.0	1726.0	1726.0	1726.0	1724.0	1724.0	1743.0	1743.0	1743.0	1757.0	1757.0	1721.0	1721.0	1721.0	1751.0	1751.0	1731.0	1731.0	1731.0	1723.0	1723.0	1768.0	1768.0	1768.0	1748.0	1748.0	1731.0	1731.0	1731.0	1737.0	1737.0	1717.0	1717.0	1717.0	1767.0	1767.0	1766.0	1766.0	1766.0	1705.0	1705.0	1723.0	1723.0	1723.0	1750.0	1750.0	1761.0	1761.0	1761.0	1707.0	1707.0	1737.0	1737.0	1737.0	1755.0	1755.0	1708.0	1708.0	1708.0	1726.0	1726.0	1748.0	1748.0	1748.0	1708.0	1708.0	1743.0	1743.0	1743.0	1736.0	1736.0	1757.0	1757.0	1757.0	1715.0	1715.0	1753.0	1753.0	1753.0	1721.0	1721.0	1699.0	1699.0	1699.0	1714.0	1714.0	1728.0	1728.0	1728.0	1733.0	1733.0	1715.0	1715.0	1715.0	1747.0	1747.0	1695.0	1695.0	1695.0	1741.0	1741.0	1725.0	1725.0	1725.0	1699.0	1699.0	1730.0	1730.0	1730.0	1700.0	1700.0	1712.0	1712.0	1712.0	1698.0	1698.0	1743.0	1743.0	1743.0	1729.0	1729.0	1729.0	1729.0	1729.0	1740.0	1740.0	1691.0	1691.0	1691.0	1710.0	1710.0	1727.0	1727.0	1727.0	1677.0	1677.0	1735.0	1735.0	1735.0	1692.0	1692.0	1679.0	1679.0	1679.0	1691.0	1691.0	1715.0	1715.0	1715.0	1723.0	1723.0	1677.0	1677.0	1677.0	1682.0	1682.0	1727.0	1727.0	1727.0	1686.0	1686.0	1686.0	1686.0	1686.0	1702.0	1702.0	1711.0	1711.0	1711.0	1726.0	1726.0	1718.0	1718.0	1718.0	1680.0	1680.0	1681.0	1681.0	1681.0	1672.0	1672.0	1707.0	1707.0	1674.0	1674.0	1674.0	1673.0	1673.0	1709.0	1709.0	1709.0	1724.0	1724.0	1742.0	1742.0	1742.0	1686.0	1686.0	1697.0	1697.0	1697.0	1683.0	1683.0	1680.0	1680.0	1680.0	1716.0	1716.0	1708.0	1708.0	1708.0	1723.0	1723.0	1676.0	1676.0	1676.0	1720.0	1720.0	1682.0	1682.0	1682.0	1708.0	1708.0	1675.0	1675.0	1675.0	1719.0	1719.0	1742.0	1742.0	1742.0	1727.0	1727.0	1686.0	1686.0	1686.0	1720.0	1720.0	1720.0	1720.0	1720.0	1759.0	1759.0	1713.0	1713.0	1713.0	1770.0	1770.0	1778.0	1778.0	1778.0	1735.0	1735.0	1752.0	1752.0	1752.0	1805.0	1805.0	1773.0	1773.0	1773.0	1837.0	1837.0	1819.0	1819.0	1819.0	1817.0	1817.0	1852.0	1852.0	1852.0	1876.0	1876.0	1871.0	1871.0	1871.0	1909.0	1909.0	1926.0	1926.0	1926.0	1910.0	1910.0	1976.0	1976.0	1976.0	1994.0	1994.0	1953.0	1953.0	1953.0	1970.0	1970.0	1998.0	1998.0	1998.0	2038.0	2038.0	2037.0	2037.0	2037.0	2027.0	2027.0	2060.0	2060.0	2060.0	2070.0	2070.0	2070.0	2070.0	2070.0	2069.0	2069.0	2136.0	2136.0	2136.0	2152.0	2152.0	2169.0	2169.0	2169.0	2171.0	2171.0	2146.0	2146.0	2146.0	2164.0	2164.0	2202.0	2202.0	2202.0	2173.0	2173.0	2218.0	2218.0	2218.0	2251.0	2251.0	2236.0	2236.0	2236.0	2268.0	2268.0	2223.0	2223.0	2223.0	2251.0	2251.0	2230.0	2230.0	2230.0	2292.0	2292.0	2296.0	2296.0	2296.0	2310.0	2310.0	2319.0	2319.0	2319.0	2325.0	2325.0	2323.0	2323.0	2323.0	2332.0	2332.0	2330.0	2330.0	2330.0	2287.0	2287.0	2317.0	2317.0	2317.0	2324.0	2324.0	2355.0	2355.0	2355.0	2313.0	2313.0	2310.0	2310.0	2354.0	2354.0	2354.0	2337.0	2337.0	2351.0	2351.0	2351.0	2375.0	2375.0	2350.0	2350.0	2350.0	2387.0	2387.0	2358.0	2358.0	2358.0	2346.0	2346.0	2369.0	2369.0	2369.0	2328.0	2328.0	2352.0	2352.0	2352.0	2384.0	2384.0	2364.0	2364.0	2364.0	2392.0	2392.0	2346.0	2346.0	2346.0	2367.0	2367.0	2348.0	2348.0	2348.0	2371.0	2371.0	2335.0	2335.0	2335.0	2375.0	2375.0	2337.0	2337.0	2337.0	2361.0	2361.0	2341.0	2341.0	2341.0	2350.0	2350.0	2363.0	2363.0	2363.0	2387.0	2387.0	2372.0	2372.0	2372.0	2390.0	2390.0	2376.0	2376.0	2376.0	2386.0	2386.0	2339.0	2339.0	2339.0	2355.0	2355.0	2373.0	2373.0	2373.0	2329.0	2329.0	2329.0	2329.0	2329.0	2361.0	2361.0	2346.0	2346.0	2346.0	2361.0	2361.0	2346.0	2346.0	2346.0	2353.0	2353.0	2305.0	2305.0	2305.0	2321.0	2321.0	2311.0	2311.0	2311.0	2326.0	2326.0	2314.0	2314.0	2314.0	2313.0	2313.0	2287.0	2287.0	2287.0	2295.0	2295.0	2282.0	2282.0	2282.0	2260.0	2260.0	2241.0	2241.0	2241.0	2233.0	2233.0	2238.0	2238.0	2238.0	2271.0	2271.0	2219.0	2219.0	2219.0	2232.0	2232.0	2202.0	2202.0	2202.0	2197.0	2197.0	2220.0	2220.0	2220.0	2182.0	2182.0	2162.0	2162.0	2162.0	2174.0	2174.0	2178.0	2178.0	2178.0	2186.0	2186.0	2182.0	2182.0	2182.0	2178.0	2178.0	2154.0	2154.0	2154.0	2151.0	2151.0	2120.0	2120.0	2120.0	2122.0	2122.0	2099.0	2099.0	2099.0	2082.0	2082.0	2073.0	2073.0	2073.0	2068.0	2068.0	2069.0	2069.0	2069.0	2065.0	2065.0	2101.0	2101.0	2101.0	2105.0	2105.0	2067.0	2067.0	2067.0	2069.0	2069.0	2067.0	2067.0	2038.0	2038.0	2038.0	2046.0	2046.0	2016.0	2016.0	2016.0	2067.0	2067.0	2049.0	2049.0	2049.0	2060.0	2060.0	2044.0	2044.0	2044.0	2043.0	2043.0	1995.0	1995.0	1995.0	2036.0	2036.0	1986.0	1986.0	1986.0	2032.0	2032.0	1962.0	1962.0	1962.0	2017.0	2017.0	2025.0	2025.0	2025.0	1982.0	1982.0	1998.0	1998.0	1998.0	2002.0	2002.0	2002.0	2002.0	2002.0	1968.0	1968.0	1999.0	1999.0	1999.0	1962.0	1962.0	1970.0	1970.0	1970.0	1970.0	1970.0	1988.0	1988.0	1988.0	1983.0	1983.0	1968.0	1968.0	1968.0	1956.0	1956.0	1960.0	1960.0	1960.0	1968.0	1968.0	1913.0	1913.0	1913.0	1903.0	1903.0	1961.0	1961.0	1961.0	1917.0	1917.0	1942.0	1942.0	1942.0	1906.0	1906.0	1891.0	1891.0	1891.0	1944.0	1944.0	1929.0	1929.0	1929.0	1880.0	1880.0	1891.0	1891.0	1891.0	1871.0	1871.0	1880.0	1880.0	1880.0	1893.0	1893.0	1893.0	1893.0	1893.0	1914.0	1914.0	1899.0	1899.0	1899.0	1902.0	1902.0	1852.0	1852.0	1852.0	1866.0	1866.0	1845.0	1845.0	1845.0	1883.0	1883.0	1858.0	1858.0	1858.0	1857.0	1857.0	1840.0	1840.0	1840.0	1884.0	1884.0	1864.0	1864.0	1864.0	1836.0	1836.0	1872.0	1872.0	1872.0	1825.0	1825.0	1871.0	1871.0	1871.0	1819.0	1819.0	1855.0	1855.0	1855.0	1814.0	1814.0	1843.0	1843.0	1843.0	1795.0	1795.0	1798.0	1798.0	1798.0	1812.0	1812.0	1820.0	1820.0	1820.0	1826.0	1826.0	1826.0	1826.0	1826.0	1788.0	1788.0	1825.0	1825.0	1825.0	1837.0	1837.0	1824.0	1824.0	1824.0	1808.0	1808.0	1807.0	1807.0	1807.0	1790.0	1790.0	1798.0	1798.0	1798.0	1784.0	1784.0	1815.0	1815.0	1815.0	1802.0	1802.0	1765.0	1765.0	1776.0	1776.0	1776.0	1781.0	1781.0	1790.0	1790.0	1790.0	1811.0	1811.0	1805.0	1805.0	1805.0	1798.0	1798.0	1809.0	1809.0	1809.0	1810.0	1810.0	1766.0	1766.0	1766.0	1791.0	1791.0	1804.0	1804.0	1804.0	1796.0	1796.0	1765.0	1765.0	1765.0	1800.0	1800.0	1769.0	1769.0	1769.0	1779.0	1779.0	1748.0	1748.0	1748.0	1795.0	1795.0	1758.0	1758.0	1758.0	1731.0	1731.0	1755.0	1755.0	1755.0	1752.0	1752.0	1778.0	1778.0	1778.0	1744.0	1744.0	1774.0	1774.0	1774.0	1724.0	1724.0	1753.0	1753.0	1753.0	1776.0	1776.0	1764.0	1764.0	1764.0	1748.0	1748.0	1749.0	1749.0	1749.0	1711.0	1711.0	1770.0	1770.0	1770.0	1711.0	1711.0	1702.0	1702.0	1702.0	1750.0	1750.0	1748.0	1748.0	1748.0	1712.0	1712.0	1765.0	1765.0	1765.0	1733.0	1733.0	1713.0	1713.0	1713.0	1762.0	1762.0	1763.0	1763.0	1763.0	1694.0	1694.0	1755.0	1755.0	1755.0	1705.0	1705.0	1751.0	1751.0	1751.0	1688.0	1688.0	1736.0	1736.0	1736.0	1727.0	1727.0	1709.0	1709.0	1709.0	1724.0	1724.0	1685.0	1685.0	1685.0	1696.0	1696.0	1702.0	1702.0	1702.0	1710.0	1710.0	1696.0	1696.0	1696.0	1718.0	1718.0	1751.0	1751.0	1751.0	1685.0	1685.0	1724.0	1724.0	1724.0	1692.0	1692.0	1713.0	1713.0	1713.0	1702.0	1702.0	1715.0	1715.0	1715.0	1702.0	1702.0	1696.0	1696.0	1696.0	1691.0	1691.0	1703.0	1703.0	1703.0	1689.0	1689.0	1728.0	1728.0	1728.0	1720.0	1720.0	1720.0	1720.0	1720.0	1678.0	1678.0	1722.0	1722.0	1722.0	1715.0	1715.0	1685.0	1685.0	1685.0	1683.0	1683.0	1713.0	1713.0	1713.0	1727.0	1727.0	1712.0	1712.0	1711.0	1711.0	1711.0	1692.0	1692.0	1664.0	1664.0	1664.0	1674.0	1674.0	1699.0	1699.0	1699.0	1711.0	1711.0	1720.0	1720.0	1720.0	1693.0	1693.0	1705.0	1705.0	1705.0	1729.0	1729.0	1696.0	1696.0	1696.0	1675.0	1675.0	1730.0	1730.0	1730.0	1730.0	1730.0	1701.0	1701.0	1701.0	1729.0	1729.0	1671.0	1671.0	1671.0	1676.0	1676.0	1689.0	1689.0	1689.0	1689.0	1689.0	1689.0	1689.0	1689.0	1684.0	1684.0	1707.0	1707.0	1707.0	1663.0	1663.0	1721.0	1721.0	1721.0	1696.0	1696.0	1704.0	1704.0	1704.0	1706.0	1706.0	1715.0	1715.0	1715.0	1707.0	1707.0	1699.0	1699.0	1699.0	1721.0	1721.0	1695.0	1695.0	1695.0	1667.0	1667.0	1706.0	1706.0	1706.0	1665.0	1665.0	1670.0	1670.0	1670.0	1720.0	1720.0	1671.0	1671.0	1671.0	1659.0	1659.0	1671.0	1671.0	1671.0	1689.0	1689.0	1678.0	1678.0	1678.0	1718.0	1718.0	1691.0	1691.0	1691.0	1670.0	1670.0	1679.0	1679.0	1679.0	1683.0	1683.0	1710.0	1710.0	1710.0	1663.0	1663.0	1704.0	1704.0	1704.0	1666.0	1666.0	1671.0	1671.0	1671.0	1710.0	1710.0	1712.0	1712.0	1712.0	1680.0	1680.0	1708.0	1708.0	1708.0	1676.0	1676.0	1711.0	1711.0	1711.0	1673.0	1673.0	1676.0	1676.0	1676.0	1662.0	1662.0	1719.0	1719.0	1719.0	1679.0	1679.0	1675.0	1675.0	1675.0	1706.0	1706.0	1715.0	1715.0	1715.0	1689.0	1689.0	1688.0	1688.0	1688.0	1667.0	1667.0	1671.0	1671.0	1671.0	1704.0	1704.0	1674.0	1674.0	1674.0	1679.0	1679.0	1714.0	1714.0	1714.0	1746.0	1746.0	1706.0	1706.0	1706.0	1761.0	1761.0	1719.0	1719.0	1719.0	1751.0	1751.0	1779.0	1779.0	1779.0	1751.0	1751.0	1808.0	1808.0	1790.0	1790.0	1790.0	1812.0	1812.0	1841.0	1841.0	1841.0	1814.0	1814.0	1838.0	1838.0	1838.0	1899.0	1899.0	1889.0	1889.0	1889.0	1926.0	1926.0	1926.0	1926.0	1926.0	1959.0	1959.0	1941.0	1941.0	1941.0	1936.0	1936.0	1945.0	1945.0	1945.0	2025.0	2025.0	1972.0	1972.0	1972.0	2008.0	2008.0	2008.0	2008.0	2008.0	2056.0	2056.0	2072.0	2072.0	2072.0	2111.0	2111.0	2075.0	2075.0	2075.0	2138.0	2138.0	2137.0	2137.0	2137.0	2111.0	2111.0	2146.0	2146.0	2146.0	2192.0	2192.0	2143.0	2143.0	2143.0	2189.0	2189.0	2176.0	2176.0	2176.0	2172.0	2172.0	2189.0	2189.0	2189.0	2248.0	2248.0	2247.0	2247.0	2247.0	2244.0	2244.0	2219.0	2219.0	2219.0	2247.0	2247.0	2288.0	2288.0	2288.0	2260.0	2260.0	2302.0	2302.0	2302.0	2265.0	2265.0	2302.0	2302.0	2302.0	2319.0	2319.0	2311.0	2311.0	2311.0	2289.0	2289.0	2334.0	2334.0	2334.0	2332.0	2332.0	2311.0	2311.0	2311.0	2345.0	2345.0	2335.0	2335.0	2335.0	2372.0	2372.0	2331.0	2331.0	2331.0	2323.0	2323.0	2343.0	2343.0	2343.0	2350.0	2350.0	2377.0	2377.0	2377.0	2391.0	2391.0	2375.0	2375.0	2375.0	2335.0	2335.0	2383.0	2383.0	2383.0	2365.0	2365.0	2344.0	2344.0	2344.0	2371.0	2371.0	2385.0	2385.0	2385.0	2395.0	2395.0	2348.0	2348.0	2348.0	2400.0	2400.0	2414.0	2414.0	2414.0	2425.0	2425.0	2383.0	2383.0	2383.0	2365.0	2365.0	2403.0	2403.0	2403.0	2387.0	2387.0	2403.0	2403.0	2403.0	2417.0	2417.0	2388.0	2388.0	2388.0	2367.0	2367.0	2407.0	2407.0	2407.0	2414.0	2414.0	2414.0	2414.0	2414.0	2382.0	2382.0	2399.0	2399.0	2397.0	2397.0	2397.0	2369.0	2369.0	2353.0	2353.0	2353.0	2351.0	2351.0	2379.0	2379.0	2379.0	2374.0	2374.0	2389.0	2389.0	2389.0	2382.0	2382.0	2368.0	2368.0	2368.0	2351.0	2351.0	2350.0	2350.0	2350.0	2381.0	2381.0	2349.0	2349.0	2349.0	2340.0	2340.0	2365.0	2365.0	2365.0	2359.0	2359.0	2358.0	2358.0	2358.0	2351.0	2351.0	2347.0	2347.0	2347.0	2310.0	2310.0	2291.0	2291.0	2291.0	2304.0	2304.0	2266.0	2266.0	2266.0	2248.0	2248.0	2281.0	2281.0	2281.0	2281.0	2281.0	2237.0	2237.0	2237.0	2258.0	2258.0	2234.0	2234.0	2234.0	2235.0	2235.0	2245.0	2245.0	2245.0	2202.0	2202.0	2200.0	2200.0	2200.0	2212.0	2212.0	2174.0	2174.0	2174.0	2178.0	2178.0	2190.0	2190.0	2190.0	2182.0	2182.0	2177.0	2177.0	2177.0	2172.0	2172.0	2123.0	2123.0	2123.0	2172.0	2172.0	2164.0	2164.0	2164.0	2138.0	2138.0	2105.0	2105.0	2105.0	2158.0	2158.0	2091.0	2091.0	2091.0	2083.0	2083.0	2132.0	2132.0	2132.0	2072.0	2072.0	2069.0	2069.0	2069.0	2097.0	2097.0	2090.0	2090.0	2090.0	2071.0	2071.0	2097.0	2097.0	2097.0	2048.0	2048.0	2083.0	2083.0	2083.0	2052.0	2052.0	2086.0	2086.0	2086.0	2085.0	2085.0	2059.0	2059.0	2059.0	2056.0	2056.0	2022.0	2022.0	2022.0	2025.0	2025.0	2056.0	2056.0	2056.0	2031.0	2031.0	1993.0	1993.0	1993.0	2046.0	2046.0	1987.0	1987.0	1987.0	2035.0	2035.0	1977.0	1977.0	1977.0	2040.0	2040.0	2004.0	2004.0	2004.0	2022.0	2022.0	2011.0	2011.0	2011.0	2022.0	2022.0	2018.0	2018.0	2018.0	2001.0	2001.0	1999.0	1999.0	1999.0	1946.0	1946.0	1965.0	1965.0	1959.0	1959.0	1959.0	1963.0	1963.0	1967.0	1967.0	1967.0	1948.0	1948.0	1977.0	1977.0	1977.0	1919.0	1919.0	1949.0	1949.0	1949.0	1976.0	1976.0	1915.0	1915.0	1915.0	1948.0	1948.0	1928.0	1928.0	1928.0	1943.0	1943.0	1904.0	1904.0	1904.0	1916.0	1916.0	1897.0	1897.0	1897.0	1930.0	1930.0	1893.0	1893.0	1893.0	1897.0	1897.0	1912.0	1912.0	1912.0	1895.0	1895.0	1883.0	1883.0	1883.0	1923.0	1923.0	1878.0	1878.0	1878.0	1919.0	1919.0	1928.0	1928.0	1928.0	1899.0	1899.0	1861.0	1861.0	1861.0	1866.0	1866.0	1879.0	1879.0	1879.0	1871.0	1871.0	1869.0	1869.0	1869.0	1864.0	1864.0	1907.0	1907.0	1907.0	1869.0	1869.0	1848.0	1848.0	1848.0	1845.0	1845.0	1890.0	1890.0	1890.0	1856.0	1856.0	1841.0	1841.0	1841.0	1825.0	1825.0	1884.0	1884.0	1884.0	1833.0	1833.0	1862.0	1862.0	1862.0	1851.0	1851.0	1850.0	1850.0	1850.0	1806.0	1806.0	1858.0	1858.0	1858.0	1839.0	1839.0	1846.0	1846.0	1846.0	1832.0	1832.0	1822.0	1822.0	1822.0	1829.0	1829.0	1842.0	1842.0	1842.0	1833.0	1833.0	1831.0	1831.0	1831.0	1795.0	1795.0	1835.0	1835.0	1835.0	1795.0	1795.0	1786.0	1786.0	1786.0	1823.0	1823.0	1811.0	1811.0	1811.0	1807.0	1807.0	1822.0	1822.0	1822.0	1766.0	1766.0	1781.0	1781.0	1781.0	1808.0	1808.0	1773.0	1773.0	1773.0	1798.0	1798.0	1759.0	1759.0	1759.0	1771.0	1771.0	1822.0	1822.0	1822.0	1799.0	1799.0	1766.0	1766.0	1766.0	1811.0	1811.0	1800.0	1800.0	1800.0	1788.0	1788.0	1791.0	1791.0	1791.0	1796.0	1796.0	1752.0	1752.0	1752.0	1758.0	1758.0	1759.0	1759.0	1759.0	1773.0	1773.0	1794.0	1794.0	1797.0	1797.0	1797.0	1734.0	1734.0	1756.0	1756.0	1756.0	1787.0	1787.0	1762.0	1762.0	1762.0	1733.0	1733.0	1740.0	1740.0	1740.0	1744.0	1744.0	1731.0	1731.0	1731.0	1771.0	1771.0	1729.0	1729.0	1729.0	1783.0	1783.0	1722.0	1722.0	1722.0	