1992.0	1992.0	1965.0	1965.0	1965.0	2019.0	2019.0	2008.0	2008.0	2008.0	1958.0	1958.0	1957.0	1957.0	1957.0	1949.0	1949.0	2000.0	2000.0	2000.0	1942.0	1942.0	1986.0	1986.0	1986.0	1989.0	1989.0	1972.0	1972.0	1972.0	1932.0	1932.0	1980.0	1980.0	1980.0	1946.0	1946.0	1979.0	1979.0	1979.0	1962.0	1962.0	1947.0	1947.0	1947.0	1962.0	1962.0	1926.0	1926.0	1926.0	1911.0	1911.0	1935.0	1935.0	1935.0	1943.0	1943.0	1940.0	1940.0	1940.0	1936.0	1936.0	1934.0	1934.0	1934.0	1907.0	1907.0	1943.0	1943.0	1943.0	1903.0	1903.0	1891.0	1891.0	1891.0	1928.0	1928.0	1893.0	1893.0	1873.0	1873.0	1873.0	1916.0	1916.0	1931.0	1931.0	1931.0	1899.0	1899.0	1913.0	1913.0	1913.0	1900.0	1900.0	1891.0	1891.0	1891.0	1858.0	1858.0	1876.0	1876.0	1876.0	1881.0	1881.0	1888.0	1888.0	1888.0	1916.0	1916.0	1847.0	1847.0	1847.0	1899.0	1899.0	1900.0	1900.0	1900.0	1842.0	1842.0	1892.0	1892.0	1892.0	1853.0	1853.0	1853.0	1853.0	1853.0	1851.0	1851.0	1849.0	1849.0	1849.0	1879.0	1879.0	1860.0	1860.0	1860.0	1874.0	1874.0	1869.0	1869.0	1869.0	1851.0	1851.0	1828.0	1828.0	1828.0	1851.0	1851.0	1823.0	1823.0	1823.0	1815.0	1815.0	1838.0	1838.0	1838.0	1825.0	1825.0	1813.0	1813.0	1813.0	1824.0	1824.0	1858.0	1858.0	1858.0	1864.0	1864.0	1841.0	1841.0	1841.0	1852.0	1852.0	1813.0	1813.0	1813.0	1807.0	1807.0	1843.0	1843.0	1843.0	1860.0	1860.0	1798.0	1798.0	1798.0	1816.0	1816.0	1847.0	1847.0	1847.0	1791.0	1791.0	1801.0	1801.0	1801.0	1845.0	1845.0	1827.0	1827.0	1827.0	1845.0	1845.0	1789.0	1789.0	1789.0	1794.0	1794.0	1790.0	1790.0	1790.0	1839.0	1839.0	1835.0	1835.0	1835.0	1824.0	1824.0	1795.0	1795.0	1795.0	1813.0	1813.0	1768.0	1768.0	1768.0	1828.0	1828.0	1782.0	1782.0	1782.0	1827.0	1827.0	1798.0	1798.0	1798.0	1787.0	1787.0	1830.0	1830.0	1830.0	1808.0	1808.0	1792.0	1792.0	1792.0	1824.0	1824.0	1801.0	1801.0	1801.0	1777.0	1777.0	1771.0	1771.0	1771.0	1798.0	1798.0	1830.0	1830.0	1830.0	1777.0	1777.0	1795.0	1795.0	1795.0	1759.0	1759.0	1809.0	1809.0	1809.0	1788.0	1788.0	1819.0	1819.0	1819.0	1792.0	1792.0	1814.0	1814.0	1814.0	1754.0	1754.0	1766.0	1766.0	1812.0	1812.0	1812.0	1776.0	1776.0	1778.0	1778.0	1778.0	1783.0	1783.0	1791.0	1791.0	1791.0	1806.0	1806.0	1751.0	1751.0	1751.0	1787.0	1787.0	1786.0	1786.0	1786.0	1788.0	1788.0	1761.0	1761.0	1761.0	1759.0	1759.0	1781.0	1781.0	1781.0	1767.0	1767.0	1762.0	1762.0	1762.0	1779.0	1779.0	1755.0	1755.0	1755.0	1781.0	1781.0	1762.0	1762.0	1762.0	1759.0	1759.0	1816.0	1816.0	1816.0	1761.0	1761.0	1768.0	1768.0	1768.0	1773.0	1773.0	1805.0	1805.0	1805.0	1837.0	1837.0	1792.0	1792.0	1792.0	1821.0	1821.0	1786.0	1786.0	1786.0	1787.0	1787.0	1805.0	1805.0	1805.0	1807.0	1807.0	1851.0	1851.0	1851.0	1852.0	1852.0	1843.0	1843.0	1843.0	1882.0	1882.0	1933.0	1933.0	1933.0	1928.0	1928.0	1904.0	1904.0	1904.0	1920.0	1920.0	1980.0	1980.0	1980.0	1937.0	1937.0	1981.0	1981.0	1981.0	1949.0	1949.0	1976.0	1976.0	1976.0	2017.0	2017.0	1992.0	1992.0	1992.0	2015.0	2015.0	2025.0	2025.0	2025.0	2083.0	2083.0	2107.0	2107.0	2107.0	2105.0	2105.0	2130.0	2130.0	2130.0	2098.0	2098.0	2149.0	2149.0	2149.0	2120.0	2120.0	2167.0	2167.0	2167.0	2126.0	2126.0	2191.0	2191.0	2191.0	2146.0	2146.0	2163.0	2163.0	2163.0	2213.0	2213.0	2188.0	2188.0	2188.0	2207.0	2207.0	2256.0	2256.0	2256.0	2201.0	2201.0	2264.0	2264.0	2264.0	2273.0	2273.0	2264.0	2264.0	2264.0	2249.0	2249.0	2248.0	2248.0	2248.0	2307.0	2307.0	2297.0	2297.0	2297.0	2277.0	2277.0	2292.0	2292.0	2292.0	2267.0	2267.0	2314.0	2314.0	2314.0	2295.0	2295.0	2348.0	2348.0	2348.0	2296.0	2296.0	2299.0	2299.0	2306.0	2306.0	2306.0	2314.0	2314.0	2360.0	2360.0	2360.0	2324.0	2324.0	2317.0	2317.0	2317.0	2356.0	2356.0	2363.0	2363.0	2363.0	2377.0	2377.0	2386.0	2386.0	2386.0	2378.0	2378.0	2358.0	2358.0	2358.0	2345.0	2345.0	2394.0	2394.0	2394.0	2383.0	2383.0	2344.0	2344.0	2344.0	2385.0	2385.0	2392.0	2392.0	2392.0	2357.0	2357.0	2350.0	2350.0	2350.0	2354.0	2354.0	2362.0	2362.0	2362.0	2341.0	2341.0	2372.0	2372.0	2372.0	2393.0	2393.0	2382.0	2382.0	2382.0	2343.0	2343.0	2367.0	2367.0	2367.0	2384.0	2384.0	2359.0	2359.0	2359.0	2344.0	2344.0	2366.0	2366.0	2366.0	2377.0	2377.0	2378.0	2378.0	2378.0	2344.0	2344.0	2335.0	2335.0	2335.0	2340.0	2340.0	2344.0	2344.0	2344.0	2366.0	2366.0	2391.0	2391.0	2391.0	2355.0	2355.0	2377.0	2377.0	2377.0	2347.0	2347.0	2329.0	2329.0	2329.0	2367.0	2367.0	2351.0	2351.0	2351.0	2328.0	2328.0	2347.0	2347.0	2347.0	2326.0	2326.0	2342.0	2342.0	2342.0	2308.0	2308.0	2316.0	2316.0	2316.0	2352.0	2352.0	2329.0	2329.0	2329.0	2271.0	2271.0	2330.0	2330.0	2330.0	2302.0	2302.0	2295.0	2295.0	2295.0	2278.0	2278.0	2306.0	2306.0	2306.0	2272.0	2272.0	2222.0	2222.0	2222.0	2273.0	2273.0	2220.0	2220.0	2220.0	2207.0	2207.0	2216.0	2216.0	2216.0	2215.0	2215.0	2214.0	2214.0	2214.0	2174.0	2174.0	2188.0	2188.0	2188.0	2166.0	2166.0	2187.0	2187.0	2187.0	2186.0	2186.0	2186.0	2186.0	2186.0	2139.0	2139.0	2175.0	2175.0	2175.0	2178.0	2178.0	2122.0	2122.0	2122.0	2177.0	2177.0	2155.0	2155.0	2155.0	2099.0	2099.0	2108.0	2108.0	2108.0	2106.0	2106.0	2096.0	2096.0	2126.0	2126.0	2126.0	2130.0	2130.0	2105.0	2105.0	2105.0	2107.0	2107.0	2062.0	2062.0	2062.0	2113.0	2113.0	2054.0	2054.0	2054.0	2093.0	2093.0	2071.0	2071.0	2071.0	2056.0	2056.0	2094.0	2094.0	2094.0	2079.0	2079.0	2088.0	2088.0	2088.0	2057.0	2057.0	2082.0	2082.0	2082.0	2073.0	2073.0	2071.0	2071.0	2071.0	2066.0	2066.0	2051.0	2051.0	2051.0	2015.0	2015.0	2019.0	2019.0	2019.0	1996.0	1996.0	2006.0	2006.0	2006.0	2036.0	2036.0	2048.0	2048.0	2048.0	2020.0	2020.0	2029.0	2029.0	2029.0	2027.0	2027.0	2014.0	2014.0	2014.0	2034.0	2034.0	2014.0	2014.0	2014.0	2021.0	2021.0	2005.0	2005.0	2005.0	2022.0	2022.0	1959.0	1959.0	1959.0	1993.0	1993.0	1947.0	1947.0	1947.0	1955.0	1955.0	1938.0	1938.0	1938.0	1943.0	1943.0	1947.0	1947.0	1947.0	1984.0	1984.0	1944.0	1944.0	1944.0	1940.0	1940.0	1951.0	1951.0	1951.0	1981.0	1981.0	1932.0	1932.0	1932.0	1972.0	1972.0	1970.0	1970.0	1970.0	1922.0	1922.0	1975.0	1975.0	1975.0	1954.0	1954.0	1920.0	1920.0	1920.0	1947.0	1947.0	1966.0	1966.0	1966.0	1950.0	1950.0	1940.0	1940.0	1940.0	1951.0	1951.0	1943.0	1943.0	1943.0	1946.0	1946.0	1899.0	1899.0	1899.0	1897.0	1897.0	1892.0	1892.0	1892.0	1908.0	1908.0	1884.0	1884.0	1884.0	1893.0	1893.0	1871.0	1871.0	1871.0	1903.0	1903.0	1918.0	1918.0	1918.0	1884.0	1884.0	1872.0	1872.0	1872.0	1869.0	1869.0	1862.0	1862.0	1862.0	1862.0	1862.0	1916.0	1916.0	1916.0	1863.0	1863.0	1852.0	1852.0	1852.0	1863.0	1863.0	1857.0	1857.0	1857.0	1880.0	1880.0	1872.0	1872.0	1880.0	1880.0	1880.0	1862.0	1862.0	1864.0	1864.0	1864.0	1855.0	1855.0	1839.0	1839.0	1839.0	1848.0	1848.0	1861.0	1861.0	1861.0	1880.0	1880.0	1875.0	1875.0	1875.0	1837.0	1837.0	1853.0	1853.0	1853.0	1858.0	1858.0	1807.0	1807.0	1807.0	1809.0	1809.0	1857.0	1857.0	1857.0	1804.0	1804.0	1818.0	1818.0	1818.0	1845.0	1845.0	1796.0	1796.0	1796.0	1799.0	1799.0	1817.0	1817.0	1817.0	1801.0	1801.0	1815.0	1815.0	1815.0	1792.0	1792.0	1849.0	1849.0	1849.0	1827.0	1827.0	1797.0	1797.0	1797.0	1838.0	1838.0	1826.0	1826.0	1826.0	1814.0	1814.0	1833.0	1833.0	1833.0	1816.0	1816.0	1833.0	1833.0	1833.0	1794.0	1794.0	1797.0	1797.0	1797.0	1788.0	1788.0	1787.0	1787.0	1787.0	1779.0	1779.0	1780.0	1780.0	1780.0	1784.0	1784.0	1780.0	1780.0	1780.0	1773.0	1773.0	1783.0	1783.0	1783.0	1799.0	1799.0	1829.0	1829.0	1829.0	1828.0	1828.0	1775.0	1775.0	1775.0	1767.0	1767.0	1795.0	1795.0	1795.0	1784.0	1784.0	1780.0	1780.0	1780.0	1810.0	1810.0	1782.0	1782.0	1782.0	1812.0	1812.0	1788.0	1788.0	1788.0	1753.0	1753.0	1755.0	1755.0	1755.0	1769.0	1769.0	1788.0	1788.0	1788.0	1774.0	1774.0	1798.0	1798.0	1798.0	1813.0	1813.0	1783.0	1783.0	1783.0	1750.0	1750.0	1806.0	1806.0	1806.0	1791.0	1791.0	1751.0	1751.0	1751.0	1767.0	1767.0	1799.0	1799.0	1799.0	1795.0	1795.0	1762.0	1762.0	1762.0	1810.0	1810.0	1744.0	1744.0	1744.0	1749.0	1749.0	1752.0	1752.0	1752.0	1762.0	1762.0	1799.0	1799.0	1799.0	1751.0	1751.0	1757.0	1757.0	1757.0	1743.0	1743.0	1775.0	1775.0	1800.0	1800.0	1800.0	1774.0	1774.0	1800.0	1800.0	1800.0	1750.0	1750.0	1800.0	1800.0	1800.0	1776.0	1776.0	1740.0	1740.0	1740.0	1785.0	1785.0	1794.0	1794.0	1794.0	1748.0	1748.0	1795.0	1795.0	1795.0	1742.0	1742.0	1736.0	1736.0	1736.0	1770.0	1770.0	1756.0	1756.0	1756.0	1793.0	1793.0	1776.0	1776.0	1776.0	1748.0	1748.0	1748.0	1748.0	1748.0	1763.0	1763.0	1790.0	1790.0	1790.0	1771.0	1771.0	1795.0	1795.0	1795.0	1748.0	1748.0	1771.0	1771.0	1771.0	1776.0	1776.0	1778.0	1778.0	1778.0	1755.0	1755.0	1787.0	1787.0	1787.0	1753.0	1753.0	1756.0	1756.0	1756.0	1799.0	1799.0	1730.0	1730.0	1730.0	1779.0	1779.0	1789.0	1789.0	1789.0	1803.0	1803.0	1743.0	1743.0	1743.0	1789.0	1789.0	1792.0	1792.0	1792.0	1792.0	1792.0	1788.0	1788.0	1788.0	1740.0	1740.0	1757.0	1757.0	1757.0	1741.0	1741.0	1751.0	1751.0	1751.0	1785.0	1785.0	1795.0	1795.0	1795.0	1795.0	1795.0	1731.0	1731.0	1731.0	1728.0	1728.0	1787.0	1787.0	1787.0	1787.0	1787.0	1738.0	1738.0	1738.0	1784.0	1784.0	1732.0	1732.0	1732.0	1756.0	1756.0	1741.0	1741.0	1741.0	1750.0	1750.0	1798.0	1798.0	1798.0	1775.0	1775.0	1743.0	1743.0	1743.0	1795.0	1795.0	1729.0	1729.0	1729.0	1783.0	1783.0	1748.0	1748.0	1748.0	1773.0	1773.0	1773.0	1773.0	1773.0	1797.0	1797.0	1763.0	1763.0	1763.0	1758.0	1758.0	1784.0	1784.0	1784.0	1762.0	1762.0	1742.0	1742.0	1742.0	1748.0	1748.0	1745.0	1745.0	1745.0	1766.0	1766.0	1757.0	1757.0	1757.0	1797.0	1797.0	1773.0	1773.0	1773.0	1760.0	1760.0	1739.0	1739.0	1739.0	1752.0	1752.0	1772.0	1772.0	1786.0	1786.0	1786.0	1770.0	1770.0	1761.0	1761.0	1761.0	1787.0	1787.0	1750.0	1750.0	1750.0	1795.0	1795.0	1802.0	1802.0	1802.0	1777.0	1777.0	1751.0	1751.0	1751.0	1751.0	1751.0	1785.0	1785.0	1785.0	1787.0	1787.0	1747.0	1747.0	1747.0	1785.0	1785.0	1775.0	1775.0	1775.0	1800.0	1800.0	1780.0	1780.0	1780.0	1798.0	1798.0	1772.0	1772.0	1772.0	1744.0	1744.0	1799.0	1799.0	1799.0	1740.0	1740.0	1747.0	1747.0	1747.0	1786.0	1786.0	1790.0	1790.0	1790.0	1799.0	1799.0	1766.0	1766.0	1766.0	1786.0	1786.0	1735.0	1735.0	1735.0	1741.0	1741.0	1758.0	1758.0	1758.0	1798.0	1798.0	1792.0	1792.0	1792.0	1798.0	1798.0	1778.0	1778.0	1778.0	1741.0	1741.0	1779.0	1779.0	1779.0	1778.0	1778.0	1767.0	1767.0	1767.0	1767.0	1767.0	1743.0	1743.0	1743.0	1758.0	1758.0	1774.0	1774.0	1774.0	1804.0	1804.0	1788.0	1788.0	1788.0	1751.0	1751.0	1773.0	1773.0	1773.0	1744.0	1744.0	1764.0	1764.0	1764.0	1746.0	1746.0	1782.0	1782.0	1782.0	1764.0	1764.0	1806.0	1806.0	1806.0	1777.0	1777.0	1768.0	1768.0	1768.0	1816.0	1816.0	1783.0	1783.0	1783.0	1801.0	1801.0	1788.0	1788.0	1788.0	1837.0	1837.0	1825.0	1825.0	1825.0	1814.0	1814.0	1878.0	1878.0	1878.0	1842.0	1842.0	1873.0	1873.0	1873.0	1904.0	1904.0	1942.0	1942.0	1942.0	1936.0	1936.0	1957.0	1957.0	1957.0	1954.0	1954.0	1939.0	1939.0	1939.0	1959.0	1959.0	1975.0	1975.0	1975.0	2037.0	2037.0	2063.0	2063.0	2063.0	2011.0	2011.0	2076.0	2076.0	2076.0	2057.0	2057.0	2098.0	2098.0	2098.0	2123.0	2123.0	2097.0	2097.0	2104.0	2104.0	2104.0	2166.0	2166.0	2157.0	2157.0	2157.0	2163.0	2163.0	2196.0	2196.0	2196.0	2217.0	2217.0	2178.0	2178.0	2178.0	2227.0	2227.0	2218.0	2218.0	2218.0	2249.0	2249.0	2260.0	2260.0	2260.0	2240.0	2240.0	2257.0	2257.0	2257.0	2309.0	2309.0	2284.0	2284.0	2284.0	2298.0	2298.0	2278.0	2278.0	2278.0	2321.0	2321.0	2354.0	2354.0	2354.0	2317.0	2317.0	2377.0	2377.0	2377.0	2315.0	2315.0	2325.0	2325.0	2325.0	2352.0	2352.0	2383.0	2383.0	2383.0	2400.0	2400.0	2403.0	2403.0	2403.0	2362.0	2362.0	2386.0	2386.0	2386.0	2387.0	2387.0	2440.0	2440.0	2440.0	2420.0	2420.0	2448.0	2448.0	2448.0	2457.0	2457.0	2426.0	2426.0	2426.0	2434.0	2434.0	2421.0	2421.0	2421.0	2459.0	2459.0	2453.0	2453.0	2453.0	2405.0	2405.0	2430.0	2430.0	2430.0	2438.0	2438.0	2478.0	2478.0	2478.0	2464.0	2464.0	2469.0	2469.0	2469.0	2461.0	2461.0	2484.0	2484.0	2484.0	2430.0	2430.0	2488.0	2488.0	2488.0	2429.0	2429.0	2445.0	2445.0	2445.0	2488.0	2488.0	2482.0	2482.0	2482.0	2507.0	2507.0	2469.0	2469.0	2469.0	2472.0	2472.0	2458.0	2458.0	2458.0	2463.0	2463.0	2468.0	2468.0	2468.0	2464.0	2464.0	2485.0	2485.0	2485.0	2452.0	2452.0	2473.0	2473.0	2473.0	2462.0	2462.0	2459.0	2459.0	2459.0	2417.0	2417.0	2457.0	2457.0	2457.0	2408.0	2408.0	2458.0	2458.0	2458.0	2419.0	2419.0	2420.0	2420.0	2420.0	2425.0	2425.0	2424.0	2424.0	2424.0	2398.0	2398.0	2362.0	2362.0	2362.0	2359.0	2359.0	2399.0	2399.0	2399.0	2402.0	2402.0	2394.0	2394.0	2394.0	2380.0	2380.0	2340.0	2340.0	2319.0	2319.0	2319.0	2338.0	2338.0	2333.0	2333.0	2333.0	2326.0	2326.0	2300.0	2300.0	2300.0	2309.0	2309.0	2288.0	2288.0	2288.0	2279.0	2279.0	2281.0	2281.0	2281.0	2294.0	2294.0	2291.0	2291.0	2291.0	2279.0	2279.0	2264.0	2264.0	2264.0	2294.0	2294.0	2232.0	2232.0	2232.0	2224.0	2224.0	2280.0	2280.0	2280.0	2262.0	2262.0	2262.0	2262.0	2262.0	2270.0	2270.0	2204.0	2204.0	2204.0	2248.0	2248.0	2204.0	2204.0	2204.0	2256.0	2256.0	2232.0	2232.0	2232.0	2195.0	2195.0	2195.0	2195.0	2195.0	2223.0	2223.0	2215.0	2215.0	2215.0	2164.0	2164.0	2223.0	2223.0	2223.0	2214.0	2214.0	2167.0	2167.0	2167.0	2206.0	2206.0	2155.0	2155.0	2155.0	2149.0	2149.0	2203.0	2203.0	2203.0	2182.0	2182.0	2134.0	2134.0	2134.0	2179.0	2179.0	2118.0	2118.0	2118.0	2130.0	2130.0	2161.0	2161.0	2161.0	2145.0	2145.0	2137.0	2137.0	2137.0	2161.0	2161.0	2158.0	2158.0	2158.0	2104.0	2104.0	2158.0	2158.0	2158.0	2118.0	2118.0	2125.0	2125.0	2125.0	2133.0	2133.0	2102.0	2102.0	2102.0	2138.0	2138.0	2103.0	2103.0	2103.0	2069.0	2069.0	2071.0	2071.0	2071.0	2061.0	2061.0	2125.0	2125.0	2125.0	2092.0	2092.0	2041.0	2041.0	2041.0	2106.0	2106.0	2094.0	2094.0	2094.0	2062.0	2062.0	2051.0	2051.0	2051.0	2085.0	2085.0	2062.0	2062.0	2062.0	2047.0	2047.0	2039.0	2039.0	2039.0	2087.0	2087.0	2076.0	2076.0	2076.0	2028.0	2028.0	2008.0	2008.0	2008.0	2046.0	2046.0	2047.0	2047.0	2047.0	2015.0	2015.0	2036.0	2036.0	2036.0	2048.0	2048.0	2020.0	2020.0	2020.0	1999.0	1999.0	2048.0	2048.0	2048.0	1982.0	1982.0	1984.0	1984.0	2027.0	2027.0	2027.0	1998.0	1998.0	2006.0	2006.0	2006.0	1987.0	1987.0	2000.0	2000.0	2000.0	2023.0	2023.0	1963.0	1963.0	1963.0	1993.0	1993.0	2008.0	2008.0	2008.0	1992.0	1992.0	1942.0	1942.0	1942.0	1964.0	1964.0	2001.0	2001.0	2001.0	1954.0	1954.0	1934.0	1934.0	1934.0	1950.0	1950.0	1989.0	1989.0	1989.0	1978.0	1978.0	1926.0	1926.0	1926.0	1978.0	1978.0	1977.0	1977.0	1977.0	1970.0	1970.0	1933.0	1933.0	1933.0	1972.0	1972.0	1929.0	1929.0	1929.0	1911.0	1911.0	1915.0	1915.0	1915.0	1938.0	1938.0	1900.0	1900.0	1900.0	1931.0	1931.0	1904.0	1904.0	1904.0	1914.0	1914.0	1929.0	1929.0	1929.0	1907.0	1907.0	1931.0	1931.0	1931.0	1917.0	1917.0	1912.0	1912.0	1912.0	1904.0	1904.0	1912.0	1912.0	1912.0	1883.0	1883.0	1922.0	1922.0	1922.0	1939.0	1939.0	1928.0	1928.0	1928.0	1937.0	1937.0	1878.0	1878.0	1878.0	1910.0	1910.0	1916.0	1916.0	1916.0	1895.0	1895.0	1881.0	1881.0	1881.0	1859.0	1859.0	1910.0	1910.0	1910.0	1884.0	1884.0	1862.0	1862.0	1862.0	1909.0	1909.0	1912.0	1912.0	1912.0	1862.0	1862.0	1891.0	1891.0	1891.0	1880.0	1880.0	1862.0	1862.0	1862.0	1853.0	1853.0	1903.0	1903.0	1903.0	1901.0	1901.0	1900.0	1900.0	1900.0	1895.0	1895.0	1881.0	1881.0	1881.0	1873.0	1873.0	1879.0	1879.0	1879.0	1891.0	1891.0	1883.0	1883.0	1883.0	1837.0	1837.0	1891.0	1891.0	1891.0	1857.0	1857.0	1870.0	1870.0	1870.0	