1935.0	1989.0	1989.0	1989.0	1993.0	1993.0	1948.0	1948.0	1948.0	1993.0	1993.0	1948.0	1948.0	1948.0	1932.0	1932.0	1982.0	1982.0	1982.0	1980.0	1980.0	1997.0	1997.0	1997.0	1975.0	1975.0	1963.0	1963.0	1963.0	1992.0	1992.0	1956.0	1956.0	1956.0	1938.0	1938.0	1918.0	1918.0	1918.0	1990.0	1990.0	1981.0	1981.0	1981.0	1938.0	1938.0	1974.0	1974.0	1974.0	1986.0	1986.0	1914.0	1914.0	1914.0	1913.0	1913.0	1974.0	1974.0	1974.0	1911.0	1911.0	1944.0	1944.0	1944.0	1972.0	1972.0	1915.0	1915.0	1915.0	1951.0	1951.0	1936.0	1936.0	1936.0	1966.0	1966.0	1902.0	1902.0	1902.0	1937.0	1937.0	1932.0	1932.0	1932.0	1912.0	1912.0	1907.0	1907.0	1907.0	1958.0	1958.0	1955.0	1955.0	1955.0	1897.0	1897.0	1930.0	1930.0	1930.0	1968.0	1968.0	1949.0	1949.0	1949.0	1931.0	1931.0	1889.0	1889.0	1889.0	1940.0	1940.0	1913.0	1913.0	1913.0	1899.0	1899.0	1894.0	1894.0	1894.0	1918.0	1918.0	1891.0	1891.0	1891.0	1890.0	1890.0	1925.0	1925.0	1925.0	1902.0	1902.0	1936.0	1936.0	1936.0	1886.0	1886.0	1890.0	1890.0	1890.0	1947.0	1947.0	1970.0	1970.0	1970.0	1930.0	1930.0	1902.0	1902.0	1902.0	1911.0	1911.0	1951.0	1951.0	1951.0	1998.0	1998.0	1998.0	1998.0	1998.0	2008.0	2008.0	2011.0	2011.0	2011.0	2016.0	2016.0	2063.0	2063.0	2063.0	2080.0	2080.0	2075.0	2075.0	2075.0	2103.0	2103.0	2074.0	2074.0	2074.0	2081.0	2081.0	2095.0	2095.0	2095.0	2164.0	2164.0	2137.0	2137.0	2137.0	2194.0	2194.0	2230.0	2230.0	2226.0	2226.0	2226.0	2271.0	2271.0	2253.0	2253.0	2253.0	2250.0	2250.0	2244.0	2244.0	2244.0	2327.0	2327.0	2280.0	2280.0	2280.0	2308.0	2308.0	2347.0	2347.0	2347.0	2329.0	2329.0	2342.0	2342.0	2342.0	2360.0	2360.0	2384.0	2384.0	2384.0	2415.0	2415.0	2352.0	2352.0	2352.0	2405.0	2405.0	2405.0	2405.0	2405.0	2381.0	2381.0	2395.0	2395.0	2395.0	2400.0	2400.0	2464.0	2464.0	2464.0	2470.0	2470.0	2447.0	2447.0	2447.0	2461.0	2461.0	2438.0	2438.0	2438.0	2508.0	2508.0	2454.0	2454.0	2454.0	2501.0	2501.0	2476.0	2476.0	2476.0	2516.0	2516.0	2494.0	2494.0	2494.0	2501.0	2501.0	2536.0	2536.0	2536.0	2498.0	2498.0	2502.0	2502.0	2502.0	2476.0	2476.0	2511.0	2511.0	2511.0	2532.0	2532.0	2490.0	2490.0	2490.0	2502.0	2502.0	2489.0	2489.0	2489.0	2571.0	2571.0	2512.0	2512.0	2512.0	2545.0	2545.0	2538.0	2538.0	2538.0	2533.0	2533.0	2498.0	2498.0	2498.0	2558.0	2558.0	2565.0	2565.0	2565.0	2532.0	2532.0	2550.0	2550.0	2550.0	2505.0	2505.0	2559.0	2559.0	2559.0	2552.0	2552.0	2523.0	2523.0	2523.0	2520.0	2520.0	2535.0	2535.0	2535.0	2495.0	2495.0	2544.0	2544.0	2544.0	2551.0	2551.0	2491.0	2491.0	2491.0	2514.0	2514.0	2508.0	2508.0	2508.0	2531.0	2531.0	2498.0	2498.0	2498.0	2502.0	2502.0	2502.0	2502.0	2502.0	2448.0	2448.0	2478.0	2478.0	2478.0	2453.0	2453.0	2497.0	2497.0	2497.0	2488.0	2488.0	2469.0	2469.0	2469.0	2437.0	2437.0	2469.0	2469.0	2469.0	2463.0	2463.0	2478.0	2478.0	2478.0	2421.0	2421.0	2415.0	2415.0	2415.0	2430.0	2430.0	2415.0	2415.0	2434.0	2434.0	2434.0	2454.0	2454.0	2386.0	2386.0	2386.0	2401.0	2401.0	2403.0	2403.0	2403.0	2379.0	2379.0	2367.0	2367.0	2367.0	2412.0	2412.0	2419.0	2419.0	2419.0	2339.0	2339.0	2368.0	2368.0	2368.0	2363.0	2363.0	2376.0	2376.0	2376.0	2369.0	2369.0	2377.0	2377.0	2377.0	2360.0	2360.0	2328.0	2328.0	2328.0	2305.0	2305.0	2299.0	2299.0	2299.0	2317.0	2317.0	2271.0	2271.0	2271.0	2267.0	2267.0	2257.0	2257.0	2257.0	2306.0	2306.0	2240.0	2240.0	2240.0	2245.0	2245.0	2242.0	2242.0	2242.0	2222.0	2222.0	2249.0	2249.0	2249.0	2233.0	2233.0	2253.0	2253.0	2253.0	2212.0	2212.0	2235.0	2235.0	2235.0	2229.0	2229.0	2216.0	2216.0	2216.0	2230.0	2230.0	2215.0	2215.0	2215.0	2195.0	2195.0	2200.0	2200.0	2200.0	2186.0	2186.0	2183.0	2183.0	2183.0	2191.0	2191.0	2184.0	2184.0	2184.0	2183.0	2183.0	2234.0	2234.0	2234.0	2179.0	2179.0	2165.0	2165.0	2165.0	2198.0	2198.0	2214.0	2214.0	2214.0	2157.0	2157.0	2148.0	2148.0	2148.0	2175.0	2175.0	2185.0	2185.0	2185.0	2143.0	2143.0	2196.0	2196.0	2196.0	2140.0	2140.0	2186.0	2186.0	2186.0	2191.0	2191.0	2162.0	2162.0	2162.0	2137.0	2137.0	2182.0	2182.0	2182.0	2142.0	2142.0	2170.0	2170.0	2170.0	2173.0	2173.0	2110.0	2110.0	2110.0	2178.0	2178.0	2119.0	2119.0	2119.0	2103.0	2103.0	2123.0	2123.0	2123.0	2157.0	2157.0	2117.0	2117.0	2117.0	2103.0	2103.0	2151.0	2151.0	2151.0	2137.0	2137.0	2107.0	2107.0	2107.0	2133.0	2133.0	2125.0	2125.0	2125.0	2131.0	2131.0	2136.0	2136.0	2136.0	2081.0	2081.0	2111.0	2111.0	2073.0	2073.0	2073.0	2070.0	2070.0	2100.0	2100.0	2100.0	2068.0	2068.0	2119.0	2119.0	2119.0	2129.0	2129.0	2060.0	2060.0	2060.0	2114.0	2114.0	2131.0	2131.0	2131.0	2109.0	2109.0	2048.0	2048.0	2048.0	2114.0	2114.0	2096.0	2096.0	2096.0	2079.0	2079.0	2050.0	2050.0	2050.0	2112.0	2112.0	2089.0	2089.0	2089.0	2085.0	2085.0	2071.0	2071.0	2071.0	2103.0	2103.0	2043.0	2043.0	2043.0	2073.0	2073.0	2094.0	2094.0	2094.0	2079.0	2079.0	2024.0	2024.0	2024.0	2026.0	2026.0	2072.0	2072.0	2072.0	2025.0	2025.0	2059.0	2059.0	2059.0	2079.0	2079.0	2025.0	2025.0	2025.0	2073.0	2073.0	2018.0	2018.0	2018.0	2012.0	2012.0	2051.0	2051.0	2051.0	2076.0	2076.0	2036.0	2036.0	2036.0	2025.0	2025.0	1998.0	1998.0	1998.0	2034.0	2034.0	1997.0	1997.0	1997.0	2018.0	2018.0	2009.0	2009.0	2009.0	2035.0	2035.0	1996.0	1996.0	1996.0	1981.0	1981.0	2006.0	2006.0	2006.0	2016.0	2016.0	1971.0	1971.0	1971.0	1959.0	1959.0	2009.0	2009.0	2009.0	2030.0	2030.0	2020.0	2020.0	2020.0	2010.0	2010.0	2016.0	2016.0	2016.0	2013.0	2013.0	1957.0	1957.0	1957.0	2003.0	2003.0	1988.0	1988.0	1988.0	2007.0	2007.0	1991.0	1991.0	1991.0	1977.0	1977.0	2007.0	2007.0	2007.0	1981.0	1981.0	1999.0	1999.0	1999.0	1947.0	1947.0	1950.0	1950.0	1950.0	2003.0	2003.0	1980.0	1980.0	1980.0	1953.0	1953.0	1959.0	1959.0	1959.0	1958.0	1958.0	1992.0	1992.0	1992.0	1961.0	1961.0	1931.0	1931.0	1931.0	1969.0	1969.0	1992.0	1992.0	1992.0	1930.0	1930.0	1927.0	1927.0	1927.0	2002.0	2002.0	1925.0	1925.0	1925.0	1968.0	1968.0	1927.0	1927.0	1988.0	1988.0	1988.0	1995.0	1995.0	1978.0	1978.0	1978.0	1923.0	1923.0	1968.0	1968.0	1968.0	1928.0	1928.0	1994.0	1994.0	1994.0	1992.0	1992.0	1953.0	1953.0	1953.0	1930.0	1930.0	1925.0	1925.0	1925.0	1981.0	1981.0	1971.0	1971.0	1971.0	1937.0	1937.0	1970.0	1970.0	1970.0	1996.0	1996.0	1929.0	1929.0	1929.0	1945.0	1945.0	1918.0	1918.0	1918.0	1912.0	1912.0	1961.0	1961.0	1961.0	1977.0	1977.0	1907.0	1907.0	1907.0	1911.0	1911.0	1965.0	1965.0	1965.0	1940.0	1940.0	1974.0	1974.0	1974.0	1915.0	1915.0	1966.0	1966.0	1966.0	1953.0	1953.0	1964.0	1964.0	1964.0	1901.0	1901.0	1936.0	1936.0	1936.0	1930.0	1930.0	1936.0	1936.0	1936.0	1912.0	1912.0	1955.0	1955.0	1955.0	1907.0	1907.0	1945.0	1945.0	1945.0	1898.0	1898.0	1912.0	1912.0	1912.0	1954.0	1954.0	1920.0	1920.0	1920.0	1932.0	1932.0	1961.0	1961.0	1961.0	1913.0	1913.0	1955.0	1955.0	1955.0	1943.0	1943.0	1925.0	1925.0	1925.0	1984.0	1984.0	1997.0	1997.0	1997.0	2014.0	2014.0	1988.0	1988.0	1988.0	2004.0	2004.0	2054.0	2054.0	2054.0	2010.0	2010.0	2069.0	2069.0	2069.0	2074.0	2074.0	2104.0	2104.0	2104.0	2070.0	2070.0	2121.0	2121.0	2121.0	2115.0	2115.0	2135.0	2135.0	2135.0	2163.0	2163.0	2179.0	2179.0	2179.0	2206.0	2206.0	2231.0	2231.0	2231.0	2225.0	2225.0	2222.0	2222.0	2222.0	2217.0	2217.0	2267.0	2267.0	2267.0	2283.0	2283.0	2297.0	2297.0	2297.0	2327.0	2327.0	2338.0	2338.0	2338.0	2304.0	2304.0	2354.0	2354.0	2354.0	2365.0	2365.0	2362.0	2362.0	2362.0	2337.0	2337.0	2393.0	2393.0	2407.0	2407.0	2407.0	2376.0	2376.0	2382.0	2382.0	2382.0	2392.0	2392.0	2396.0	2396.0	2396.0	2427.0	2427.0	2460.0	2460.0	2460.0	2417.0	2417.0	2429.0	2429.0	2429.0	2411.0	2411.0	2480.0	2480.0	2480.0	2452.0	2452.0	2467.0	2467.0	2467.0	2483.0	2483.0	2451.0	2451.0	2451.0	2453.0	2453.0	2522.0	2522.0	2522.0	2456.0	2456.0	2460.0	2460.0	2460.0	2467.0	2467.0	2512.0	2512.0	2512.0	2471.0	2471.0	2484.0	2484.0	2484.0	2526.0	2526.0	2510.0	2510.0	2510.0	2510.0	2510.0	2498.0	2498.0	2498.0	2530.0	2530.0	2510.0	2510.0	2510.0	2473.0	2473.0	2494.0	2494.0	2494.0	2531.0	2531.0	2466.0	2466.0	2466.0	2487.0	2487.0	2484.0	2484.0	2484.0	2518.0	2518.0	2486.0	2486.0	2486.0	2494.0	2494.0	2479.0	2479.0	2479.0	2458.0	2458.0	2451.0	2451.0	2451.0	2491.0	2491.0	2456.0	2456.0	2456.0	2472.0	2472.0	2427.0	2427.0	2427.0	2427.0	2427.0	2479.0	2479.0	2479.0	2421.0	2421.0	2409.0	2409.0	2409.0	2418.0	2418.0	2442.0	2442.0	2442.0	2448.0	2448.0	2460.0	2460.0	2460.0	2387.0	2387.0	2419.0	2419.0	2419.0	2444.0	2444.0	2432.0	2432.0	2432.0	2371.0	2371.0	2435.0	2435.0	2435.0	2399.0	2399.0	2384.0	2384.0	2384.0	2420.0	2420.0	2369.0	2369.0	2369.0	2401.0	2401.0	2390.0	2390.0	2390.0	2381.0	2381.0	2342.0	2342.0	2342.0	2333.0	2333.0	2322.0	2322.0	2322.0	2313.0	2313.0	2328.0	2328.0	2328.0	2287.0	2287.0	2282.0	2282.0	2282.0	2280.0	2280.0	2318.0	2318.0	2318.0	2319.0	2319.0	2317.0	2317.0	2317.0	2297.0	2297.0	2257.0	2257.0	2257.0	2284.0	2284.0	2297.0	2297.0	2223.0	2223.0	2223.0	2256.0	2256.0	2213.0	2213.0	2213.0	2265.0	2265.0	2206.0	2206.0	2206.0	2247.0	2247.0	2218.0	2218.0	2218.0	2242.0	2242.0	2175.0	2175.0	2175.0	2186.0	2186.0	2164.0	2164.0	2164.0	2198.0	2198.0	2201.0	2201.0	2201.0	2127.0	2127.0	2160.0	2160.0	2160.0	2179.0	2179.0	2106.0	2106.0	2106.0	2131.0	2131.0	2131.0	2131.0	2131.0	2166.0	2166.0	2136.0	2136.0	2136.0	2089.0	2089.0	2165.0	2165.0	2165.0	2139.0	2139.0	2111.0	2111.0	2111.0	2085.0	2085.0	2109.0	2109.0	2109.0	2079.0	2079.0	2075.0	2075.0	2075.0	2094.0	2094.0	2130.0	2130.0	2130.0	2059.0	2059.0	2102.0	2102.0	2102.0	2048.0	2048.0	2060.0	2060.0	2060.0	2098.0	2098.0	2076.0	2076.0	2076.0	2084.0	2084.0	2086.0	2086.0	2086.0	2099.0	2099.0	2067.0	2067.0	2067.0	2047.0	2047.0	2020.0	2020.0	2020.0	2065.0	2065.0	2046.0	2046.0	2046.0	1999.0	1999.0	2060.0	2060.0	2060.0	1994.0	1994.0	2000.0	2000.0	2000.0	2048.0	2048.0	2003.0	2003.0	2003.0	2028.0	2028.0	2029.0	2029.0	2029.0	2016.0	2016.0	2006.0	2006.0	2006.0	1974.0	1974.0	1973.0	1973.0	1973.0	1946.0	1946.0	1949.0	1949.0	1949.0	2018.0	2018.0	1960.0	1960.0	1960.0	1990.0	1990.0	1976.0	1976.0	1976.0	1974.0	1974.0	1976.0	1976.0	1976.0	1960.0	1960.0	1986.0	1986.0	1986.0	1969.0	1969.0	1960.0	1960.0	1960.0	1927.0	1927.0	1969.0	1969.0	1969.0	1918.0	1918.0	1965.0	1965.0	1965.0	1958.0	1958.0	1917.0	1917.0	1917.0	1889.0	1889.0	1949.0	1949.0	1949.0	1902.0	1902.0	1942.0	1942.0	1942.0	1943.0	1943.0	1952.0	1952.0	1952.0	1911.0	1911.0	1875.0	1875.0	1920.0	1920.0	1920.0	1932.0	1932.0	1868.0	1868.0	1868.0	1874.0	1874.0	1924.0	1924.0	1924.0	1860.0	1860.0	1890.0	1890.0	1890.0	1861.0	1861.0	1873.0	1873.0	1873.0	1910.0	1910.0	1913.0	1913.0	1913.0	1839.0	1839.0	1843.0	1843.0	1843.0	1858.0	1858.0	1896.0	1896.0	1896.0	1868.0	1868.0	1891.0	1891.0	1891.0	1831.0	1831.0	1831.0	1831.0	1831.0	1829.0	1829.0	1821.0	1821.0	1821.0	1824.0	1824.0	1821.0	1821.0	1821.0	1824.0	1824.0	1802.0	1802.0	1802.0	1845.0	1845.0	1807.0	1807.0	1807.0	1852.0	1852.0	1863.0	1863.0	1863.0	1825.0	1825.0	1786.0	1786.0	1786.0	1784.0	1784.0	1841.0	1841.0	1841.0	1844.0	1844.0	1778.0	1778.0	1778.0	1818.0	1818.0	1785.0	1785.0	1785.0	1831.0	1831.0	1795.0	1795.0	1795.0	1773.0	1773.0	1758.0	1758.0	1758.0	1778.0	1778.0	1757.0	1757.0	1757.0	1804.0	1804.0	1810.0	1810.0	1810.0	1772.0	1772.0	1747.0	1747.0	1747.0	1734.0	1734.0	1767.0	1767.0	1767.0	1744.0	1744.0	1723.0	1723.0	1723.0	1778.0	1778.0	1787.0	1787.0	1787.0	1756.0	1756.0	1724.0	1724.0	1724.0	1760.0	1760.0	1764.0	1764.0	1764.0	1718.0	1718.0	1704.0	1704.0	1704.0	1728.0	1728.0	1733.0	1733.0	1733.0	1754.0	1754.0	1717.0	1717.0	1717.0	1766.0	1766.0	1713.0	1713.0	1713.0	1754.0	1754.0	1735.0	1735.0	1735.0	1760.0	1760.0	1699.0	1699.0	1699.0	1755.0	1755.0	1739.0	1739.0	1739.0	1754.0	1754.0	1696.0	1696.0	1696.0	1754.0	1754.0	1704.0	1704.0	1704.0	1758.0	1758.0	1700.0	1700.0	1700.0	1715.0	1715.0	1696.0	1696.0	1696.0	1702.0	1702.0	1726.0	1726.0	1696.0	1696.0	1696.0	1714.0	1714.0	1747.0	1747.0	1747.0	1747.0	1747.0	1757.0	1757.0	1757.0	1750.0	1750.0	1758.0	1758.0	1758.0	1720.0	1720.0	1758.0	1758.0	1758.0	1713.0	1713.0	1697.0	1697.0	1697.0	1755.0	1755.0	1704.0	1704.0	1704.0	1728.0	1728.0	1744.0	1744.0	1744.0	1767.0	1767.0	1716.0	1716.0	1716.0	1768.0	1768.0	1746.0	1746.0	1746.0	1695.0	1695.0	1735.0	1735.0	1735.0	1753.0	1753.0	1746.0	1746.0	1746.0	1704.0	1704.0	1698.0	1698.0	1698.0	1698.0	1698.0	1696.0	1696.0	1696.0	1735.0	1735.0	1737.0	1737.0	1737.0	1691.0	1691.0	1697.0	1697.0	1697.0	1754.0	1754.0	1768.0	1768.0	1768.0	1737.0	1737.0	1764.0	1764.0	1764.0	1715.0	1715.0	1737.0	1737.0	1737.0	1734.0	1734.0	1750.0	1750.0	1750.0	1769.0	1769.0	1815.0	1815.0	1815.0	1785.0	1785.0	1824.0	1824.0	1824.0	1822.0	1822.0	1895.0	1895.0	1895.0	1876.0	1876.0	1865.0	1865.0	1865.0	1896.0	1896.0	1888.0	1888.0	1888.0	1973.0	1973.0	1925.0	1925.0	1925.0	1940.0	1940.0	1958.0	1958.0	1958.0	1972.0	1972.0	2016.0	2016.0	2016.0	2060.0	2060.0	2042.0	2042.0	2042.0	2054.0	2054.0	2050.0	2050.0	2050.0	2103.0	2103.0	2133.0	2133.0	2133.0	2088.0	2088.0	2140.0	2140.0	2140.0	2181.0	2181.0	2153.0	2153.0	2153.0	2172.0	2172.0	2146.0	2146.0	2146.0	2162.0	2162.0	2187.0	2187.0	2187.0	2230.0	2230.0	2226.0	2226.0	2226.0	2206.0	2206.0	2200.0	2200.0	2200.0	2219.0	2219.0	2262.0	2262.0	2262.0	2219.0	2219.0	2220.0	2220.0	2220.0	2275.0	2275.0	2277.0	2277.0	2277.0	2242.0	2242.0	2264.0	2264.0	2264.0	2252.0	2252.0	2257.0	2257.0	2301.0	2301.0	2301.0	2284.0	2284.0	2283.0	2283.0	2283.0	2301.0	2301.0	2300.0	2300.0	2300.0	2303.0	2303.0	2304.0	2304.0	2304.0	2326.0	2326.0	2320.0	2320.0	2320.0	2339.0	2339.0	2298.0	2298.0	2298.0	2323.0	2323.0	2276.0	2276.0	2276.0	2285.0	2285.0	2314.0	2314.0	2314.0	2326.0	2326.0	2279.0	2279.0	2279.0	2275.0	2275.0	2330.0	2330.0	2330.0	2272.0	2272.0	2282.0	2282.0	2282.0	2265.0	2265.0	2327.0	2327.0	2327.0	2272.0	2272.0	2269.0	2269.0	2269.0	2307.0	2307.0	2252.0	2252.0	2252.0	2246.0	2246.0	2242.0	2242.0	2242.0	2281.0	2281.0	2249.0	2249.0	2249.0	2255.0	2255.0	2295.0	2295.0	2295.0	2247.0	2247.0	2252.0	2252.0	2252.0	2211.0	2211.0	2231.0	2231.0	2231.0	2225.0	2225.0	2264.0	2264.0	2264.0	2263.0	2263.0	2235.0	2235.0	2235.0	2252.0	2252.0	2219.0	2219.0	2219.0	2255.0	2255.0	2182.0	2182.0	2182.0	2228.0	2228.0	2211.0	2211.0	2211.0	2205.0	2205.0	2192.0	2192.0	2192.0	2201.0	2201.0	2147.0	2147.0	2147.0	2160.0	2160.0	2192.0	2192.0	2192.0	2130.0	2130.0	2159.0	2159.0	2159.0	2188.0	2188.0	2167.0	2167.0	2167.0	2148.0	2148.0	2135.0	2135.0	2135.0	2108.0	2108.0	2107.0	2107.0	2107.0	2083.0	2083.0	2081.0	2081.0	2081.0	2075.0	2075.0	2083.0	2083.0	2083.0	2050.0	2050.0	2054.0	2054.0	2054.0	2108.0	2108.0	2059.0	2059.0	2059.0	2068.0	2068.0	2039.0	2039.0	2039.0	2030.0	2030.0	2029.0	2029.0	2029.0	2060.0	2060.0	2034.0	2034.0	2034.0	2016.0	2016.0	2065.0	2065.0	2065.0	2029.0	2029.0	2007.0	2007.0	2007.0	2061.0	2061.0	2001.0	2001.0	1991.0	1991.0	1991.0	1999.0	1999.0	1988.0	1988.0	1988.0	2025.0	2025.0	1987.0	1987.0	1987.0	1989.0	1989.0	1976.0	1976.0	1976.0	2036.0	2036.0	2000.0	2000.0	2000.0	1963.0	1963.0	2027.0	2027.0	2027.0	1957.0	1957.0	1966.0	1966.0	1966.0	1993.0	1993.0	1976.0	1976.0	1976.0	1949.0	1949.0	1999.0	1999.0	1999.0	1974.0	1974.0	2008.0	2008.0	2008.0	1933.0	1933.0	1982.0	1982.0	1982.0	1948.0	1948.0	1941.0	1941.0	1941.0	1962.0	1962.0	1992.0	1992.0	1992.0	1949.0	1949.0	1948.0	1948.0	1948.0	1926.0	1926.0	1916.0	1916.0	1916.0	1967.0	