2354.0	2354.0	2354.0	2316.0	2316.0	2294.0	2294.0	2294.0	2301.0	2301.0	2282.0	2282.0	2282.0	2319.0	2319.0	2265.0	2265.0	2265.0	2277.0	2277.0	2280.0	2280.0	2280.0	2293.0	2293.0	2254.0	2254.0	2254.0	2286.0	2286.0	2250.0	2250.0	2250.0	2271.0	2271.0	2229.0	2229.0	2229.0	2271.0	2271.0	2201.0	2201.0	2201.0	2208.0	2208.0	2235.0	2235.0	2235.0	2248.0	2248.0	2180.0	2180.0	2180.0	2205.0	2205.0	2221.0	2221.0	2221.0	2179.0	2179.0	2151.0	2151.0	2151.0	2201.0	2201.0	2133.0	2133.0	2133.0	2194.0	2194.0	2133.0	2133.0	2133.0	2151.0	2151.0	2103.0	2103.0	2103.0	2138.0	2138.0	2092.0	2092.0	2092.0	2118.0	2118.0	2093.0	2093.0	2093.0	2120.0	2120.0	2114.0	2114.0	2114.0	2075.0	2075.0	2097.0	2097.0	2097.0	2034.0	2034.0	2040.0	2040.0	2040.0	2078.0	2078.0	2049.0	2049.0	2049.0	2037.0	2037.0	2076.0	2076.0	2076.0	2011.0	2011.0	2008.0	2008.0	2008.0	1987.0	1987.0	1984.0	1984.0	1984.0	2033.0	2033.0	1995.0	1995.0	1995.0	1962.0	1962.0	1990.0	1990.0	1990.0	2013.0	2013.0	1954.0	1954.0	1954.0	1981.0	1981.0	1977.0	1977.0	1977.0	1931.0	1931.0	1959.0	1959.0	1959.0	1912.0	1912.0	1973.0	1973.0	1973.0	1931.0	1931.0	1924.0	1924.0	1924.0	1950.0	1950.0	1911.0	1911.0	1911.0	1958.0	1958.0	1902.0	1902.0	1902.0	1937.0	1937.0	1922.0	1922.0	1922.0	1888.0	1888.0	1951.0	1951.0	1951.0	1938.0	1938.0	1927.0	1927.0	1927.0	1861.0	1861.0	1892.0	1892.0	1892.0	1906.0	1906.0	1921.0	1921.0	1921.0	1863.0	1863.0	1872.0	1872.0	1872.0	1836.0	1836.0	1907.0	1907.0	1851.0	1851.0	1851.0	1851.0	1851.0	1883.0	1883.0	1883.0	1885.0	1885.0	1844.0	1844.0	1844.0	1827.0	1827.0	1885.0	1885.0	1885.0	1831.0	1831.0	1855.0	1855.0	1855.0	1859.0	1859.0	1880.0	1880.0	1880.0	1863.0	1863.0	1859.0	1859.0	1859.0	1842.0	1842.0	1813.0	1813.0	1813.0	1862.0	1862.0	1862.0	1862.0	1862.0	1865.0	1865.0	1864.0	1864.0	1864.0	1824.0	1824.0	1798.0	1798.0	1798.0	1828.0	1828.0	1850.0	1850.0	1850.0	1859.0	1859.0	1843.0	1843.0	1843.0	1807.0	1807.0	1848.0	1848.0	1848.0	1865.0	1865.0	1844.0	1844.0	1844.0	1800.0	1800.0	1853.0	1853.0	1853.0	1856.0	1856.0	1801.0	1801.0	1801.0	1800.0	1800.0	1788.0	1788.0	1788.0	1780.0	1780.0	1782.0	1782.0	1782.0	1779.0	1779.0	1799.0	1799.0	1799.0	1777.0	1777.0	1811.0	1811.0	1811.0	1793.0	1793.0	1805.0	1805.0	1805.0	1836.0	1836.0	1803.0	1803.0	1803.0	1777.0	1777.0	1780.0	1780.0	1780.0	1804.0	1804.0	1835.0	1835.0	1835.0	1767.0	1767.0	1774.0	1774.0	1774.0	1767.0	1767.0	1779.0	1779.0	1779.0	1825.0	1825.0	1803.0	1803.0	1803.0	1785.0	1785.0	1790.0	1790.0	1790.0	1755.0	1755.0	1820.0	1820.0	1820.0	1803.0	1803.0	1761.0	1761.0	1761.0	1806.0	1806.0	1811.0	1811.0	1811.0	1753.0	1753.0	1815.0	1815.0	1815.0	1759.0	1759.0	1792.0	1792.0	1792.0	1749.0	1749.0	1776.0	1776.0	1776.0	1747.0	1747.0	1785.0	1785.0	1785.0	1752.0	1752.0	1812.0	1812.0	1812.0	1760.0	1760.0	1785.0	1785.0	1785.0	1800.0	1800.0	1749.0	1749.0	1749.0	1768.0	1768.0	1774.0	1774.0	1774.0	1732.0	1732.0	1758.0	1758.0	1742.0	1742.0	1742.0	1762.0	1762.0	1763.0	1763.0	1763.0	1793.0	1793.0	1750.0	1750.0	1750.0	1782.0	1782.0	1739.0	1739.0	1739.0	1796.0	1796.0	1789.0	1789.0	1789.0	1766.0	1766.0	1763.0	1763.0	1763.0	1734.0	1734.0	1715.0	1715.0	1715.0	1759.0	1759.0	1707.0	1707.0	1707.0	1769.0	1769.0	1708.0	1708.0	1708.0	1706.0	1706.0	1731.0	1731.0	1731.0	1761.0	1761.0	1763.0	1763.0	1763.0	1774.0	1774.0	1765.0	1765.0	1765.0	1767.0	1767.0	1739.0	1739.0	1739.0	1702.0	1702.0	1691.0	1691.0	1691.0	1758.0	1758.0	1755.0	1755.0	1755.0	1743.0	1743.0	1696.0	1696.0	1696.0	1707.0	1707.0	1703.0	1703.0	1703.0	1726.0	1726.0	1704.0	1704.0	1704.0	1688.0	1688.0	1706.0	1706.0	1706.0	1704.0	1704.0	1697.0	1697.0	1697.0	1703.0	1703.0	1688.0	1688.0	1688.0	1678.0	1678.0	1729.0	1729.0	1729.0	1703.0	1703.0	1664.0	1664.0	1664.0	1714.0	1714.0	1654.0	1654.0	1654.0	1717.0	1717.0	1673.0	1673.0	1673.0	1692.0	1692.0	1687.0	1687.0	1687.0	1669.0	1669.0	1719.0	1719.0	1719.0	1654.0	1654.0	1671.0	1671.0	1671.0	1724.0	1724.0	1697.0	1697.0	1697.0	1661.0	1661.0	1661.0	1661.0	1661.0	1665.0	1665.0	1658.0	1658.0	1658.0	1667.0	1667.0	1677.0	1677.0	1677.0	1678.0	1678.0	1717.0	1717.0	1717.0	1694.0	1694.0	1679.0	1679.0	1679.0	1681.0	1681.0	1688.0	1688.0	1688.0	1707.0	1707.0	1734.0	1734.0	1734.0	1782.0	1782.0	1735.0	1735.0	1735.0	1766.0	1766.0	1775.0	1775.0	1775.0	1793.0	1793.0	1791.0	1791.0	1791.0	1814.0	1814.0	1826.0	1826.0	1826.0	1859.0	1859.0	1927.0	1927.0	1933.0	1933.0	1933.0	1911.0	1911.0	1951.0	1951.0	1951.0	1992.0	1992.0	1951.0	1951.0	1951.0	1997.0	1997.0	1990.0	1990.0	1990.0	2034.0	2034.0	2034.0	2034.0	2034.0	2034.0	2034.0	2108.0	2108.0	2108.0	2062.0	2062.0	2112.0	2112.0	2112.0	2150.0	2150.0	2120.0	2120.0	2120.0	2136.0	2136.0	2180.0	2180.0	2180.0	2190.0	2190.0	2190.0	2190.0	2190.0	2199.0	2199.0	2176.0	2176.0	2176.0	2195.0	2195.0	2228.0	2228.0	2228.0	2241.0	2241.0	2214.0	2214.0	2214.0	2253.0	2253.0	2275.0	2275.0	2275.0	2278.0	2278.0	2300.0	2300.0	2300.0	2272.0	2272.0	2275.0	2275.0	2275.0	2302.0	2302.0	2299.0	2299.0	2299.0	2313.0	2313.0	2334.0	2334.0	2334.0	2277.0	2277.0	2328.0	2328.0	2328.0	2282.0	2282.0	2312.0	2312.0	2312.0	2326.0	2326.0	2341.0	2341.0	2341.0	2290.0	2290.0	2355.0	2355.0	2355.0	2345.0	2345.0	2348.0	2348.0	2348.0	2299.0	2299.0	2351.0	2351.0	2351.0	2349.0	2349.0	2324.0	2324.0	2324.0	2330.0	2330.0	2359.0	2359.0	2359.0	2332.0	2332.0	2347.0	2347.0	2347.0	2291.0	2291.0	2293.0	2293.0	2293.0	2319.0	2319.0	2316.0	2316.0	2316.0	2294.0	2294.0	2347.0	2347.0	2347.0	2322.0	2322.0	2274.0	2274.0	2274.0	2263.0	2263.0	2314.0	2314.0	2314.0	2289.0	2289.0	2266.0	2266.0	2266.0	2326.0	2326.0	2281.0	2281.0	2281.0	2248.0	2248.0	2304.0	2304.0	2304.0	2280.0	2280.0	2256.0	2256.0	2256.0	2258.0	2258.0	2235.0	2235.0	2235.0	2272.0	2272.0	2270.0	2270.0	2270.0	2229.0	2229.0	2225.0	2225.0	2225.0	2274.0	2274.0	2207.0	2207.0	2207.0	2265.0	2265.0	2269.0	2269.0	2269.0	2222.0	2222.0	2251.0	2251.0	2188.0	2188.0	2188.0	2204.0	2204.0	2184.0	2184.0	2184.0	2236.0	2236.0	2172.0	2172.0	2172.0	2151.0	2151.0	2156.0	2156.0	2156.0	2169.0	2169.0	2190.0	2190.0	2190.0	2182.0	2182.0	2161.0	2161.0	2161.0	2156.0	2156.0	2130.0	2130.0	2130.0	2133.0	2133.0	2114.0	2114.0	2114.0	2100.0	2100.0	2095.0	2095.0	2095.0	2159.0	2159.0	2142.0	2142.0	2142.0	2091.0	2091.0	2136.0	2136.0	2136.0	2131.0	2131.0	2135.0	2135.0	2135.0	2070.0	2070.0	2122.0	2122.0	2122.0	2061.0	2061.0	2058.0	2058.0	2058.0	2102.0	2102.0	2045.0	2045.0	2045.0	2086.0	2086.0	2101.0	2101.0	2101.0	2095.0	2095.0	2087.0	2087.0	2087.0	2074.0	2074.0	2056.0	2056.0	2056.0	2081.0	2081.0	2052.0	2052.0	2052.0	2018.0	2018.0	2033.0	2033.0	2033.0	2064.0	2064.0	2033.0	2033.0	2033.0	2024.0	2024.0	2074.0	2074.0	2074.0	2000.0	2000.0	2003.0	2003.0	2003.0	2004.0	2004.0	1985.0	1985.0	1985.0	2062.0	2062.0	1998.0	1998.0	1998.0	1989.0	1989.0	1978.0	1978.0	1978.0	2029.0	2029.0	2042.0	2042.0	2042.0	1993.0	1993.0	2035.0	2035.0	2035.0	1978.0	1978.0	2001.0	2001.0	2001.0	2025.0	2025.0	1997.0	1997.0	1997.0	1965.0	1965.0	2008.0	2008.0	2008.0	1983.0	1983.0	1975.0	1975.0	1975.0	2009.0	2009.0	2008.0	2008.0	2008.0	1944.0	1944.0	1988.0	1988.0	1988.0	1991.0	1991.0	1953.0	1953.0	1953.0	1936.0	1936.0	1947.0	1947.0	1947.0	1956.0	1956.0	1939.0	1939.0	1939.0	1945.0	1945.0	1939.0	1939.0	1939.0	1935.0	1935.0	1919.0	1919.0	1919.0	1942.0	1942.0	1975.0	1975.0	1975.0	1957.0	1957.0	1971.0	1971.0	1951.0	1951.0	1951.0	1938.0	1938.0	1899.0	1899.0	1899.0	1920.0	1920.0	1930.0	1930.0	1930.0	1927.0	1927.0	1923.0	1923.0	1923.0	1893.0	1893.0	1890.0	1890.0	1890.0	1939.0	1939.0	1947.0	1947.0	1947.0	1940.0	1940.0	1914.0	1914.0	1914.0	1915.0	1915.0	1933.0	1933.0	1933.0	1890.0	1890.0	1925.0	1925.0	1925.0	1913.0	1913.0	1861.0	1861.0	1861.0	1908.0	1908.0	1857.0	1857.0	1857.0	1907.0	1907.0	1922.0	1922.0	1922.0	1918.0	1918.0	1926.0	1926.0	1926.0	1918.0	1918.0	1924.0	1924.0	1924.0	1872.0	1872.0	1843.0	1843.0	1843.0	1842.0	1842.0	1845.0	1845.0	1845.0	1829.0	1829.0	1857.0	1857.0	1857.0	1835.0	1835.0	1891.0	1891.0	1891.0	1853.0	1853.0	1865.0	1865.0	1865.0	1879.0	1879.0	1837.0	1837.0	1837.0	1863.0	1863.0	1835.0	1835.0	1835.0	1849.0	1849.0	1866.0	1866.0	1866.0	1880.0	1880.0	1829.0	1829.0	1829.0	1880.0	1880.0	1826.0	1826.0	1826.0	1865.0	1865.0	1875.0	1875.0	1875.0	1872.0	1872.0	1855.0	1855.0	1855.0	1852.0	1852.0	1812.0	1812.0	1812.0	1831.0	1831.0	1860.0	1860.0	1860.0	1890.0	1890.0	1894.0	1894.0	1894.0	1853.0	1853.0	1824.0	1824.0	1824.0	1833.0	1833.0	1863.0	1863.0	1863.0	1878.0	1878.0	1846.0	1846.0	1846.0	1877.0	1877.0	1816.0	1816.0	1816.0	1834.0	1834.0	1816.0	1816.0	1816.0	1824.0	1824.0	1890.0	1890.0	1890.0	1866.0	1866.0	1864.0	1864.0	1864.0	1835.0	1835.0	1845.0	1845.0	1845.0	1847.0	1847.0	1828.0	1828.0	1828.0	1857.0	1857.0	1884.0	1884.0	1884.0	1870.0	1870.0	1828.0	1828.0	1828.0	1846.0	1846.0	1881.0	1881.0	1881.0	1871.0	1871.0	1839.0	1839.0	1816.0	1816.0	1816.0	1849.0	1849.0	1833.0	1833.0	1833.0	1824.0	1824.0	1869.0	1869.0	1869.0	1830.0	1830.0	1879.0	1879.0	1879.0	1866.0	1866.0	1839.0	1839.0	1839.0	1893.0	1893.0	1878.0	1878.0	1878.0	1851.0	1851.0	1835.0	1835.0	1835.0	1889.0	1889.0	1882.0	1882.0	1882.0	1875.0	1875.0	1875.0	1875.0	1875.0	1868.0	1868.0	1872.0	1872.0	1872.0	1879.0	1879.0	1851.0	1851.0	1851.0	1880.0	1880.0	1883.0	1883.0	1883.0	1866.0	1866.0	1898.0	1898.0	1898.0	1889.0	1889.0	1858.0	1858.0	1858.0	1855.0	1855.0	1900.0	1900.0	1900.0	1871.0	1871.0	1890.0	1890.0	1890.0	1871.0	1871.0	1877.0	1877.0	1877.0	1895.0	1895.0	1848.0	1848.0	1848.0	1840.0	1840.0	1886.0	1886.0	1886.0	1872.0	1872.0	1891.0	1891.0	1891.0	1900.0	1900.0	1841.0	1841.0	1841.0	1879.0	1879.0	1887.0	1887.0	1887.0	1911.0	1911.0	1922.0	1922.0	1922.0	1919.0	1919.0	1886.0	1886.0	1886.0	1903.0	1903.0	1901.0	1901.0	1901.0	1991.0	1991.0	1931.0	1931.0	1931.0	1953.0	1953.0	2018.0	2018.0	2018.0	2007.0	2007.0	2046.0	2046.0	2046.0	2070.0	2070.0	2029.0	2029.0	2029.0	2057.0	2057.0	2082.0	2082.0	2082.0	2119.0	2119.0	2163.0	2163.0	2163.0	2165.0	2165.0	2141.0	2141.0	2141.0	2154.0	2154.0	2178.0	2178.0	2178.0	2190.0	2190.0	2200.0	2200.0	2200.0	2248.0	2248.0	2226.0	2226.0	2226.0	2299.0	2299.0	2337.0	2337.0	2337.0	2283.0	2283.0	2289.0	2289.0	2289.0	2314.0	2314.0	2322.0	2322.0	2322.0	2327.0	2327.0	2368.0	2368.0	2368.0	2343.0	2343.0	2415.0	2415.0	2415.0	2379.0	2379.0	2431.0	2431.0	2436.0	2436.0	2436.0	2387.0	2387.0	2432.0	2432.0	2432.0	2442.0	2442.0	2402.0	2402.0	2402.0	2417.0	2417.0	2440.0	2440.0	2440.0	2488.0	2488.0	2476.0	2476.0	2476.0	2477.0	2477.0	2444.0	2444.0	2444.0	2450.0	2450.0	2518.0	2518.0	2518.0	2468.0	2468.0	2498.0	2498.0	2498.0	2519.0	2519.0	2480.0	2480.0	2480.0	2469.0	2469.0	2513.0	2513.0	2513.0	2496.0	2496.0	2527.0	2527.0	2527.0	2483.0	2483.0	2468.0	2468.0	2468.0	2488.0	2488.0	2508.0	2508.0	2508.0	2470.0	2470.0	2503.0	2503.0	2503.0	2479.0	2479.0	2526.0	2526.0	2526.0	2487.0	2487.0	2529.0	2529.0	2529.0	2508.0	2508.0	2521.0	2521.0	2521.0	2473.0	2473.0	2467.0	2467.0	2467.0	2521.0	2521.0	2506.0	2506.0	2506.0	2455.0	2455.0	2493.0	2493.0	2493.0	2520.0	2520.0	2468.0	2468.0	2468.0	2503.0	2503.0	2465.0	2465.0	2465.0	2441.0	2441.0	2452.0	2452.0	2452.0	2467.0	2467.0	2469.0	2469.0	2469.0	2444.0	2444.0	2470.0	2470.0	2470.0	2456.0	2456.0	2423.0	2423.0	2423.0	2399.0	2399.0	2457.0	2457.0	2457.0	2394.0	2394.0	2403.0	2403.0	2403.0	2431.0	2431.0	2419.0	2419.0	2419.0	2379.0	2379.0	2372.0	2372.0	2372.0	2352.0	2352.0	2374.0	2374.0	2374.0	2345.0	2345.0	2369.0	2369.0	2369.0	2331.0	2331.0	2323.0	2323.0	2323.0	2347.0	2347.0	2364.0	2364.0	2364.0	2342.0	2342.0	2318.0	2318.0	2318.0	2279.0	2279.0	2257.0	2257.0	2257.0	2278.0	2278.0	2260.0	2260.0	2260.0	2306.0	2306.0	2283.0	2283.0	2283.0	2233.0	2233.0	2242.0	2242.0	2242.0	2207.0	2207.0	2223.0	2223.0	2223.0	2205.0	2205.0	2233.0	2233.0	2233.0	2233.0	2233.0	2212.0	2212.0	2175.0	2175.0	2175.0	2179.0	2179.0	2215.0	2215.0	2215.0	2135.0	2135.0	2159.0	2159.0	2159.0	2130.0	2130.0	2116.0	2116.0	2116.0	2171.0	2171.0	2166.0	2166.0	2166.0	2134.0	2134.0	2136.0	2136.0	2136.0	2122.0	2122.0	2147.0	2147.0	2147.0	2111.0	2111.0	2071.0	2071.0	2071.0	2134.0	2134.0	2120.0	2120.0	2120.0	2089.0	2089.0	2070.0	2070.0	2070.0	2059.0	2059.0	2086.0	2086.0	2086.0	2102.0	2102.0	2070.0	2070.0	2070.0	2091.0	2091.0	2090.0	2090.0	2090.0	2041.0	2041.0	2033.0	2033.0	2033.0	2095.0	2095.0	2032.0	2032.0	2032.0	2087.0	2087.0	2034.0	2034.0	2034.0	2075.0	2075.0	2055.0	2055.0	2055.0	2017.0	2017.0	2054.0	2054.0	2054.0	2022.0	2022.0	2060.0	2060.0	2060.0	2006.0	2006.0	2044.0	2044.0	2044.0	2056.0	2056.0	1998.0	1998.0	1998.0	2007.0	2007.0	2017.0	2017.0	2017.0	2049.0	2049.0	2020.0	2020.0	2020.0	1992.0	1992.0	2008.0	2008.0	2008.0	1988.0	1988.0	1982.0	1982.0	1982.0	2013.0	2013.0	2032.0	2032.0	2032.0	2028.0	2028.0	2009.0	2009.0	2009.0	1964.0	1964.0	2023.0	2023.0	2023.0	2011.0	2011.0	2017.0	2017.0	2017.0	1970.0	1970.0	1997.0	1997.0	1997.0	1960.0	1960.0	1968.0	1968.0	1968.0	1967.0	1967.0	1943.0	1943.0	1943.0	1972.0	1972.0	1954.0	1954.0	1954.0	1955.0	1955.0	1936.0	1936.0	1936.0	1998.0	1998.0	1988.0	1988.0	1988.0	1953.0	1953.0	1962.0	1962.0	1962.0	1934.0	1934.0	1961.0	1961.0	1961.0	1969.0	1969.0	1935.0	1935.0	1935.0	1936.0	1936.0	1912.0	1912.0	1912.0	1980.0	1980.0	1964.0	1964.0	1964.0	1928.0	1928.0	1905.0	1905.0	1968.0	1968.0	1968.0	1904.0	1904.0	1906.0	1906.0	1906.0	1899.0	1899.0	1894.0	1894.0	1894.0	1918.0	1918.0	1924.0	1924.0	1924.0	1935.0	1935.0	1909.0	1909.0	1909.0	1928.0	1928.0	1915.0	1915.0	1915.0	1956.0	1956.0	1899.0	1899.0	1899.0	1928.0	1928.0	1885.0	1885.0	1885.0	1952.0	1952.0	1922.0	1922.0	1922.0	1901.0	1901.0	1885.0	1885.0	1885.0	1939.0	1939.0	1942.0	1942.0	1942.0	1921.0	1921.0	1931.0	1931.0	1931.0	1904.0	1904.0	1891.0	1891.0	1891.0	1869.0	1869.0	1869.0	1869.0	1869.0	1872.0	1872.0	1883.0	1883.0	1883.0	1924.0	1924.0	1891.0	1891.0	1891.0	1890.0	1890.0	1929.0	1929.0	1929.0	1878.0	1878.0	1927.0	1927.0	1927.0	1882.0	1882.0	1865.0	1865.0	1865.0	1910.0	1910.0	1919.0	1919.0	1919.0	1931.0	1931.0	1918.0	1918.0	1918.0	1930.0	1930.0	1928.0	1928.0	1928.0	1920.0	1920.0	1878.0	1878.0	1878.0	1897.0	1897.0	1923.0	1923.0	1923.0	1915.0	1915.0	1889.0	1889.0	1889.0	1886.0	1886.0	1910.0	1910.0	1910.0	1921.0	1921.0	1864.0	1864.0	1864.0	1857.0	1857.0	1907.0	1907.0	1907.0	1876.0	1876.0	1880.0	1880.0	1880.0	1855.0	1855.0	1845.0	1845.0	1845.0	1884.0	1884.0	1896.0	1896.0	1896.0	1871.0	1871.0	1839.0	1839.0	1839.0	1868.0	1868.0	1866.0	1866.0	1866.0	1917.0	1917.0	1904.0	1904.0	1904.0	1882.0	1882.0	1895.0	1895.0	1895.0	1885.0	1885.0	1906.0	1906.0	1906.0	1864.0	1864.0	1844.0	1844.0	1844.0	1852.0	1852.0	1826.0	1826.0	1826.0	1827.0	1827.0	1871.0	1871.0	1871.0	1882.0	1882.0	1840.0	1840.0	1840.0	1835.0	1835.0	1841.0	1841.0	1834.0	1834.0	1834.0	1879.0	1879.0	1841.0	1841.0	1841.0	1895.0	1895.0	1862.0	1862.0	1862.0	1860.0	1860.0	1823.0	1823.0	1823.0	1899.0	1899.0	1840.0	1840.0	1840.0	1845.0	1845.0	1876.0	1876.0	1876.0	1893.0	1893.0	1849.0	1849.0	1849.0	1847.0	1847.0	1877.0	1877.0	1877.0	1855.0	1855.0	1848.0	1848.0	1848.0	1856.0	1856.0	1901.0	1901.0	1901.0	1872.0	1872.0	1885.0	1885.0	1885.0	1889.0	1889.0	1885.0	1885.0	1885.0	1877.0	1877.0	1889.0	1889.0	1889.0	1960.0	1960.0	