2335.0	2375.0	2375.0	2331.0	2331.0	2331.0	2399.0	2399.0	2355.0	2355.0	2355.0	2368.0	2368.0	2299.0	2299.0	2299.0	2298.0	2298.0	2310.0	2310.0	2310.0	2346.0	2346.0	2287.0	2287.0	2287.0	2328.0	2328.0	2254.0	2254.0	2254.0	2239.0	2239.0	2303.0	2303.0	2303.0	2261.0	2261.0	2214.0	2214.0	2214.0	2268.0	2268.0	2191.0	2191.0	2191.0	2201.0	2201.0	2201.0	2201.0	2201.0	2171.0	2171.0	2243.0	2243.0	2243.0	2186.0	2186.0	2220.0	2220.0	2220.0	2223.0	2223.0	2193.0	2193.0	2193.0	2186.0	2186.0	2212.0	2212.0	2212.0	2187.0	2187.0	2127.0	2127.0	2127.0	2193.0	2193.0	2136.0	2136.0	2136.0	2119.0	2119.0	2193.0	2193.0	2193.0	2146.0	2146.0	2164.0	2164.0	2164.0	2153.0	2153.0	2162.0	2162.0	2162.0	2082.0	2082.0	2175.0	2175.0	2175.0	2150.0	2150.0	2118.0	2118.0	2118.0	2073.0	2073.0	2129.0	2129.0	2129.0	2092.0	2092.0	2156.0	2156.0	2156.0	2127.0	2127.0	2096.0	2096.0	2096.0	2147.0	2147.0	2063.0	2063.0	2063.0	2131.0	2131.0	2079.0	2079.0	2079.0	2131.0	2131.0	2054.0	2054.0	2054.0	2058.0	2058.0	2088.0	2088.0	2088.0	2084.0	2084.0	2098.0	2098.0	2098.0	2031.0	2031.0	2081.0	2081.0	2081.0	2084.0	2084.0	2065.0	2065.0	2065.0	2092.0	2092.0	2039.0	2039.0	2039.0	2040.0	2040.0	2006.0	2006.0	2006.0	2052.0	2052.0	2039.0	2039.0	2039.0	2004.0	2004.0	2007.0	2007.0	2007.0	2043.0	2043.0	2039.0	2039.0	2039.0	2046.0	2046.0	1992.0	1992.0	1992.0	1984.0	1984.0	2051.0	2051.0	2051.0	1992.0	1992.0	1961.0	1961.0	1961.0	1991.0	1991.0	2029.0	2029.0	2029.0	2025.0	2025.0	2021.0	2021.0	2021.0	1977.0	1977.0	2009.0	2009.0	2004.0	2004.0	2004.0	2008.0	2008.0	1967.0	1967.0	1967.0	1936.0	1936.0	1963.0	1963.0	1963.0	1940.0	1940.0	1954.0	1954.0	1954.0	1990.0	1990.0	1955.0	1955.0	1955.0	1977.0	1977.0	1973.0	1973.0	1973.0	1968.0	1968.0	1889.0	1889.0	1889.0	1894.0	1894.0	1919.0	1919.0	1919.0	1885.0	1885.0	1947.0	1947.0	1947.0	1884.0	1884.0	1935.0	1935.0	1935.0	1883.0	1883.0	1934.0	1934.0	1934.0	1930.0	1930.0	1878.0	1878.0	1878.0	1913.0	1913.0	1872.0	1872.0	1872.0	1855.0	1855.0	1887.0	1887.0	1887.0	1875.0	1875.0	1882.0	1882.0	1882.0	1917.0	1917.0	1914.0	1914.0	1914.0	1902.0	1902.0	1913.0	1913.0	1913.0	1842.0	1842.0	1859.0	1859.0	1859.0	1897.0	1897.0	1841.0	1841.0	1841.0	1814.0	1814.0	1843.0	1843.0	1843.0	1886.0	1886.0	1798.0	1798.0	1798.0	1875.0	1875.0	1811.0	1811.0	1811.0	1829.0	1829.0	1833.0	1833.0	1833.0	1859.0	1859.0	1853.0	1853.0	1853.0	1875.0	1875.0	1820.0	1820.0	1820.0	1840.0	1840.0	1846.0	1846.0	1846.0	1856.0	1856.0	1778.0	1778.0	1778.0	1788.0	1788.0	1771.0	1771.0	1771.0	1782.0	1782.0	1823.0	1823.0	1823.0	1768.0	1768.0	1776.0	1776.0	1776.0	1836.0	1836.0	1753.0	1753.0	1753.0	1771.0	1771.0	1783.0	1783.0	1783.0	1798.0	1798.0	1790.0	1790.0	1790.0	1794.0	1794.0	1775.0	1775.0	1775.0	1789.0	1789.0	1779.0	1779.0	1779.0	1754.0	1754.0	1755.0	1755.0	1755.0	1733.0	1733.0	1786.0	1786.0	1786.0	1729.0	1729.0	1721.0	1721.0	1721.0	1774.0	1774.0	1778.0	1778.0	1778.0	1793.0	1793.0	1785.0	1785.0	1785.0	1717.0	1717.0	1765.0	1765.0	1746.0	1746.0	1746.0	1699.0	1699.0	1785.0	1785.0	1785.0	1731.0	1731.0	1739.0	1739.0	1739.0	1693.0	1693.0	1770.0	1770.0	1770.0	1768.0	1768.0	1752.0	1752.0	1752.0	1764.0	1764.0	1732.0	1732.0	1732.0	1696.0	1696.0	1728.0	1728.0	1728.0	1683.0	1683.0	1716.0	1716.0	1716.0	1706.0	1706.0	1742.0	1742.0	1742.0	1721.0	1721.0	1680.0	1680.0	1680.0	1707.0	1707.0	1751.0	1751.0	1751.0	1746.0	1746.0	1750.0	1750.0	1750.0	1744.0	1744.0	1747.0	1747.0	1747.0	1744.0	1744.0	1715.0	1715.0	1715.0	1717.0	1717.0	1684.0	1684.0	1684.0	1767.0	1767.0	1765.0	1765.0	1765.0	1768.0	1768.0	1716.0	1716.0	1716.0	1711.0	1711.0	1746.0	1746.0	1746.0	1750.0	1750.0	1748.0	1748.0	1748.0	1795.0	1795.0	1777.0	1777.0	1777.0	1829.0	1829.0	1863.0	1863.0	1863.0	1887.0	1887.0	1846.0	1846.0	1846.0	1881.0	1881.0	1905.0	1905.0	1905.0	1979.0	1979.0	1976.0	1976.0	1976.0	1983.0	1983.0	1963.0	1963.0	1963.0	1959.0	1959.0	2032.0	2032.0	2032.0	2048.0	2048.0	2108.0	2108.0	2108.0	2104.0	2104.0	2106.0	2106.0	2106.0	2145.0	2145.0	2092.0	2092.0	2092.0	2147.0	2147.0	2195.0	2195.0	2195.0	2136.0	2136.0	2216.0	2216.0	2216.0	2241.0	2241.0	2233.0	2233.0	2233.0	2248.0	2248.0	2199.0	2199.0	2199.0	2205.0	2205.0	2218.0	2218.0	2218.0	2239.0	2239.0	2230.0	2230.0	2230.0	2314.0	2314.0	2293.0	2293.0	2293.0	2299.0	2299.0	2272.0	2272.0	2272.0	2309.0	2309.0	2272.0	2272.0	2272.0	2327.0	2327.0	2334.0	2334.0	2334.0	2323.0	2323.0	2376.0	2376.0	2376.0	2388.0	2388.0	2313.0	2313.0	2313.0	2407.0	2407.0	2380.0	2380.0	2366.0	2366.0	2366.0	2370.0	2370.0	2340.0	2340.0	2340.0	2423.0	2423.0	2351.0	2351.0	2351.0	2359.0	2359.0	2375.0	2375.0	2375.0	2402.0	2402.0	2428.0	2428.0	2428.0	2438.0	2438.0	2448.0	2448.0	2448.0	2390.0	2390.0	2386.0	2386.0	2386.0	2457.0	2457.0	2401.0	2401.0	2401.0	2444.0	2444.0	2410.0	2410.0	2410.0	2446.0	2446.0	2422.0	2422.0	2422.0	2425.0	2425.0	2423.0	2423.0	2423.0	2420.0	2420.0	2403.0	2403.0	2403.0	2409.0	2409.0	2439.0	2439.0	2439.0	2398.0	2398.0	2417.0	2417.0	2417.0	2395.0	2395.0	2398.0	2398.0	2398.0	2403.0	2403.0	2430.0	2430.0	2430.0	2448.0	2448.0	2400.0	2400.0	2400.0	2455.0	2455.0	2383.0	2383.0	2383.0	2462.0	2462.0	2442.0	2442.0	2442.0	2383.0	2383.0	2422.0	2422.0	2422.0	2384.0	2384.0	2448.0	2448.0	2448.0	2404.0	2404.0	2384.0	2384.0	2384.0	2375.0	2375.0	2371.0	2371.0	2371.0	2393.0	2393.0	2391.0	2391.0	2391.0	2355.0	2355.0	2430.0	2430.0	2430.0	2354.0	2354.0	2356.0	2356.0	2356.0	2327.0	2327.0	2333.0	2333.0	2333.0	2320.0	2320.0	2380.0	2380.0	2380.0	2332.0	2332.0	2360.0	2360.0	2360.0	2288.0	2288.0	2340.0	2340.0	2340.0	2345.0	2345.0	2335.0	2335.0	2335.0	2322.0	2322.0	2285.0	2285.0	2285.0	2223.0	2223.0	2281.0	2281.0	2281.0	2235.0	2235.0	2209.0	2209.0	2209.0	2198.0	2198.0	2259.0	2259.0	2259.0	2258.0	2258.0	2178.0	2178.0	2178.0	2206.0	2206.0	2188.0	2188.0	2188.0	2232.0	2232.0	2143.0	2143.0	2143.0	2205.0	2205.0	2196.0	2196.0	2196.0	2179.0	2179.0	2198.0	2198.0	2198.0	2196.0	2196.0	2147.0	2147.0	2113.0	2113.0	2113.0	2107.0	2107.0	2181.0	2181.0	2181.0	2147.0	2147.0	2147.0	2147.0	2147.0	2151.0	2151.0	2162.0	2162.0	2162.0	2148.0	2148.0	2129.0	2129.0	2129.0	2147.0	2147.0	2076.0	2076.0	2076.0	2070.0	2070.0	2087.0	2087.0	2087.0	2138.0	2138.0	2098.0	2098.0	2098.0	2146.0	2146.0	2137.0	2137.0	2137.0	2128.0	2128.0	2127.0	2127.0	2127.0	2055.0	2055.0	2117.0	2117.0	2117.0	2067.0	2067.0	2124.0	2124.0	2124.0	2049.0	2049.0	2031.0	2031.0	2031.0	2102.0	2102.0	2078.0	2078.0	2078.0	2014.0	2014.0	2030.0	2030.0	2030.0	2044.0	2044.0	2004.0	2004.0	2004.0	2072.0	2072.0	1997.0	1997.0	1997.0	2063.0	2063.0	2060.0	2060.0	2060.0	2014.0	2014.0	2074.0	2074.0	2074.0	2014.0	2014.0	1999.0	1999.0	1999.0	1993.0	1993.0	2003.0	2003.0	2003.0	1993.0	1993.0	2018.0	2018.0	2018.0	2044.0	2044.0	1990.0	1990.0	1990.0	1948.0	1948.0	1945.0	1945.0	1945.0	1992.0	1992.0	1937.0	1937.0	1937.0	1927.0	1927.0	1988.0	1988.0	1988.0	1988.0	1988.0	1968.0	1968.0	1968.0	1916.0	1916.0	1948.0	1948.0	1948.0	1979.0	1979.0	1950.0	1950.0	1950.0	1933.0	1933.0	1912.0	1912.0	1912.0	1897.0	1897.0	1890.0	1890.0	1890.0	1964.0	1964.0	1923.0	1923.0	1923.0	1919.0	1919.0	1883.0	1883.0	1883.0	1878.0	1878.0	1910.0	1910.0	1910.0	1870.0	1870.0	1873.0	1873.0	1873.0	1932.0	1932.0	1938.0	1938.0	1938.0	1879.0	1879.0	1916.0	1916.0	1916.0	1916.0	1916.0	1851.0	1851.0	1851.0	1905.0	1905.0	1844.0	1844.0	1844.0	1848.0	1848.0	1855.0	1855.0	1855.0	1899.0	1899.0	1889.0	1889.0	1908.0	1908.0	1908.0	1827.0	1827.0	1819.0	1819.0	1819.0	1888.0	1888.0	1889.0	1889.0	1889.0	1806.0	1806.0	1815.0	1815.0	1815.0	1832.0	1832.0	1816.0	1816.0	1816.0	1875.0	1875.0	1819.0	1819.0	1819.0	1833.0	1833.0	1792.0	1792.0	1792.0	1798.0	1798.0	1787.0	1787.0	1787.0	1865.0	1865.0	1802.0	1802.0	1802.0	1853.0	1853.0	1853.0	1853.0	1853.0	1807.0	1807.0	1773.0	1773.0	1773.0	1843.0	1843.0	1776.0	1776.0	1776.0	1795.0	1795.0	1817.0	1817.0	1817.0	1788.0	1788.0	1794.0	1794.0	1794.0	1817.0	1817.0	1805.0	1805.0	1805.0	1824.0	1824.0	1808.0	1808.0	1808.0	1767.0	1767.0	1777.0	1777.0	1777.0	1747.0	1747.0	1807.0	1807.0	1807.0	1804.0	1804.0	1805.0	1805.0	1805.0	1737.0	1737.0	1720.0	1720.0	1720.0	1738.0	1738.0	1755.0	1755.0	1755.0	1724.0	1724.0	1723.0	1723.0	1723.0	1776.0	1776.0	1779.0	1779.0	1779.0	1722.0	1722.0	1757.0	1757.0	1757.0	1734.0	1734.0	1727.0	1727.0	1727.0	1712.0	1712.0	1705.0	1705.0	1705.0	1703.0	1703.0	1704.0	1704.0	1704.0	1721.0	1721.0	1695.0	1695.0	1695.0	1716.0	1716.0	1772.0	1772.0	1772.0	1695.0	1695.0	1702.0	1702.0	1702.0	1691.0	1691.0	1735.0	1735.0	1735.0	1746.0	1746.0	1770.0	1770.0	1770.0	1764.0	1764.0	1722.0	1722.0	1722.0	1754.0	1754.0	1736.0	1736.0	1736.0	1699.0	1699.0	1764.0	1764.0	1764.0	1703.0	1703.0	1724.0	1724.0	1724.0	1682.0	1682.0	1752.0	1752.0	1752.0	1689.0	1689.0	1681.0	1681.0	1681.0	1678.0	1678.0	1679.0	1679.0	1679.0	1688.0	1688.0	1684.0	1684.0	1684.0	1761.0	1761.0	1682.0	1682.0	1682.0	1706.0	1706.0	1722.0	1722.0	1772.0	1772.0	1772.0	1769.0	1769.0	1776.0	1776.0	1776.0	1763.0	1763.0	1736.0	1736.0	1736.0	1718.0	1718.0	1774.0	1774.0	1774.0	1813.0	1813.0	1750.0	1750.0	1750.0	1784.0	1784.0	1812.0	1812.0	1812.0	1796.0	1796.0	1822.0	1822.0	1822.0	1835.0	1835.0	1894.0	1894.0	1894.0	1890.0	1890.0	1893.0	1893.0	1893.0	1923.0	1923.0	1951.0	1951.0	1951.0	1944.0	1944.0	1983.0	1983.0	1983.0	2010.0	2010.0	2003.0	2003.0	2003.0	2094.0	2094.0	2118.0	2118.0	2118.0	2140.0	2140.0	2144.0	2144.0	2144.0	2102.0	2102.0	2165.0	2165.0	2165.0	2191.0	2191.0	2196.0	2196.0	2196.0	2164.0	2164.0	2173.0	2173.0	2173.0	2202.0	2202.0	2195.0	2195.0	2195.0	2210.0	2210.0	2227.0	2227.0	2227.0	2307.0	2307.0	2319.0	2319.0	2319.0	2293.0	2293.0	2335.0	2335.0	2335.0	2305.0	2305.0	2283.0	2283.0	2283.0	2297.0	2297.0	2300.0	2300.0	2300.0	2332.0	2332.0	2383.0	2383.0	2383.0	2366.0	2366.0	2334.0	2334.0	2334.0	2362.0	2362.0	2377.0	2377.0	2377.0	2403.0	2403.0	2342.0	2342.0	2342.0	2384.0	2384.0	2345.0	2345.0	2345.0	2388.0	2388.0	2367.0	2367.0	2367.0	2367.0	2367.0	2366.0	2366.0	2366.0	2403.0	2403.0	2386.0	2386.0	2386.0	2444.0	2444.0	2409.0	2409.0	2409.0	2457.0	2457.0	2447.0	2447.0	2447.0	2458.0	2458.0	2468.0	2468.0	2468.0	2401.0	2401.0	2459.0	2459.0	2459.0	2483.0	2483.0	2490.0	2490.0	2490.0	2414.0	2414.0	2448.0	2448.0	2448.0	2463.0	2463.0	2489.0	2489.0	2489.0	2458.0	2458.0	2416.0	2416.0	2416.0	2418.0	2418.0	2494.0	2494.0	2494.0	2482.0	2482.0	2419.0	2419.0	2451.0	2451.0	2451.0	2422.0	2422.0	2410.0	2410.0	2410.0	2418.0	2418.0	2477.0	2477.0	2477.0	2415.0	2415.0	2486.0	2486.0	2486.0	2483.0	2483.0	2465.0	2465.0	2465.0	2464.0	2464.0	2474.0	2474.0	2474.0	2437.0	2437.0	2423.0	2423.0	2423.0	2408.0	2408.0	2417.0	2417.0	2417.0	2466.0	2466.0	2398.0	2398.0	2398.0	2429.0	2429.0	2433.0	2433.0	2433.0	2450.0	2450.0	2435.0	2435.0	2435.0	2393.0	2393.0	2373.0	2373.0	2373.0	2378.0	2378.0	2407.0	2407.0	2407.0	2422.0	2422.0	2335.0	2335.0	2335.0	2406.0	2406.0	2371.0	2371.0	2371.0	2395.0	2395.0	2307.0	2307.0	2307.0	2358.0	2358.0	2345.0	2345.0	2345.0	2363.0	2363.0	2293.0	2293.0	2293.0	2268.0	2268.0	2291.0	2291.0	2291.0	2276.0	2276.0	2308.0	2308.0	2308.0	2274.0	2274.0	2240.0	2240.0	2240.0	2230.0	2230.0	2296.0	2296.0	2296.0	2207.0	2207.0	2196.0	2196.0	2196.0	2249.0	2249.0	2270.0	2270.0	2270.0	2256.0	2256.0	2223.0	2223.0	2223.0	2212.0	2212.0	2162.0	2162.0	2162.0	2229.0	2229.0	2176.0	2176.0	2176.0	2146.0	2146.0	2142.0	2142.0	2142.0	2171.0	2171.0	2158.0	2158.0	2158.0	2201.0	2201.0	2184.0	2184.0	2184.0	2197.0	2197.0	2111.0	2111.0	2111.0	2105.0	2105.0	2180.0	2180.0	2180.0	2122.0	2122.0	2172.0	2172.0	2172.0	2175.0	2175.0	2094.0	2094.0	2094.0	2138.0	2138.0	2099.0	2099.0	2099.0	2096.0	2096.0	2097.0	2097.0	2097.0	2154.0	2154.0	2094.0	2094.0	2094.0	2140.0	2140.0	2098.0	2098.0	2098.0	2131.0	2131.0	2075.0	2075.0	2075.0	2130.0	2130.0	2135.0	2135.0	2135.0	2126.0	2126.0	2115.0	2115.0	2128.0	2128.0	2128.0	2093.0	2093.0	2040.0	2040.0	2040.0	2048.0	2048.0	2037.0	2037.0	2037.0	2039.0	2039.0	2059.0	2059.0	2059.0	2085.0	2085.0	2015.0	2015.0	2015.0	2065.0	2065.0	2079.0	2079.0	2079.0	2057.0	2057.0	2064.0	2064.0	2064.0	2049.0	2049.0	2020.0	2020.0	2020.0	2063.0	2063.0	1990.0	1990.0	1990.0	2012.0	2012.0	2012.0	2012.0	2012.0	2063.0	2063.0	2029.0	2029.0	2029.0	1989.0	1989.0	1980.0	1980.0	1980.0	1978.0	1978.0	2040.0	2040.0	2040.0	2031.0	2031.0	1973.0	1973.0	1973.0	2028.0	2028.0	2002.0	2002.0	2002.0	1942.0	1942.0	1969.0	1969.0	1969.0	1948.0	1948.0	2010.0	2010.0	2010.0	1935.0	1935.0	1941.0	1941.0	1941.0	1982.0	1982.0	1922.0	1922.0	1922.0	1994.0	1994.0	1918.0	1918.0	1918.0	1909.0	1909.0	1980.0	1980.0	1980.0	1921.0	1921.0	1917.0	1917.0	1917.0	1939.0	1939.0	1888.0	1888.0	1888.0	1910.0	1910.0	1891.0	1891.0	1891.0	1921.0	1921.0	1944.0	1944.0	1944.0	1895.0	1895.0	1885.0	1885.0	1885.0	1928.0	1928.0	1931.0	1931.0	1931.0	1942.0	1942.0	1866.0	1866.0	1866.0	1895.0	1895.0	1855.0	1855.0	1855.0	1852.0	1852.0	1855.0	1855.0	1855.0	1846.0	1846.0	1879.0	1879.0	1879.0	1901.0	1901.0	1847.0	1847.0	1847.0	1902.0	1902.0	1842.0	1842.0	1842.0	1874.0	1874.0	1884.0	1884.0	1884.0	1837.0	1837.0	1857.0	1857.0	1857.0	1856.0	1856.0	1867.0	1867.0	1867.0	1875.0	1875.0	1816.0	1816.0	1816.0	1891.0	1891.0	1838.0	1838.0	1838.0	1835.0	1835.0	1798.0	1798.0	1798.0	1880.0	1880.0	1883.0	1883.0	1883.0	1877.0	1877.0	1791.0	1791.0	1791.0	1829.0	1829.0	1821.0	1821.0	1867.0	1867.0	1867.0	1804.0	1804.0	1800.0	1800.0	1800.0	1802.0	1802.0	1828.0	1828.0	1828.0	1813.0	1813.0	1832.0	1832.0	1832.0	1776.0	1776.0	1778.0	1778.0	1778.0	1814.0	1814.0	1767.0	1767.0	1767.0	1804.0	1804.0	1765.0	1765.0	1765.0	1823.0	1823.0	1762.0	1762.0	1762.0	1757.0	1757.0	1813.0	1813.0	1813.0	1777.0	1777.0	1771.0	1771.0	1771.0	1815.0	1815.0	1755.0	1755.0	1755.0	1763.0	1763.0	1739.0	1739.0	1739.0	1808.0	1808.0	1740.0	1740.0	1740.0	1804.0	1804.0	1737.0	1737.0	1737.0	1749.0	1749.0	1730.0	1730.0	1730.0	1788.0	1788.0	1729.0	1729.0	1729.0	1763.0	1763.0	1717.0	1717.0	1717.0	1786.0	1786.0	1725.0	1725.0	1725.0	1724.0	1724.0	1743.0	1743.0	1743.0	1755.0	1755.0	1733.0	1733.0	1733.0	1750.0	1750.0	1770.0	1770.0	1770.0	1768.0	1768.0	1745.0	1745.0	1745.0	1734.0	1734.0	1734.0	1734.0	1734.0	1743.0	1743.0	1706.0	1706.0	1706.0	1755.0	1755.0	1736.0	1736.0	1736.0	1726.0	1726.0	1786.0	1786.0	1786.0	1780.0	1780.0	1782.0	1782.0	1782.0	1769.0	1769.0	1768.0	1768.0	1768.0	1753.0	1753.0	1788.0	1788.0	1788.0	1738.0	1738.0	1807.0	1807.0	1807.0	1826.0	1826.0	1812.0	1812.0	1812.0	1770.0	1770.0	1777.0	1777.0	1777.0	1839.0	1839.0	1878.0	1878.0	1878.0	1902.0	1902.0	1917.0	1917.0	1917.0	1876.0	1876.0	1892.0	1892.0	1892.0	1914.0	1914.0	1977.0	1977.0	1977.0	2010.0	2010.0	1970.0	1970.0	1970.0	2000.0	2000.0	2007.0	2007.0	2007.0	2068.0	2068.0	2050.0	2050.0	2050.0	2056.0	2056.0	2116.0	2116.0	2116.0	2118.0	2118.0	2130.0	2130.0	2132.0	2132.0	2132.0	2215.0	2215.0	2197.0	2197.0	2197.0	2229.0	2229.0	2201.0	2201.0	2201.0	2274.0	2274.0	2266.0	2266.0	2266.0	2227.0	2227.0	2311.0	2311.0	2311.0	2248.0	2248.0	2261.0	2261.0	2261.0	2345.0	2345.0	2335.0	2335.0	2335.0	2281.0	2281.0	2359.0	2359.0	2359.0	2373.0	2373.0	2356.0	2356.0	2356.0	2324.0	2324.0	2317.0	2317.0	2317.0	2334.0	2334.0	2333.0	2333.0	2333.0	2337.0	2337.0	2379.0	2379.0	