2032.0	2032.0	2032.0	2002.0	2002.0	2001.0	2001.0	2001.0	1949.0	1949.0	1958.0	1958.0	1995.0	1995.0	1995.0	1951.0	1951.0	1998.0	1998.0	1998.0	1939.0	1939.0	1988.0	1988.0	1988.0	2006.0	2006.0	1948.0	1948.0	1948.0	1967.0	1967.0	1925.0	1925.0	1925.0	1943.0	1943.0	1981.0	1981.0	1981.0	1971.0	1971.0	1907.0	1907.0	1907.0	1919.0	1919.0	1973.0	1973.0	1973.0	1978.0	1978.0	1907.0	1907.0	1907.0	1906.0	1906.0	1906.0	1906.0	1906.0	1893.0	1893.0	1955.0	1955.0	1955.0	1924.0	1924.0	1955.0	1955.0	1955.0	1963.0	1963.0	1946.0	1946.0	1946.0	1912.0	1912.0	1894.0	1894.0	1894.0	1877.0	1877.0	1929.0	1929.0	1929.0	1913.0	1913.0	1909.0	1909.0	1909.0	1883.0	1883.0	1866.0	1866.0	1866.0	1876.0	1876.0	1912.0	1912.0	1912.0	1923.0	1923.0	1872.0	1872.0	1872.0	1919.0	1919.0	1899.0	1899.0	1899.0	1859.0	1859.0	1860.0	1860.0	1860.0	1930.0	1930.0	1858.0	1858.0	1858.0	1930.0	1930.0	1885.0	1885.0	1885.0	1909.0	1909.0	1843.0	1843.0	1843.0	1841.0	1841.0	1889.0	1889.0	1889.0	1883.0	1883.0	1878.0	1878.0	1878.0	1836.0	1836.0	1866.0	1866.0	1866.0	1845.0	1845.0	1888.0	1888.0	1888.0	1810.0	1810.0	1888.0	1888.0	1888.0	1840.0	1840.0	1887.0	1887.0	1887.0	1849.0	1849.0	1839.0	1839.0	1839.0	1858.0	1858.0	1884.0	1884.0	1884.0	1860.0	1860.0	1869.0	1869.0	1869.0	1834.0	1834.0	1845.0	1845.0	1845.0	1792.0	1792.0	1857.0	1857.0	1857.0	1816.0	1816.0	1847.0	1847.0	1847.0	1789.0	1789.0	1795.0	1795.0	1795.0	1836.0	1836.0	1802.0	1802.0	1802.0	1815.0	1815.0	1790.0	1790.0	1790.0	1799.0	1799.0	1795.0	1795.0	1795.0	1767.0	1767.0	1787.0	1787.0	1787.0	1808.0	1808.0	1815.0	1815.0	1812.0	1812.0	1812.0	1778.0	1778.0	1787.0	1787.0	1787.0	1808.0	1808.0	1750.0	1750.0	1750.0	1767.0	1767.0	1821.0	1821.0	1821.0	1732.0	1732.0	1799.0	1799.0	1799.0	1780.0	1780.0	1733.0	1733.0	1733.0	1760.0	1760.0	1738.0	1738.0	1738.0	1790.0	1790.0	1765.0	1765.0	1765.0	1786.0	1786.0	1788.0	1788.0	1788.0	1797.0	1797.0	1791.0	1791.0	1791.0	1721.0	1721.0	1744.0	1744.0	1744.0	1775.0	1775.0	1788.0	1788.0	1788.0	1751.0	1751.0	1783.0	1783.0	1783.0	1727.0	1727.0	1728.0	1728.0	1728.0	1731.0	1731.0	1809.0	1809.0	1809.0	1777.0	1777.0	1791.0	1791.0	1791.0	1789.0	1789.0	1776.0	1776.0	1776.0	1797.0	1797.0	1825.0	1825.0	1825.0	1826.0	1826.0	1829.0	1829.0	1829.0	1860.0	1860.0	1937.0	1937.0	1937.0	1955.0	1955.0	1899.0	1899.0	1899.0	1968.0	1968.0	1936.0	1936.0	1936.0	1976.0	1976.0	1979.0	1979.0	1979.0	2043.0	2043.0	2066.0	2066.0	2066.0	2082.0	2082.0	2040.0	2040.0	2040.0	2078.0	2078.0	2152.0	2152.0	2152.0	2130.0	2130.0	2125.0	2125.0	2125.0	2179.0	2179.0	2212.0	2212.0	2212.0	2160.0	2160.0	2251.0	2251.0	2251.0	2235.0	2235.0	2206.0	2206.0	2206.0	2269.0	2269.0	2298.0	2298.0	2298.0	2246.0	2246.0	2282.0	2282.0	2282.0	2281.0	2281.0	2334.0	2334.0	2334.0	2350.0	2350.0	2292.0	2292.0	2292.0	2307.0	2307.0	2307.0	2307.0	2307.0	2357.0	2357.0	2384.0	2384.0	2384.0	2354.0	2354.0	2371.0	2371.0	2371.0	2408.0	2408.0	2352.0	2352.0	2352.0	2343.0	2343.0	2354.0	2354.0	2354.0	2410.0	2410.0	2358.0	2358.0	2358.0	2356.0	2356.0	2355.0	2355.0	2416.0	2416.0	2416.0	2414.0	2414.0	2435.0	2435.0	2435.0	2360.0	2360.0	2403.0	2403.0	2403.0	2431.0	2431.0	2427.0	2427.0	2427.0	2366.0	2366.0	2378.0	2378.0	2378.0	2394.0	2394.0	2426.0	2426.0	2426.0	2359.0	2359.0	2355.0	2355.0	2355.0	2368.0	2368.0	2379.0	2379.0	2379.0	2356.0	2356.0	2362.0	2362.0	2362.0	2369.0	2369.0	2396.0	2396.0	2396.0	2392.0	2392.0	2369.0	2369.0	2369.0	2387.0	2387.0	2387.0	2387.0	2387.0	2339.0	2339.0	2362.0	2362.0	2362.0	2354.0	2354.0	2375.0	2375.0	2375.0	2357.0	2357.0	2302.0	2302.0	2302.0	2358.0	2358.0	2291.0	2291.0	2291.0	2280.0	2280.0	2327.0	2327.0	2327.0	2331.0	2331.0	2264.0	2264.0	2264.0	2337.0	2337.0	2247.0	2247.0	2247.0	2248.0	2248.0	2309.0	2309.0	2309.0	2215.0	2215.0	2217.0	2217.0	2217.0	2207.0	2207.0	2203.0	2203.0	2203.0	2265.0	2265.0	2224.0	2224.0	2224.0	2182.0	2182.0	2175.0	2175.0	2175.0	2177.0	2177.0	2157.0	2157.0	2157.0	2200.0	2200.0	2148.0	2148.0	2148.0	2186.0	2186.0	2122.0	2122.0	2122.0	2156.0	2156.0	2099.0	2099.0	2099.0	2110.0	2110.0	2108.0	2108.0	2108.0	2071.0	2071.0	2131.0	2131.0	2131.0	2118.0	2118.0	2083.0	2083.0	2083.0	2047.0	2047.0	2042.0	2042.0	2042.0	2027.0	2027.0	2024.0	2024.0	2024.0	2031.0	2031.0	2085.0	2085.0	2085.0	2066.0	2066.0	2061.0	2061.0	2061.0	2049.0	2049.0	1980.0	1980.0	1980.0	2004.0	2004.0	2026.0	2026.0	2026.0	2029.0	2029.0	2012.0	2012.0	2012.0	1984.0	1984.0	1948.0	1948.0	1948.0	1970.0	1970.0	2006.0	2006.0	2006.0	1981.0	1981.0	1966.0	1966.0	1966.0	1980.0	1980.0	1942.0	1942.0	1979.0	1979.0	1979.0	1968.0	1968.0	1917.0	1917.0	1917.0	1941.0	1941.0	1977.0	1977.0	1977.0	1960.0	1960.0	1941.0	1941.0	1941.0	1947.0	1947.0	1890.0	1890.0	1890.0	1898.0	1898.0	1951.0	1951.0	1951.0	1952.0	1952.0	1929.0	1929.0	1929.0	1951.0	1951.0	1940.0	1940.0	1940.0	1935.0	1935.0	1935.0	1935.0	1935.0	1872.0	1872.0	1932.0	1932.0	1932.0	1877.0	1877.0	1858.0	1858.0	1858.0	1869.0	1869.0	1886.0	1886.0	1886.0	1912.0	1912.0	1859.0	1859.0	1859.0	1916.0	1916.0	1861.0	1861.0	1861.0	1876.0	1876.0	1882.0	1882.0	1882.0	1911.0	1911.0	1843.0	1843.0	1843.0	1883.0	1883.0	1836.0	1836.0	1836.0	1909.0	1909.0	1874.0	1874.0	1874.0	1842.0	1842.0	1875.0	1875.0	1875.0	1877.0	1877.0	1906.0	1906.0	1906.0	1900.0	1900.0	1828.0	1828.0	1828.0	1816.0	1816.0	1868.0	1868.0	1868.0	1859.0	1859.0	1835.0	1835.0	1835.0	1840.0	1840.0	1864.0	1864.0	1864.0	1885.0	1885.0	1863.0	1863.0	1863.0	1821.0	1821.0	1860.0	1860.0	1860.0	1840.0	1840.0	1819.0	1819.0	1819.0	1855.0	1855.0	1794.0	1794.0	1794.0	1806.0	1806.0	1857.0	1857.0	1857.0	1865.0	1865.0	1792.0	1792.0	1792.0	1849.0	1849.0	1835.0	1835.0	1835.0	1776.0	1776.0	1797.0	1797.0	1797.0	1779.0	1779.0	1827.0	1827.0	1827.0	1840.0	1840.0	1804.0	1804.0	1804.0	1764.0	1764.0	1782.0	1782.0	1782.0	1822.0	1822.0	1829.0	1829.0	1829.0	1830.0	1830.0	1808.0	1808.0	1808.0	1770.0	1770.0	1819.0	1819.0	1819.0	1750.0	1750.0	1807.0	1807.0	1807.0	1764.0	1764.0	1802.0	1802.0	1802.0	1828.0	1828.0	1735.0	1735.0	1815.0	1815.0	1815.0	1741.0	1741.0	1776.0	1776.0	1776.0	1729.0	1729.0	1793.0	1793.0	1793.0	1795.0	1795.0	1719.0	1719.0	1719.0	1717.0	1717.0	1757.0	1757.0	1757.0	1731.0	1731.0	1725.0	1725.0	1725.0	1719.0	1719.0	1725.0	1725.0	1725.0	1780.0	1780.0	1775.0	1775.0	1775.0	1733.0	1733.0	1731.0	1731.0	1731.0	1744.0	1744.0	1776.0	1776.0	1776.0	1719.0	1719.0	1695.0	1695.0	1695.0	1765.0	1765.0	1710.0	1710.0	1710.0	1770.0	1770.0	1771.0	1771.0	1771.0	1757.0	1757.0	1796.0	1796.0	1796.0	1736.0	1736.0	1779.0	1779.0	1779.0	1760.0	1760.0	1810.0	1810.0	1810.0	1788.0	1788.0	1829.0	1829.0	1829.0	1778.0	1778.0	1813.0	1813.0	1813.0	1880.0	1880.0	1853.0	1853.0	1853.0	1854.0	1854.0	1907.0	1907.0	1907.0	1863.0	1863.0	1949.0	1949.0	1949.0	1922.0	1922.0	1928.0	1928.0	1928.0	1990.0	1990.0	1960.0	1960.0	1960.0	2013.0	2013.0	2032.0	2032.0	2032.0	2091.0	2091.0	2061.0	2061.0	2061.0	2099.0	2099.0	2132.0	2132.0	2132.0	2091.0	2091.0	2133.0	2133.0	2133.0	2159.0	2159.0	2144.0	2144.0	2144.0	2142.0	2142.0	2172.0	2172.0	2172.0	2196.0	2196.0	2253.0	2253.0	2253.0	2202.0	2202.0	2230.0	2230.0	2230.0	2310.0	2310.0	2279.0	2279.0	2279.0	2246.0	2246.0	2328.0	2328.0	2328.0	2298.0	2298.0	2336.0	2336.0	2336.0	2294.0	2294.0	2371.0	2371.0	2371.0	2338.0	2338.0	2340.0	2340.0	2340.0	2375.0	2375.0	2363.0	2363.0	2363.0	2327.0	2327.0	2353.0	2353.0	2353.0	2317.0	2317.0	2348.0	2348.0	2348.0	2370.0	2370.0	2388.0	2388.0	2388.0	2342.0	2342.0	2338.0	2338.0	2331.0	2331.0	2331.0	2379.0	2379.0	2404.0	2404.0	2404.0	2360.0	2360.0	2344.0	2344.0	2344.0	2323.0	2323.0	2348.0	2348.0	2348.0	2336.0	2336.0	2366.0	2366.0	2366.0	2339.0	2339.0	2338.0	2338.0	2338.0	2355.0	2355.0	2386.0	2386.0	2386.0	2392.0	2392.0	2311.0	2311.0	2311.0	2393.0	2393.0	2371.0	2371.0	2371.0	2337.0	2337.0	2356.0	2356.0	2356.0	2347.0	2347.0	2372.0	2372.0	2372.0	2305.0	2305.0	2344.0	2344.0	2344.0	2294.0	2294.0	2341.0	2341.0	2341.0	2290.0	2290.0	2254.0	2254.0	2254.0	2306.0	2306.0	2266.0	2266.0	2266.0	2240.0	2240.0	2242.0	2242.0	2242.0	2223.0	2223.0	2231.0	2231.0	2231.0	2279.0	2279.0	2237.0	2237.0	2237.0	2254.0	2254.0	2262.0	2262.0	2262.0	2240.0	2240.0	2198.0	2198.0	2198.0	2211.0	2211.0	2174.0	2174.0	2174.0	2160.0	2160.0	2219.0	2219.0	2219.0	2210.0	2210.0	2206.0	2206.0	2206.0	2133.0	2133.0	2119.0	2119.0	2119.0	2149.0	2149.0	2109.0	2109.0	2109.0	2168.0	2168.0	2107.0	2107.0	2107.0	2151.0	2151.0	2081.0	2081.0	2081.0	2131.0	2131.0	2068.0	2068.0	2068.0	2049.0	2049.0	2083.0	2083.0	2083.0	2094.0	2094.0	2023.0	2023.0	2023.0	2091.0	2091.0	2002.0	2002.0	2002.0	2080.0	2080.0	2025.0	2025.0	2025.0	2040.0	2040.0	1990.0	1990.0	1990.0	2057.0	2057.0	1968.0	1968.0	1968.0	1978.0	1978.0	2012.0	2012.0	2012.0	2029.0	2029.0	2013.0	2013.0	2013.0	1988.0	1988.0	2015.0	2015.0	2015.0	2016.0	2016.0	2004.0	2004.0	2004.0	1954.0	1954.0	1919.0	1919.0	1919.0	1999.0	1999.0	1981.0	1981.0	1981.0	1923.0	1923.0	1943.0	1943.0	1943.0	1916.0	1916.0	1981.0	1981.0	1970.0	1970.0	1970.0	1900.0	1900.0	1952.0	1952.0	1952.0	1922.0	1922.0	1901.0	1901.0	1901.0	1973.0	1973.0	1944.0	1944.0	1944.0	1901.0	1901.0	1917.0	1917.0	1917.0	1909.0	1909.0	1957.0	1957.0	1957.0	1886.0	1886.0	1893.0	1893.0	1893.0	1941.0	1941.0	1913.0	1913.0	1913.0	1916.0	1916.0	1931.0	1931.0	1931.0	1868.0	1868.0	1889.0	1889.0	1889.0	1867.0	1867.0	1880.0	1880.0	1880.0	1934.0	1934.0	1880.0	1880.0	1880.0	1864.0	1864.0	1912.0	1912.0	1912.0	1919.0	1919.0	1859.0	1859.0	1859.0	1849.0	1849.0	1866.0	1866.0	1866.0	1885.0	1885.0	1848.0	1848.0	1848.0	1912.0	1912.0	1921.0	1921.0	1921.0	1890.0	1890.0	1843.0	1843.0	1843.0	1916.0	1916.0	1848.0	1848.0	1848.0	1854.0	1854.0	1897.0	1897.0	1897.0	1834.0	1834.0	1885.0	1885.0	1885.0	1866.0	1866.0	1852.0	1852.0	1852.0	1811.0	1811.0	1826.0	1826.0	1826.0	1884.0	1884.0	1867.0	1867.0	1867.0	1808.0	1808.0	1823.0	1823.0	1823.0	1824.0	1824.0	1810.0	1810.0	1810.0	1811.0	1811.0	1836.0	1836.0	1836.0	1798.0	1798.0	1871.0	1871.0	1871.0	1799.0	1799.0	1860.0	1860.0	1860.0	1800.0	1800.0	1799.0	1799.0	1799.0	1859.0	1859.0	1785.0	1785.0	1785.0	1786.0	1786.0	1825.0	1825.0	1825.0	1853.0	1853.0	1809.0	1809.0	1809.0	1808.0	1808.0	1785.0	1785.0	1785.0	1790.0	1790.0	1769.0	1769.0	1769.0	1779.0	1779.0	1841.0	1841.0	1841.0	1816.0	1816.0	1771.0	1771.0	1771.0	1760.0	1760.0	1827.0	1827.0	1827.0	1759.0	1759.0	1762.0	1762.0	1762.0	1745.0	1745.0	1775.0	1775.0	1775.0	1793.0	1793.0	1808.0	1808.0	1782.0	1782.0	1782.0	1779.0	1779.0	1782.0	1782.0	1782.0	1780.0	1780.0	1766.0	1766.0	1766.0	1750.0	1750.0	1796.0	1796.0	1796.0	1745.0	1745.0	1783.0	1783.0	1783.0	1796.0	1796.0	1793.0	1793.0	1793.0	1731.0	1731.0	1775.0	1775.0	1775.0	1759.0	1759.0	1717.0	1717.0	1717.0	1791.0	1791.0	1728.0	1728.0	1728.0	1727.0	1727.0	1716.0	1716.0	1716.0	1778.0	1778.0	1727.0	1727.0	1727.0	1757.0	1757.0	1740.0	1740.0	1740.0	1727.0	1727.0	1811.0	1811.0	1811.0	1829.0	1829.0	1804.0	1804.0	1804.0	1798.0	1798.0	1808.0	1808.0	1808.0	1853.0	1853.0	1859.0	1859.0	1859.0	1879.0	1879.0	1855.0	1855.0	1855.0	1872.0	1872.0	1887.0	1887.0	1887.0	1936.0	1936.0	1892.0	1892.0	1892.0	1908.0	1908.0	1925.0	1925.0	1925.0	2000.0	2000.0	2016.0	2016.0	2016.0	2033.0	2033.0	2078.0	2078.0	2078.0	2084.0	2084.0	2057.0	2057.0	2057.0	2123.0	2123.0	2092.0	2092.0	2092.0	2156.0	2156.0	2146.0	2146.0	2146.0	2136.0	2136.0	2202.0	2202.0	2202.0	2168.0	2168.0	2251.0	2251.0	2251.0	2233.0	2233.0	2241.0	2241.0	2241.0	2297.0	2297.0	2284.0	2284.0	2284.0	2323.0	2323.0	2316.0	2316.0	2316.0	2347.0	2347.0	2300.0	2300.0	2300.0	2300.0	2300.0	2332.0	2332.0	2332.0	2318.0	2318.0	2345.0	2345.0	2345.0	2336.0	2336.0	2325.0	2325.0	2325.0	2384.0	2384.0	2388.0	2388.0	2388.0	2338.0	2338.0	2421.0	2421.0	2421.0	2423.0	2423.0	2360.0	2360.0	2360.0	2392.0	2392.0	2358.0	2358.0	2358.0	2363.0	2363.0	2388.0	2388.0	2388.0	2384.0	2384.0	2445.0	2445.0	2445.0	2438.0	2438.0	2376.0	2376.0	2448.0	2448.0	2448.0	2385.0	2385.0	2383.0	2383.0	2383.0	2417.0	2417.0	2380.0	2380.0	2380.0	2441.0	2441.0	2437.0	2437.0	2437.0	2422.0	2422.0	2421.0	2421.0	2421.0	2383.0	2383.0	2362.0	2362.0	2362.0	2356.0	2356.0	2368.0	2368.0	2368.0	2382.0	2382.0	2355.0	2355.0	2355.0	2360.0	2360.0	2352.0	2352.0	2352.0	2401.0	2401.0	2401.0	2401.0	2401.0	2405.0	2405.0	2334.0	2334.0	2334.0	2372.0	2372.0	2318.0	2318.0	2318.0	2311.0	2311.0	2343.0	2343.0	2343.0	2348.0	2348.0	2364.0	2364.0	2364.0	2328.0	2328.0	2306.0	2306.0	2306.0	2348.0	2348.0	2334.0	2334.0	2334.0	2277.0	2277.0	2278.0	2278.0	2278.0	2258.0	2258.0	2297.0	2297.0	2297.0	2293.0	2293.0	2255.0	2255.0	2255.0	2289.0	2289.0	2217.0	2217.0	2217.0	2207.0	2207.0	2198.0	2198.0	2198.0	2252.0	2252.0	2247.0	2247.0	2247.0	2168.0	2168.0	2204.0	2204.0	2204.0	2145.0	2145.0	2206.0	2206.0	2206.0	2139.0	2139.0	2174.0	2174.0	2174.0	2118.0	2118.0	2112.0	2112.0	2112.0	2129.0	2129.0	2101.0	2101.0	2101.0	2085.0	2085.0	2089.0	2089.0	2089.0	2087.0	2087.0	2080.0	2080.0	2080.0	2085.0	2085.0	2084.0	2084.0	2084.0	2122.0	2122.0	2048.0	2048.0	2048.0	2041.0	2041.0	2089.0	2089.0	2089.0	2088.0	2088.0	2058.0	2058.0	2058.0	2048.0	2048.0	1994.0	1994.0	1994.0	1996.0	1996.0	2001.0	2001.0	2001.0	2018.0	2018.0	2009.0	2009.0	2009.0	2028.0	2028.0	2040.0	2040.0	2040.0	2024.0	2024.0	1989.0	1989.0	1989.0	1996.0	1996.0	1958.0	1958.0	1958.0	1950.0	1950.0	1961.0	1961.0	1961.0	1946.0	1946.0	1927.0	1927.0	1927.0	1982.0	1982.0	1928.0	1928.0	1927.0	1927.0	1927.0	1919.0	1919.0	1934.0	1934.0	1934.0	1977.0	1977.0	1989.0	1989.0	1989.0	1921.0	1921.0	1987.0	1987.0	1987.0	1965.0	1965.0	1979.0	1979.0	1979.0	1915.0	1915.0	1969.0	1969.0	1969.0	1895.0	1895.0	1936.0	1936.0	1936.0	1891.0	1891.0	1916.0	1916.0	1916.0	1948.0	1948.0	1964.0	1964.0	1964.0	1953.0	1953.0	1883.0	1883.0	1883.0	1949.0	1949.0	1927.0	1927.0	1927.0	1897.0	1897.0	1929.0	1929.0	1929.0	1933.0	1933.0	1937.0	1937.0	1937.0	1887.0	1887.0	1940.0	1940.0	1940.0	1873.0	1873.0	1871.0	1871.0	1871.0	1940.0	1940.0	1936.0	1936.0	1936.0	1912.0	1912.0	1859.0	1859.0	1859.0	1923.0	1923.0	1900.0	1900.0	1900.0	1851.0	1851.0	1851.0	1851.0	1851.0	1908.0	1908.0	1917.0	1917.0	1917.0	1870.0	1870.0	1912.0	1912.0	1912.0	1920.0	1920.0	1904.0	1904.0	1904.0	1902.0	1902.0	1882.0	1882.0	1882.0	1895.0	1895.0	1831.0	1831.0	1831.0	1846.0	1846.0	1903.0	1903.0	1903.0	1893.0	1893.0	1825.0	1825.0	1825.0	1868.0	1868.0	1817.0	1817.0	1817.0	1805.0	1805.0	1808.0	1808.0	1808.0	1853.0	1853.0	1860.0	1860.0	1860.0	1845.0	1845.0	1808.0	1808.0	1808.0	1788.0	1788.0	1867.0	1867.0	1867.0	1803.0	1803.0	1853.0	1853.0	1853.0	1843.0	1843.0	1824.0	1824.0	1824.0	1775.0	1775.0	1833.0	1833.0	1833.0	1825.0	1825.0	1787.0	1787.0	1787.0	1835.0	1835.0	1779.0	1779.0	1779.0	1797.0	1797.0	1833.0	1833.0	1833.0	1784.0	1784.0	1767.0	1767.0	1767.0	1825.0	1825.0	1776.0	1776.0	1776.0	1766.0	1766.0	1804.0	1804.0	1804.0	1826.0	1826.0	1750.0	1750.0	1799.0	1799.0	1799.0	1777.0	1777.0	1808.0	1808.0	1808.0	1781.0	1781.0	1756.0	1756.0	1756.0	1798.0	1798.0	1738.0	1738.0	1738.0	1737.0	1737.0	1800.0	1800.0	1800.0	1791.0	1791.0	1744.0	1744.0	1744.0	1731.0	1731.0	1776.0	1776.0	1776.0	1791.0	1791.0	1756.0	1756.0	1756.0	1796.0	1796.0	1803.0	1803.0	1803.0	1746.0	1746.0	1766.0	1766.0	1766.0	