1851.0	1825.0	1825.0	1777.0	1777.0	1844.0	1844.0	1844.0	1826.0	1826.0	1842.0	1842.0	1842.0	1764.0	1764.0	1812.0	1812.0	1812.0	1797.0	1797.0	1773.0	1773.0	1773.0	1830.0	1830.0	1800.0	1800.0	1800.0	1821.0	1821.0	1839.0	1839.0	1839.0	1780.0	1780.0	1806.0	1806.0	1806.0	1789.0	1789.0	1808.0	1808.0	1808.0	1807.0	1807.0	1819.0	1819.0	1819.0	1782.0	1782.0	1750.0	1750.0	1750.0	1817.0	1817.0	1746.0	1746.0	1746.0	1759.0	1759.0	1825.0	1825.0	1825.0	1762.0	1762.0	1800.0	1800.0	1800.0	1802.0	1802.0	1833.0	1833.0	1833.0	1766.0	1766.0	1745.0	1745.0	1745.0	1827.0	1827.0	1763.0	1763.0	1763.0	1745.0	1745.0	1742.0	1742.0	1742.0	1827.0	1827.0	1819.0	1819.0	1819.0	1804.0	1804.0	1773.0	1773.0	1773.0	1817.0	1817.0	1744.0	1744.0	1744.0	1761.0	1761.0	1763.0	1763.0	1763.0	1756.0	1756.0	1745.0	1745.0	1745.0	1823.0	1823.0	1817.0	1817.0	1817.0	1831.0	1831.0	1752.0	1752.0	1752.0	1807.0	1807.0	1753.0	1753.0	1753.0	1786.0	1786.0	1833.0	1833.0	1833.0	1827.0	1827.0	1761.0	1761.0	1761.0	1748.0	1748.0	1743.0	1743.0	1743.0	1759.0	1759.0	1826.0	1826.0	1826.0	1777.0	1777.0	1773.0	1773.0	1773.0	1818.0	1818.0	1809.0	1809.0	1809.0	1757.0	1757.0	1823.0	1823.0	1823.0	1767.0	1767.0	1740.0	1740.0	1740.0	1733.0	1733.0	1758.0	1758.0	1758.0	1731.0	1731.0	1786.0	1786.0	1786.0	1730.0	1730.0	1817.0	1817.0	1817.0	1791.0	1791.0	1816.0	1816.0	1816.0	1773.0	1773.0	1747.0	1747.0	1747.0	1755.0	1755.0	1818.0	1818.0	1818.0	1817.0	1817.0	1730.0	1730.0	1730.0	1815.0	1815.0	1775.0	1775.0	1815.0	1815.0	1815.0	1747.0	1747.0	1731.0	1731.0	1731.0	1734.0	1734.0	1775.0	1775.0	1775.0	1814.0	1814.0	1740.0	1740.0	1740.0	1815.0	1815.0	1824.0	1824.0	1824.0	1753.0	1753.0	1803.0	1803.0	1803.0	1818.0	1818.0	1730.0	1730.0	1730.0	1762.0	1762.0	1822.0	1822.0	1822.0	1809.0	1809.0	1829.0	1829.0	1829.0	1770.0	1770.0	1838.0	1838.0	1838.0	1820.0	1820.0	1776.0	1776.0	1776.0	1834.0	1834.0	1778.0	1778.0	1778.0	1792.0	1792.0	1893.0	1893.0	1893.0	1847.0	1847.0	1850.0	1850.0	1850.0	1920.0	1920.0	1918.0	1918.0	1918.0	1943.0	1943.0	1909.0	1909.0	1909.0	1981.0	1981.0	1984.0	1984.0	1984.0	2024.0	2024.0	2027.0	2027.0	2027.0	2065.0	2065.0	2022.0	2022.0	2022.0	2100.0	2100.0	2094.0	2094.0	2094.0	2043.0	2043.0	2152.0	2152.0	2152.0	2164.0	2164.0	2188.0	2188.0	2188.0	2200.0	2200.0	2157.0	2157.0	2157.0	2154.0	2154.0	2213.0	2213.0	2213.0	2278.0	2278.0	2287.0	2287.0	2287.0	2219.0	2219.0	2238.0	2238.0	2238.0	2327.0	2327.0	2277.0	2277.0	2277.0	2356.0	2356.0	2318.0	2318.0	2318.0	2318.0	2318.0	2314.0	2314.0	2314.0	2399.0	2399.0	2409.0	2409.0	2409.0	2347.0	2347.0	2360.0	2360.0	2360.0	2446.0	2446.0	2414.0	2414.0	2414.0	2392.0	2392.0	2382.0	2382.0	2382.0	2457.0	2457.0	2472.0	2472.0	2472.0	2413.0	2413.0	2415.0	2415.0	2415.0	2418.0	2418.0	2480.0	2480.0	2480.0	2511.0	2511.0	2499.0	2499.0	2499.0	2433.0	2433.0	2520.0	2520.0	2520.0	2466.0	2466.0	2519.0	2519.0	2519.0	2474.0	2474.0	2480.0	2480.0	2480.0	2465.0	2465.0	2461.0	2461.0	2530.0	2530.0	2530.0	2517.0	2517.0	2495.0	2495.0	2495.0	2460.0	2460.0	2465.0	2465.0	2465.0	2526.0	2526.0	2456.0	2456.0	2456.0	2535.0	2535.0	2539.0	2539.0	2539.0	2449.0	2449.0	2439.0	2439.0	2439.0	2433.0	2433.0	2432.0	2432.0	2432.0	2509.0	2509.0	2451.0	2451.0	2451.0	2430.0	2430.0	2453.0	2453.0	2453.0	2424.0	2424.0	2424.0	2424.0	2424.0	2500.0	2500.0	2470.0	2470.0	2470.0	2488.0	2488.0	2398.0	2398.0	2398.0	2424.0	2424.0	2390.0	2390.0	2390.0	2416.0	2416.0	2403.0	2403.0	2403.0	2449.0	2449.0	2375.0	2375.0	2375.0	2391.0	2391.0	2382.0	2382.0	2382.0	2352.0	2352.0	2332.0	2332.0	2332.0	2380.0	2380.0	2315.0	2315.0	2315.0	2310.0	2310.0	2317.0	2317.0	2317.0	2374.0	2374.0	2307.0	2307.0	2307.0	2345.0	2345.0	2306.0	2306.0	2306.0	2269.0	2269.0	2330.0	2330.0	2330.0	2319.0	2319.0	2251.0	2251.0	2251.0	2296.0	2296.0	2221.0	2221.0	2221.0	2210.0	2210.0	2243.0	2243.0	2243.0	2194.0	2194.0	2235.0	2235.0	2235.0	2248.0	2248.0	2248.0	2248.0	2248.0	2160.0	2160.0	2172.0	2172.0	2172.0	2151.0	2151.0	2134.0	2134.0	2134.0	2140.0	2140.0	2177.0	2177.0	2177.0	2129.0	2129.0	2194.0	2194.0	2194.0	2126.0	2126.0	2102.0	2102.0	2102.0	2168.0	2168.0	2166.0	2166.0	2166.0	2154.0	2154.0	2083.0	2083.0	2083.0	2152.0	2152.0	2120.0	2120.0	2120.0	2095.0	2095.0	2069.0	2069.0	2069.0	2074.0	2074.0	2143.0	2143.0	2143.0	2080.0	2080.0	2127.0	2127.0	2127.0	2059.0	2059.0	2081.0	2081.0	2081.0	2058.0	2058.0	2051.0	2051.0	2051.0	2119.0	2119.0	2026.0	2026.0	2026.0	2083.0	2083.0	2043.0	2043.0	2100.0	2100.0	2100.0	2066.0	2066.0	2015.0	2015.0	2015.0	2086.0	2086.0	2003.0	2003.0	2003.0	2079.0	2079.0	2034.0	2034.0	2034.0	1987.0	1987.0	1988.0	1988.0	1988.0	2061.0	2061.0	2041.0	2041.0	2041.0	2045.0	2045.0	2021.0	2021.0	2021.0	1995.0	1995.0	2051.0	2051.0	2051.0	2028.0	2028.0	2049.0	2049.0	2049.0	2028.0	2028.0	1949.0	1949.0	1949.0	1962.0	1962.0	1966.0	1966.0	1966.0	2023.0	2023.0	1948.0	1948.0	1948.0	1936.0	1936.0	1991.0	1991.0	1991.0	1998.0	1998.0	2008.0	2008.0	2008.0	2005.0	2005.0	1913.0	1913.0	1913.0	1936.0	1936.0	1930.0	1930.0	1930.0	1953.0	1953.0	1946.0	1946.0	1946.0	1951.0	1951.0	1970.0	1970.0	1970.0	1979.0	1979.0	1961.0	1961.0	1961.0	1980.0	1980.0	1945.0	1945.0	1945.0	1923.0	1923.0	1946.0	1946.0	1946.0	1974.0	1974.0	1912.0	1912.0	1912.0	1960.0	1960.0	1885.0	1885.0	1885.0	1930.0	1930.0	1878.0	1878.0	1878.0	1873.0	1873.0	1884.0	1884.0	1884.0	1875.0	1875.0	1932.0	1932.0	1932.0	1927.0	1927.0	1916.0	1916.0	1916.0	1879.0	1879.0	1856.0	1856.0	1856.0	1933.0	1933.0	1928.0	1928.0	1928.0	1900.0	1900.0	1869.0	1869.0	1869.0	1872.0	1872.0	1887.0	1887.0	1887.0	1864.0	1864.0	1913.0	1913.0	1913.0	1834.0	1834.0	1842.0	1842.0	1842.0	1830.0	1830.0	1896.0	1896.0	1896.0	1851.0	1851.0	1904.0	1904.0	1904.0	1908.0	1908.0	1815.0	1815.0	1815.0	1841.0	1841.0	1812.0	1812.0	1812.0	1826.0	1826.0	1833.0	1833.0	1833.0	1889.0	1889.0	1838.0	1838.0	1838.0	1870.0	1870.0	1834.0	1834.0	1834.0	1803.0	1803.0	1872.0	1872.0	1882.0	1882.0	1882.0	1798.0	1798.0	1879.0	1879.0	1879.0	1843.0	1843.0	1862.0	1862.0	1862.0	1864.0	1864.0	1857.0	1857.0	1857.0	1823.0	1823.0	1782.0	1782.0	1782.0	1862.0	1862.0	1812.0	1812.0	1812.0	1844.0	1844.0	1868.0	1868.0	1868.0	1794.0	1794.0	1863.0	1863.0	1863.0	1838.0	1838.0	1791.0	1791.0	1791.0	1779.0	1779.0	1834.0	1834.0	1834.0	1777.0	1777.0	1775.0	1775.0	1775.0	1839.0	1839.0	1807.0	1807.0	1807.0	1823.0	1823.0	1831.0	1831.0	1831.0	1847.0	1847.0	1846.0	1846.0	1846.0	1761.0	1761.0	1816.0	1816.0	1816.0	1786.0	1786.0	1776.0	1776.0	1776.0	1754.0	1754.0	1824.0	1824.0	1824.0	1781.0	1781.0	1763.0	1763.0	1763.0	1842.0	1842.0	1771.0	1771.0	1771.0	1777.0	1777.0	1748.0	1748.0	1748.0	1822.0	1822.0	1779.0	1779.0	1779.0	1785.0	1785.0	1789.0	1789.0	1789.0	1815.0	1815.0	1774.0	1774.0	1774.0	1741.0	1741.0	1740.0	1740.0	1740.0	1736.0	1736.0	1802.0	1802.0	1802.0	1734.0	1734.0	1752.0	1752.0	1752.0	1821.0	1821.0	1818.0	1818.0	1818.0	1797.0	1797.0	1776.0	1776.0	1776.0	1731.0	1731.0	1739.0	1739.0	1739.0	1776.0	1776.0	1811.0	1811.0	1811.0	1734.0	1734.0	1778.0	1778.0	1778.0	1822.0	1822.0	1807.0	1807.0	1807.0	1776.0	1776.0	1807.0	1807.0	1807.0	1769.0	1769.0	1783.0	1783.0	1783.0	1794.0	1794.0	1736.0	1736.0	1736.0	1771.0	1771.0	1807.0	1807.0	1807.0	1797.0	1797.0	1782.0	1782.0	1782.0	1728.0	1728.0	1811.0	1811.0	1811.0	1729.0	1729.0	1779.0	1779.0	1779.0	1749.0	1749.0	1795.0	1795.0	1795.0	1777.0	1777.0	1718.0	1718.0	1787.0	1787.0	1787.0	1728.0	1728.0	1718.0	1718.0	1718.0	1796.0	1796.0	1738.0	1738.0	1738.0	1794.0	1794.0	1761.0	1761.0	1761.0	1762.0	1762.0	1764.0	1764.0	1764.0	1719.0	1719.0	1712.0	1712.0	1712.0	1717.0	1717.0	1709.0	1709.0	1709.0	1706.0	1706.0	1795.0	1795.0	1795.0	1767.0	1767.0	1789.0	1789.0	1789.0	1785.0	1785.0	1785.0	1785.0	1785.0	1715.0	1715.0	1763.0	1763.0	1763.0	1750.0	1750.0	1804.0	1804.0	1804.0	1728.0	1728.0	1753.0	1753.0	1753.0	1799.0	1799.0	1741.0	1741.0	1741.0	1791.0	1791.0	1835.0	1835.0	1835.0	1823.0	1823.0	1811.0	1811.0	1811.0	1851.0	1851.0	1825.0	1825.0	1825.0	1826.0	1826.0	1886.0	1886.0	1886.0	1890.0	1890.0	1865.0	1865.0	1865.0	1936.0	1936.0	1947.0	1947.0	1947.0	1993.0	1993.0	1932.0	1932.0	1932.0	2023.0	2023.0	1960.0	1960.0	1960.0	1976.0	1976.0	2021.0	2021.0	2021.0	2078.0	2078.0	2035.0	2035.0	2035.0	2091.0	2091.0	2102.0	2102.0	2102.0	2084.0	2084.0	2108.0	2108.0	2108.0	2170.0	2170.0	2194.0	2194.0	2194.0	2152.0	2152.0	2248.0	2248.0	2248.0	2212.0	2212.0	2222.0	2222.0	2222.0	2201.0	2201.0	2261.0	2261.0	2261.0	2297.0	2297.0	2264.0	2264.0	2264.0	2249.0	2249.0	2276.0	2276.0	2276.0	2295.0	2295.0	2360.0	2360.0	2360.0	2297.0	2297.0	2297.0	2297.0	2297.0	2393.0	2393.0	2395.0	2395.0	2395.0	2377.0	2377.0	2335.0	2335.0	2335.0	2383.0	2383.0	2389.0	2389.0	2389.0	2382.0	2382.0	2411.0	2411.0	2411.0	2330.0	2330.0	2341.0	2341.0	2341.0	2374.0	2374.0	2403.0	2403.0	2403.0	2340.0	2340.0	2354.0	2354.0	2354.0	2413.0	2413.0	2426.0	2426.0	2430.0	2430.0	2430.0	2422.0	2422.0	2412.0	2412.0	2412.0	2338.0	2338.0	2342.0	2342.0	2342.0	2343.0	2343.0	2423.0	2423.0	2423.0	2380.0	2380.0	2326.0	2326.0	2326.0	2343.0	2343.0	2411.0	2411.0	2411.0	2339.0	2339.0	2407.0	2407.0	2407.0	2388.0	2388.0	2363.0	2363.0	2363.0	2373.0	2373.0	2339.0	2339.0	2339.0	2346.0	2346.0	2365.0	2365.0	2365.0	2308.0	2308.0	2363.0	2363.0	2363.0	2298.0	2298.0	2291.0	2291.0	2291.0	2354.0	2354.0	2295.0	2295.0	2295.0	2324.0	2324.0	2307.0	2307.0	2307.0	2259.0	2259.0	2316.0	2316.0	2316.0	2336.0	2336.0	2238.0	2238.0	2238.0	2289.0	2289.0	2287.0	2287.0	2287.0	2288.0	2288.0	2268.0	2268.0	2268.0	2279.0	2279.0	2270.0	2270.0	2270.0	2178.0	2178.0	2256.0	2256.0	2256.0	2246.0	2246.0	2149.0	2149.0	2149.0	2160.0	2160.0	2148.0	2148.0	2148.0	2143.0	2143.0	2140.0	2140.0	2140.0	2130.0	2130.0	2204.0	2204.0	2204.0	2186.0	2186.0	2170.0	2170.0	2170.0	2100.0	2100.0	2112.0	2112.0	2112.0	2091.0	2091.0	2123.0	2123.0	2123.0	2107.0	2107.0	2139.0	2139.0	2139.0	2135.0	2135.0	2076.0	2076.0	2076.0	2045.0	2045.0	2042.0	2042.0	2042.0	2049.0	2049.0	2115.0	2115.0	2115.0	2064.0	2064.0	2056.0	2056.0	2056.0	2098.0	2098.0	2046.0	2046.0	2046.0	2027.0	2027.0	1999.0	1999.0	1999.0	2073.0	2073.0	2014.0	2014.0	2014.0	2053.0	2053.0	2046.0	2046.0	2046.0	2020.0	2020.0	1994.0	1994.0	1994.0	2007.0	2007.0	2050.0	2050.0	2050.0	1964.0	1964.0	1967.0	1967.0	1967.0	1995.0	1995.0	2011.0	2011.0	2011.0	2015.0	2015.0	1952.0	1952.0	2007.0	2007.0	2007.0	1987.0	1987.0	2030.0	2030.0	2030.0	2025.0	2025.0	2002.0	2002.0	2002.0	2025.0	2025.0	1963.0	1963.0	1963.0	1977.0	1977.0	2020.0	2020.0	2020.0	1931.0	1931.0	1928.0	1928.0	1928.0	2003.0	2003.0	2003.0	2003.0	2003.0	1967.0	1967.0	1950.0	1950.0	1950.0	1975.0	1975.0	1963.0	1963.0	1963.0	1908.0	1908.0	1983.0	1983.0	1983.0	1907.0	1907.0	1934.0	1934.0	1934.0	1946.0	1946.0	1968.0	1968.0	1968.0	1978.0	1978.0	1910.0	1910.0	1910.0	1923.0	1923.0	1899.0	1899.0	1899.0	1927.0	1927.0	1938.0	1938.0	1938.0	1911.0	1911.0	1922.0	1922.0	1922.0	1875.0	1875.0	1942.0	1942.0	1942.0	1936.0	1936.0	1851.0	1851.0	1851.0	1915.0	1915.0	1895.0	1895.0	1895.0	1851.0	1851.0	1855.0	1855.0	1855.0	1855.0	1855.0	1902.0	1902.0	1902.0	1840.0	1840.0	1918.0	1918.0	1918.0	1853.0	1853.0	1901.0	1901.0	1901.0	1869.0	1869.0	1832.0	1832.0	1832.0	1891.0	1891.0	1893.0	1893.0	1893.0	1827.0	1827.0	1820.0	1820.0	1820.0	1912.0	1912.0	1885.0	1885.0	1885.0	1842.0	1842.0	1820.0	1820.0	1820.0	1833.0	1833.0	1823.0	1823.0	1823.0	1833.0	1833.0	1844.0	1844.0	1844.0	1825.0	1825.0	1881.0	1881.0	1881.0	1892.0	1892.0	1860.0	1860.0	1860.0	1814.0	1814.0	1863.0	1863.0	1863.0	1880.0	1880.0	1812.0	1812.0	1812.0	1839.0	1839.0	1807.0	1807.0	1807.0	1834.0	1834.0	1859.0	1859.0	1859.0	1801.0	1801.0	1799.0	1799.0	1799.0	1799.0	1799.0	1810.0	1810.0	1810.0	1792.0	1792.0	1855.0	1855.0	1855.0	1786.0	1786.0	1795.0	1795.0	1795.0	1861.0	1861.0	1857.0	1857.0	1857.0	1788.0	1788.0	1854.0	1854.0	1845.0	1845.0	1845.0	1772.0	1772.0	1852.0	1852.0	1852.0	1784.0	1784.0	1814.0	1814.0	1814.0	1791.0	1791.0	1803.0	1803.0	1803.0	1814.0	1814.0	1835.0	1835.0	1835.0	1779.0	1779.0	1854.0	1854.0	1854.0	1780.0	1780.0	1762.0	1762.0	1762.0	1804.0	1804.0	1846.0	1846.0	1846.0	1771.0	1771.0	1824.0	1824.0	1824.0	1803.0	1803.0	1774.0	1774.0	1774.0	1768.0	1768.0	1843.0	1843.0	1843.0	1838.0	1838.0	1786.0	1786.0	1786.0	1824.0	1824.0	1791.0	1791.0	1791.0	1763.0	1763.0	1756.0	1756.0	1756.0	1835.0	1835.0	1775.0	1775.0	1775.0	1844.0	1844.0	1790.0	1790.0	1790.0	1783.0	1783.0	1794.0	1794.0	1794.0	1820.0	1820.0	1816.0	1816.0	1816.0	1744.0	1744.0	1759.0	1759.0	1759.0	1749.0	1749.0	1749.0	1749.0	1749.0	1746.0	1746.0	1833.0	1833.0	1833.0	1737.0	1737.0	1747.0	1747.0	1747.0	1752.0	1752.0	1730.0	1730.0	1730.0	1758.0	1758.0	1771.0	1771.0	1771.0	1750.0	1750.0	1766.0	1766.0	1766.0	1785.0	1785.0	1732.0	1732.0	1732.0	1748.0	1748.0	1782.0	1782.0	1782.0	1753.0	1753.0	1823.0	1823.0	1823.0	1807.0	1807.0	1763.0	1763.0	1763.0	1830.0	1830.0	1745.0	1745.0	1745.0	1830.0	1830.0	1808.0	1808.0	1808.0	1811.0	1811.0	1814.0	1814.0	1814.0	1749.0	1749.0	1839.0	1839.0	1839.0	1804.0	1804.0	1814.0	1814.0	1814.0	1809.0	1809.0	1821.0	1821.0	1821.0	1827.0	1827.0	1776.0	1776.0	1776.0	1788.0	1788.0	1748.0	1748.0	1748.0	1788.0	1788.0	1760.0	1760.0	1760.0	1800.0	1800.0	1807.0	1807.0	1807.0	1734.0	1734.0	1770.0	1770.0	1770.0	1763.0	1763.0	1815.0	1815.0	1727.0	1727.0	1727.0	1793.0	1793.0	1809.0	1809.0	1809.0	1762.0	1762.0	1745.0	1745.0	1745.0	1824.0	1824.0	1745.0	1745.0	1745.0	1743.0	1743.0	1745.0	1745.0	1745.0	1752.0	1752.0	1778.0	1778.0	1778.0	1755.0	1755.0	1743.0	1743.0	1743.0	1801.0	1801.0	1820.0	1820.0	1820.0	1775.0	1775.0	1813.0	1813.0	1813.0	1742.0	1742.0	1819.0	1819.0	1819.0	1742.0	1742.0	1743.0	1743.0	1743.0	1793.0	1793.0	1821.0	1821.0	1821.0	1770.0	1770.0	1831.0	1831.0	1831.0	1791.0	1791.0	1764.0	1764.0	1764.0	1802.0	1802.0	1795.0	1795.0	1795.0	1807.0	1807.0	1799.0	1799.0	1799.0	1807.0	1807.0	1844.0	1844.0	1844.0	1840.0	1840.0	1893.0	1893.0	1893.0	1870.0	1870.0	1932.0	1932.0	1932.0	1930.0	1930.0	1943.0	1943.0	1943.0	1945.0	1945.0	1921.0	1921.0	1921.0	1939.0	1939.0	2030.0	2030.0	2030.0	2022.0	2022.0	2063.0	2063.0	2063.0	2015.0	2015.0	2044.0	2044.0	2044.0	2130.0	2130.0	2065.0	2065.0	2065.0	2129.0	2129.0	2104.0	2104.0	2104.0	2208.0	2208.0	2155.0	2155.0	2155.0	2211.0	2211.0	2231.0	2231.0	2231.0	2211.0	2211.0	2275.0	2275.0	2275.0	2313.0	2313.0	2319.0	2319.0	2319.0	2306.0	2306.0	2269.0	2269.0	2269.0	2296.0	2296.0	2331.0	2331.0	2331.0	2395.0	2395.0	2354.0	2354.0	2354.0	2341.0	2341.0	2434.0	2434.0	2434.0	2388.0	2388.0	2397.0	2397.0	2397.0	2375.0	2375.0	2440.0	2440.0	2440.0	2450.0	2450.0	2398.0	2398.0	2398.0	2472.0	2472.0	2420.0	2420.0	2420.0	2483.0	2483.0	2442.0	2442.0	2442.0	2436.0	2436.0	2432.0	2432.0	2432.0	2522.0	2522.0	2493.0	2493.0	2533.0	2533.0	2533.0	2448.0	2448.0	2462.0	2462.0	2462.0	2467.0	2467.0	2525.0	2525.0	2525.0	2508.0	2508.0	2521.0	2521.0	2521.0	2469.0	2469.0	2533.0	2533.0	2533.0	2461.0	2461.0	2547.0	2547.0	2547.0	2473.0	2473.0	2465.0	2465.0	2465.0	2521.0	2521.0	2486.0	2486.0	2486.0	2486.0	2486.0	2519.0	2519.0	2519.0	2522.0	2522.0	2522.0	2522.0	2522.0	2515.0	2515.0	2444.0	2444.0	2444.0	2478.0	2478.0	2486.0	2486.0	2486.0	2466.0	2466.0	