2033.0	2033.0	2033.0	2087.0	2087.0	2089.0	2089.0	2089.0	2079.0	2079.0	2037.0	2037.0	2037.0	2004.0	2004.0	2029.0	2029.0	2029.0	2054.0	2054.0	2074.0	2074.0	2074.0	2078.0	2078.0	1999.0	1999.0	1999.0	1983.0	1983.0	2050.0	2050.0	2050.0	1980.0	1980.0	1965.0	1965.0	1965.0	1992.0	1992.0	1978.0	1978.0	1978.0	1975.0	1975.0	1983.0	1983.0	1983.0	2025.0	2025.0	2035.0	2035.0	2035.0	1975.0	1975.0	2009.0	2009.0	2009.0	1965.0	1965.0	2008.0	2008.0	2008.0	1955.0	1955.0	1989.0	1989.0	1989.0	2021.0	2021.0	1963.0	1963.0	1963.0	2016.0	2016.0	1928.0	1928.0	1928.0	1923.0	1923.0	1918.0	1918.0	1918.0	1996.0	1996.0	1924.0	1924.0	1924.0	1982.0	1982.0	1936.0	1936.0	1936.0	1929.0	1929.0	1988.0	1988.0	1988.0	1950.0	1950.0	1968.0	1968.0	1968.0	1897.0	1897.0	1927.0	1927.0	1927.0	1975.0	1975.0	1964.0	1964.0	1964.0	1892.0	1892.0	1963.0	1963.0	1963.0	1921.0	1921.0	1899.0	1899.0	1899.0	1947.0	1947.0	1961.0	1961.0	1961.0	1952.0	1952.0	1928.0	1928.0	1928.0	1886.0	1886.0	1870.0	1870.0	1870.0	1913.0	1913.0	1932.0	1932.0	1932.0	1875.0	1875.0	1876.0	1876.0	1876.0	1884.0	1884.0	1885.0	1885.0	1885.0	1873.0	1873.0	1869.0	1869.0	1869.0	1936.0	1936.0	1866.0	1866.0	1866.0	1895.0	1895.0	1947.0	1947.0	1947.0	1912.0	1912.0	1855.0	1855.0	1855.0	1889.0	1889.0	1943.0	1943.0	1943.0	1899.0	1899.0	1928.0	1928.0	1928.0	1860.0	1860.0	1889.0	1889.0	1855.0	1855.0	1855.0	1939.0	1939.0	1923.0	1923.0	1923.0	1876.0	1876.0	1886.0	1886.0	1886.0	1849.0	1849.0	1881.0	1881.0	1881.0	1843.0	1843.0	1886.0	1886.0	1886.0	1838.0	1838.0	1907.0	1907.0	1907.0	1852.0	1852.0	1862.0	1862.0	1862.0	1868.0	1868.0	1868.0	1868.0	1868.0	1893.0	1893.0	1836.0	1836.0	1836.0	1863.0	1863.0	1891.0	1891.0	1891.0	1883.0	1883.0	1903.0	1903.0	1903.0	1830.0	1830.0	1837.0	1837.0	1837.0	1902.0	1902.0	1888.0	1888.0	1888.0	1868.0	1868.0	1868.0	1868.0	1868.0	1838.0	1838.0	1829.0	1829.0	1829.0	1844.0	1844.0	1873.0	1873.0	1873.0	1811.0	1811.0	1851.0	1851.0	1851.0	1826.0	1826.0	1822.0	1822.0	1822.0	1898.0	1898.0	1849.0	1849.0	1849.0	1816.0	1816.0	1811.0	1811.0	1811.0	1805.0	1805.0	1800.0	1800.0	1800.0	1847.0	1847.0	1816.0	1816.0	1816.0	1862.0	1862.0	1862.0	1862.0	1862.0	1801.0	1801.0	1825.0	1825.0	1825.0	1862.0	1862.0	1807.0	1807.0	1807.0	1875.0	1875.0	1818.0	1818.0	1818.0	1840.0	1840.0	1808.0	1808.0	1808.0	1789.0	1789.0	1843.0	1843.0	1843.0	1876.0	1876.0	1811.0	1811.0	1811.0	1871.0	1871.0	1819.0	1819.0	1819.0	1796.0	1796.0	1810.0	1810.0	1810.0	1791.0	1791.0	1843.0	1843.0	1843.0	1824.0	1824.0	1805.0	1805.0	1805.0	1855.0	1855.0	1764.0	1764.0	1764.0	1815.0	1815.0	1847.0	1847.0	1847.0	1847.0	1847.0	1854.0	1854.0	1854.0	1808.0	1808.0	1825.0	1825.0	1825.0	1848.0	1848.0	1761.0	1761.0	1761.0	1849.0	1849.0	1770.0	1770.0	1770.0	1775.0	1775.0	1786.0	1786.0	1786.0	1863.0	1863.0	1871.0	1871.0	1871.0	1828.0	1828.0	1822.0	1822.0	1892.0	1892.0	1892.0	1811.0	1811.0	1892.0	1892.0	1892.0	1921.0	1921.0	1919.0	1919.0	1919.0	1941.0	1941.0	1904.0	1904.0	1904.0	1926.0	1926.0	1949.0	1949.0	1949.0	1973.0	1973.0	1986.0	1986.0	1986.0	1994.0	1994.0	1983.0	1983.0	1983.0	1990.0	1990.0	1996.0	1996.0	1996.0	2086.0	2086.0	2037.0	2037.0	2037.0	2102.0	2102.0	2083.0	2083.0	2083.0	2131.0	2131.0	2158.0	2158.0	2158.0	2184.0	2184.0	2121.0	2121.0	2121.0	2163.0	2163.0	2206.0	2206.0	2206.0	2165.0	2165.0	2260.0	2260.0	2260.0	2260.0	2260.0	2299.0	2299.0	2299.0	2274.0	2274.0	2310.0	2310.0	2310.0	2316.0	2316.0	2335.0	2335.0	2335.0	2283.0	2283.0	2333.0	2333.0	2333.0	2367.0	2367.0	2374.0	2374.0	2374.0	2360.0	2360.0	2368.0	2368.0	2368.0	2393.0	2393.0	2375.0	2375.0	2375.0	2414.0	2414.0	2376.0	2376.0	2376.0	2430.0	2430.0	2356.0	2356.0	2356.0	2389.0	2389.0	2383.0	2383.0	2383.0	2416.0	2416.0	2411.0	2411.0	2411.0	2455.0	2455.0	2381.0	2381.0	2381.0	2403.0	2403.0	2402.0	2402.0	2402.0	2383.0	2383.0	2399.0	2399.0	2399.0	2473.0	2473.0	2414.0	2414.0	2414.0	2387.0	2387.0	2467.0	2467.0	2467.0	2392.0	2392.0	2416.0	2416.0	2416.0	2419.0	2419.0	2409.0	2409.0	2409.0	2457.0	2457.0	2472.0	2472.0	2472.0	2405.0	2405.0	2428.0	2428.0	2428.0	2455.0	2455.0	2395.0	2395.0	2395.0	2474.0	2474.0	2459.0	2459.0	2459.0	2400.0	2400.0	2437.0	2437.0	2437.0	2462.0	2462.0	2376.0	2376.0	2376.0	2437.0	2437.0	2369.0	2369.0	2369.0	2371.0	2371.0	2357.0	2357.0	2357.0	2358.0	2358.0	2429.0	2429.0	2391.0	2391.0	2391.0	2339.0	2339.0	2374.0	2374.0	2374.0	2363.0	2363.0	2398.0	2398.0	2398.0	2313.0	2313.0	2301.0	2301.0	2301.0	2359.0	2359.0	2372.0	2372.0	2372.0	2298.0	2298.0	2354.0	2354.0	2354.0	2296.0	2296.0	2325.0	2325.0	2325.0	2291.0	2291.0	2298.0	2298.0	2298.0	2307.0	2307.0	2229.0	2229.0	2229.0	2311.0	2311.0	2300.0	2300.0	2300.0	2273.0	2273.0	2283.0	2283.0	2283.0	2219.0	2219.0	2236.0	2236.0	2236.0	2235.0	2235.0	2202.0	2202.0	2202.0	2224.0	2224.0	2154.0	2154.0	2154.0	2225.0	2225.0	2219.0	2219.0	2219.0	2127.0	2127.0	2114.0	2114.0	2114.0	2202.0	2202.0	2122.0	2122.0	2122.0	2123.0	2123.0	2140.0	2140.0	2140.0	2098.0	2098.0	2101.0	2101.0	2101.0	2144.0	2144.0	2147.0	2147.0	2147.0	2102.0	2102.0	2158.0	2158.0	2158.0	2073.0	2073.0	2112.0	2112.0	2112.0	2047.0	2047.0	2133.0	2133.0	2133.0	2090.0	2090.0	2126.0	2126.0	2126.0	2115.0	2115.0	2024.0	2024.0	2024.0	2051.0	2051.0	2023.0	2023.0	2023.0	2089.0	2089.0	2016.0	2016.0	2016.0	2086.0	2086.0	2020.0	2020.0	2020.0	2076.0	2076.0	2069.0	2069.0	2069.0	2078.0	2078.0	2081.0	2081.0	2081.0	2069.0	2069.0	2042.0	2042.0	2042.0	1991.0	1991.0	2069.0	2069.0	2069.0	2049.0	2049.0	2037.0	2037.0	2037.0	2002.0	2002.0	1969.0	1969.0	1969.0	2005.0	2005.0	1974.0	1974.0	1974.0	2044.0	2044.0	1961.0	1961.0	1961.0	2012.0	2012.0	1941.0	1941.0	1941.0	2032.0	2032.0	1951.0	1951.0	1951.0	2002.0	2002.0	1940.0	1940.0	1940.0	1937.0	1937.0	1940.0	1940.0	1940.0	1997.0	1997.0	1923.0	1923.0	1966.0	1966.0	1966.0	1975.0	1975.0	1916.0	1916.0	1916.0	1924.0	1924.0	1928.0	1928.0	1928.0	1930.0	1930.0	1954.0	1954.0	1954.0	1984.0	1984.0	1970.0	1970.0	1970.0	1918.0	1918.0	1956.0	1956.0	1956.0	1978.0	1978.0	1954.0	1954.0	1954.0	1891.0	1891.0	1894.0	1894.0	1894.0	1866.0	1866.0	1955.0	1955.0	1955.0	1951.0	1951.0	1951.0	1951.0	1951.0	1939.0	1939.0	1924.0	1924.0	1924.0	1941.0	1941.0	1910.0	1910.0	1910.0	1876.0	1876.0	1900.0	1900.0	1900.0	1853.0	1853.0	1883.0	1883.0	1883.0	1928.0	1928.0	1899.0	1899.0	1899.0	1893.0	1893.0	1916.0	1916.0	1916.0	1831.0	1831.0	1901.0	1901.0	1901.0	1899.0	1899.0	1892.0	1892.0	1892.0	1854.0	1854.0	1819.0	1819.0	1819.0	1817.0	1817.0	1895.0	1895.0	1895.0	1814.0	1814.0	1889.0	1889.0	1889.0	1865.0	1865.0	1842.0	1842.0	1842.0	1883.0	1883.0	1801.0	1801.0	1801.0	1806.0	1806.0	1793.0	1793.0	1793.0	1879.0	1879.0	1789.0	1789.0	1789.0	1826.0	1826.0	1807.0	1807.0	1807.0	1811.0	1811.0	1861.0	1861.0	1861.0	1870.0	1870.0	1829.0	1829.0	1829.0	1857.0	1857.0	1861.0	1861.0	1861.0	1806.0	1806.0	1803.0	1803.0	1803.0	1785.0	1785.0	1795.0	1795.0	1795.0	1818.0	1818.0	1790.0	1790.0	1790.0	1782.0	1782.0	1837.0	1837.0	1837.0	1831.0	1831.0	1847.0	1847.0	1847.0	1783.0	1783.0	1870.0	1870.0	1870.0	1768.0	1768.0	1815.0	1815.0	1815.0	1769.0	1769.0	1780.0	1780.0	1780.0	1813.0	1813.0	1832.0	1832.0	1832.0	1839.0	1839.0	1765.0	1765.0	1765.0	1824.0	1824.0	1793.0	1793.0	1793.0	1835.0	1835.0	1784.0	1784.0	1784.0	1761.0	1761.0	1796.0	1796.0	1765.0	1765.0	1765.0	1839.0	1839.0	1826.0	1826.0	1826.0	1833.0	1833.0	1782.0	1782.0	1782.0	1770.0	1770.0	1745.0	1745.0	1745.0	1837.0	1837.0	1836.0	1836.0	1836.0	1763.0	1763.0	1827.0	1827.0	1827.0	1789.0	1789.0	1749.0	1749.0	1749.0	1750.0	1750.0	1806.0	1806.0	1806.0	1825.0	1825.0	1751.0	1751.0	1751.0	1764.0	1764.0	1828.0	1828.0	1828.0	1787.0	1787.0	1757.0	1757.0	1757.0	1780.0	1780.0	1778.0	1778.0	1778.0	1747.0	1747.0	1743.0	1743.0	1743.0	1779.0	1779.0	1803.0	1803.0	1803.0	1750.0	1750.0	1826.0	1826.0	1826.0	1770.0	1770.0	1766.0	1766.0	1766.0	1741.0	1741.0	1813.0	1813.0	1813.0	1815.0	1815.0	1785.0	1785.0	1785.0	1828.0	1828.0	1730.0	1730.0	1730.0	1756.0	1756.0	1750.0	1750.0	1750.0	1831.0	1831.0	1823.0	1823.0	1823.0	1823.0	1823.0	1737.0	1737.0	1737.0	1825.0	1825.0	1736.0	1736.0	1736.0	1816.0	1816.0	1803.0	1803.0	1803.0	1809.0	1809.0	1795.0	1795.0	1795.0	1796.0	1796.0	1813.0	1813.0	1813.0	1773.0	1773.0	1724.0	1724.0	1724.0	1793.0	1793.0	1787.0	1787.0	1787.0	1768.0	1768.0	1782.0	1782.0	1782.0	1807.0	1807.0	1738.0	1738.0	1738.0	1725.0	1725.0	1811.0	1811.0	1811.0	1742.0	1742.0	1814.0	1814.0	1814.0	1734.0	1734.0	1798.0	1798.0	1798.0	1797.0	1797.0	1743.0	1743.0	1743.0	1803.0	1803.0	1802.0	1802.0	1802.0	1750.0	1750.0	1842.0	1842.0	1842.0	1763.0	1763.0	1770.0	1770.0	1770.0	1862.0	1862.0	1835.0	1835.0	1835.0	1870.0	1870.0	1801.0	1801.0	1801.0	1910.0	1910.0	1837.0	1837.0	1837.0	1872.0	1872.0	1870.0	1870.0	1965.0	1965.0	1965.0	1975.0	1975.0	1926.0	1926.0	1926.0	1934.0	1934.0	1951.0	1951.0	1951.0	1973.0	1973.0	2012.0	2012.0	2012.0	2092.0	2092.0	2018.0	2018.0	2018.0	2039.0	2039.0	2059.0	2059.0	2059.0	2082.0	2082.0	2094.0	2094.0	2094.0	2140.0	2140.0	2191.0	2191.0	2191.0	2201.0	2201.0	2236.0	2236.0	2236.0	2186.0	2186.0	2264.0	2264.0	2264.0	2253.0	2253.0	2207.0	2207.0	2207.0	2226.0	2226.0	2224.0	2224.0	2224.0	2233.0	2233.0	2241.0	2241.0	2241.0	2273.0	2273.0	2281.0	2281.0	2281.0	2345.0	2345.0	2361.0	2361.0	2361.0	2310.0	2310.0	2303.0	2303.0	2303.0	2317.0	2317.0	2396.0	2396.0	2396.0	2312.0	2312.0	2401.0	2401.0	2401.0	2323.0	2323.0	2361.0	2361.0	2361.0	2380.0	2380.0	2412.0	2412.0	2412.0	2410.0	2410.0	2339.0	2339.0	2339.0	2354.0	2354.0	2348.0	2348.0	2348.0	2346.0	2346.0	2391.0	2391.0	2391.0	2398.0	2398.0	2379.0	2379.0	2379.0	2405.0	2405.0	2395.0	2395.0	2395.0	2350.0	2350.0	2381.0	2381.0	2381.0	2344.0	2344.0	2374.0	2374.0	2374.0	2359.0	2359.0	2369.0	2369.0	2369.0	2357.0	2357.0	2399.0	2399.0	2399.0	2355.0	2355.0	2435.0	2435.0	2435.0	2397.0	2397.0	2339.0	2339.0	2339.0	2416.0	2416.0	2361.0	2361.0	2361.0	2344.0	2344.0	2358.0	2358.0	2358.0	2342.0	2342.0	2350.0	2350.0	2350.0	2328.0	2328.0	2316.0	2316.0	2316.0	2332.0	2332.0	2337.0	2337.0	2337.0	2305.0	2305.0	2298.0	2298.0	2298.0	2280.0	2280.0	2355.0	2355.0	2355.0	2355.0	2355.0	2347.0	2347.0	2347.0	2339.0	2339.0	2260.0	2260.0	2260.0	2336.0	2336.0	2245.0	2245.0	2245.0	2237.0	2237.0	2225.0	2225.0	2232.0	2232.0	2232.0	2212.0	2212.0	2206.0	2206.0	2206.0	2196.0	2196.0	2195.0	2195.0	2195.0	2189.0	2189.0	2198.0	2198.0	2198.0	2192.0	2192.0	2160.0	2160.0	2160.0	2183.0	2183.0	2212.0	2212.0	2212.0	2132.0	2132.0	2174.0	2174.0	2174.0	2125.0	2125.0	2176.0	2176.0	2176.0	2116.0	2116.0	2106.0	2106.0	2106.0	2181.0	2181.0	2114.0	2114.0	2114.0	2177.0	2177.0	2079.0	2079.0	2079.0	2083.0	2083.0	2081.0	2081.0	2081.0	2116.0	2116.0	2064.0	2064.0	2064.0	2128.0	2128.0	2056.0	2056.0	2056.0	2056.0	2056.0	2048.0	2048.0	2048.0	2068.0	2068.0	2044.0	2044.0	2044.0	2126.0	2126.0	2061.0	2061.0	2061.0	2037.0	2037.0	2082.0	2082.0	2082.0	2029.0	2029.0	2103.0	2103.0	2103.0	2038.0	2038.0	2026.0	2026.0	2026.0	2111.0	2111.0	2035.0	2035.0	2035.0	2096.0	2096.0	2009.0	2009.0	2009.0	2045.0	2045.0	2090.0	2090.0	2090.0	2068.0	2068.0	2083.0	2083.0	2083.0	2082.0	2082.0	2082.0	2082.0	2082.0	1999.0	1999.0	2081.0	2081.0	2081.0	2004.0	2004.0	1999.0	1999.0	1999.0	2070.0	2070.0	2068.0	2068.0	2068.0	1995.0	1995.0	1984.0	1984.0	1984.0	2031.0	2031.0	2055.0	2055.0	2055.0	1999.0	1999.0	2034.0	2034.0	2034.0	2002.0	2002.0	1966.0	1966.0	1966.0	2034.0	2034.0	1966.0	1966.0	1966.0	2021.0	2021.0	1972.0	1972.0	1972.0	1962.0	1962.0	1956.0	1956.0	1956.0	2040.0	2040.0	1992.0	1992.0	1992.0	1992.0	1992.0	2025.0	2025.0	2025.0	1944.0	1944.0	2008.0	2008.0	2008.0	1935.0	1935.0	1984.0	1984.0	1984.0	1983.0	1983.0	2004.0	2004.0	2004.0	1946.0	1946.0	2007.0	2007.0	2002.0	2002.0	2002.0	1959.0	1959.0	2004.0	2004.0	2004.0	1991.0	1991.0	1984.0	1984.0	1984.0	1995.0	1995.0	1939.0	1939.0	1939.0	1919.0	1919.0	1931.0	1931.0	1931.0	1943.0	1943.0	1917.0	1917.0	1917.0	1925.0	1925.0	1903.0	1903.0	1903.0	1949.0	1949.0	1959.0	1959.0	1959.0	1940.0	1940.0	1917.0	1917.0	1917.0	1972.0	1972.0	1892.0	1892.0	1892.0	1934.0	1934.0	1927.0	1927.0	1927.0	1953.0	1953.0	1896.0	1896.0	1896.0	1918.0	1918.0	1958.0	1958.0	1958.0	1937.0	1937.0	1894.0	1894.0	1894.0	1935.0	1935.0	1867.0	1867.0	1867.0	1875.0	1875.0	1945.0	1945.0	1945.0	1865.0	1865.0	1928.0	1928.0	1928.0	1934.0	1934.0	1945.0	1945.0	1945.0	1921.0	1921.0	1874.0	1874.0	1874.0	1924.0	1924.0	1896.0	1896.0	1896.0	1898.0	1898.0	1861.0	1861.0	1861.0	1929.0	1929.0	1935.0	1935.0	1935.0	1881.0	1881.0	1857.0	1857.0	1857.0	1868.0	1868.0	1893.0	1893.0	1893.0	1906.0	1906.0	1888.0	1888.0	1888.0	1907.0	1907.0	1843.0	1843.0	1843.0	1850.0	1850.0	1933.0	1933.0	1933.0	1848.0	1848.0	1890.0	1890.0	1890.0	1927.0	1927.0	1907.0	1907.0	1907.0	1913.0	1913.0	1920.0	1920.0	1920.0	1863.0	1863.0	1912.0	1912.0	1912.0	1878.0	1878.0	1914.0	1914.0	1914.0	1884.0	1884.0	1832.0	1832.0	1832.0	1905.0	1905.0	1859.0	1859.0	1859.0	1842.0	1842.0	1831.0	1831.0	1831.0	1898.0	1898.0	1824.0	1824.0	1824.0	1823.0	1823.0	1860.0	1860.0	1860.0	1838.0	1838.0	1817.0	1817.0	1817.0	1900.0	1900.0	1836.0	1836.0	1836.0	1827.0	1827.0	1847.0	1847.0	1847.0	1844.0	1844.0	1875.0	1875.0	1885.0	1885.0	1885.0	1824.0	1824.0	1874.0	1874.0	1874.0	1848.0	1848.0	1873.0	1873.0	1873.0	1842.0	1842.0	1887.0	1887.0	1887.0	1795.0	1795.0	1885.0	1885.0	1885.0	1802.0	1802.0	1795.0	1795.0	1795.0	1807.0	1807.0	1800.0	1800.0	1800.0	1829.0	1829.0	1834.0	1834.0	1834.0	1820.0	1820.0	1862.0	1862.0	1862.0	1835.0	1835.0	1835.0	1835.0	1835.0	1889.0	1889.0	1851.0	1851.0	1851.0	1828.0	1828.0	1800.0	1800.0	1800.0	1855.0	1855.0	1865.0	1865.0	1865.0	1880.0	1880.0	1817.0	1817.0	1817.0	1807.0	1807.0	1820.0	1820.0	1820.0	1885.0	1885.0	1859.0	1859.0	1859.0	1807.0	1807.0	1873.0	1873.0	1873.0	1834.0	1834.0	1802.0	1802.0	1802.0	1787.0	1787.0	1864.0	1864.0	1864.0	1854.0	1854.0	1833.0	1833.0	1833.0	1819.0	1819.0	1784.0	1784.0	1784.0	1867.0	1867.0	1836.0	1836.0	1836.0	1863.0	1863.0	1783.0	1783.0	1783.0	1816.0	1816.0	1851.0	1851.0	1851.0	1835.0	1835.0	1857.0	1857.0	1857.0	1813.0	1813.0	1854.0	1854.0	1854.0	1790.0	1790.0	1835.0	1835.0	1835.0	1780.0	1780.0	1830.0	1830.0	1830.0	1787.0	1787.0	1837.0	1837.0	1837.0	1823.0	1823.0	1819.0	1819.0	1819.0	1816.0	1816.0	1843.0	1843.0	1843.0	1882.0	1882.0	1905.0	1905.0	1905.0	1842.0	1842.0	1939.0	1939.0	1939.0	1900.0	1900.0	1881.0	1881.0	1881.0	1964.0	1964.0	1967.0	1967.0	1967.0	2001.0	2001.0	2004.0	2004.0	2004.0	1954.0	1954.0	1986.0	1986.0	1986.0	1996.0	1996.0	2001.0	2001.0	2001.0	2052.0	2052.0	2083.0	2083.0	2083.0	2116.0	2116.0	2121.0	2121.0	2121.0	2129.0	2129.0	2190.0	2190.0	2190.0	2122.0	2122.0	2150.0	2150.0	2179.0	2179.0	2179.0	2186.0	2186.0	2207.0	2207.0	2207.0	2199.0	2199.0	2236.0	2236.0	2236.0	2299.0	2299.0	2331.0	2331.0	2331.0	2271.0	2271.0	2342.0	2342.0	2342.0	2337.0	2337.0	2362.0	2362.0	2362.0	2371.0	2371.0	2374.0	2374.0	2374.0	2316.0	2316.0	2361.0	2361.0	2361.0	2386.0	2386.0	2358.0	2358.0	2358.0	2355.0	2355.0	2447.0	2447.0	2447.0	2363.0	2363.0	2426.0	2426.0	2426.0	2405.0	2405.0	2423.0	2423.0	2423.0	2379.0	2379.0	2405.0	2405.0	2405.0	2428.0	2428.0	2470.0	2470.0	2470.0	2402.0	2402.0	2482.0	2482.0	2482.0	2418.0	2418.0	