4095.0	4095.0	4095.0	4095.0	4095.0	4095.0	4095.0	4095.0	4095.0	4095.0	4095.0	4095.0	4095.0	4095.0	4095.0	4095.0	4095.0	4095.0	4095.0	4095.0	4095.0	4095.0	4095.0	4095.0	4095.0	4093.0	4093.0	4095.0	4095.0	4095.0	4095.0	4095.0	4095.0	4095.0	4095.0	4095.0	4095.0	4094.0	4094.0	4094.0	4095.0	4095.0	4095.0	4095.0	4094.0	4094.0	4094.0	4094.0	4094.0	4095.0	4095.0	4095.0	4095.0	4095.0	4095.0	4095.0	4095.0	4095.0	4095.0	4095.0	4095.0	4095.0	4095.0	4095.0	4094.0	4094.0	4094.0	4095.0	4095.0	4095.0	4095.0	4095.0	4095.0	4095.0	4093.0	4093.0	4093.0	4095.0	4095.0	4089.0	4089.0	4089.0	4095.0	4095.0	4093.0	4093.0	4093.0	4094.0	4094.0	4094.0	4094.0	4094.0	4094.0	4094.0	4095.0	4095.0	4095.0	4095.0	4095.0	4095.0	4095.0	4095.0	4095.0	4095.0	4091.0	4091.0	4091.0	4095.0	4095.0	4094.0	4094.0	4094.0	4094.0	4094.0	4095.0	4095.0	4095.0	4095.0	4095.0	4095.0	4095.0	4095.0	4095.0	4095.0	4095.0	4095.0	4095.0	4095.0	4095.0	4095.0	4095.0	4095.0	4095.0	4095.0	4095.0	4095.0	4095.0	4095.0	4095.0	4095.0	4095.0	4095.0	4095.0	4095.0	4093.0	4093.0	4093.0	4094.0	4094.0	4094.0	4094.0	4094.0	4095.0	4095.0	4095.0	4095.0	4095.0	4095.0	4095.0	4095.0	4095.0	4095.0	4095.0	4095.0	4095.0	4095.0	4095.0	4093.0	4093.0	4095.0	4095.0	4095.0	4095.0	4095.0	4095.0	4095.0	4095.0	4095.0	4095.0	4095.0	4095.0	4095.0	4095.0	4095.0	4095.0	4095.0	4095.0	4095.0	4095.0	4095.0	4095.0	4095.0	4095.0	4095.0	4095.0	4095.0	4095.0	4095.0	4095.0	4095.0	4095.0	4095.0	4095.0	4095.0	4095.0	4095.0	4095.0	4095.0	4095.0	4094.0	4094.0	4094.0	4095.0	4095.0	4094.0	4094.0	4094.0	4095.0	4095.0	4095.0	4095.0	4095.0	4093.0	4093.0	4095.0	4095.0	4095.0	4095.0	4095.0	4095.0	4095.0	4095.0	4095.0	4095.0	4092.0	4092.0	4092.0	4095.0	4095.0	4092.0	4092.0	4092.0	4095.0	4095.0	4094.0	4094.0	4095.0	4095.0	4095.0	4095.0	4095.0	4095.0	4095.0	4095.0	4095.0	4095.0	4095.0	4095.0	4095.0	4095.0	4095.0	4095.0	4095.0	4095.0	4095.0	4095.0	4095.0	4095.0	4095.0	4095.0	4095.0	4095.0	4095.0	4095.0	4095.0	4095.0	4095.0	4095.0	4095.0	4095.0	4095.0	4095.0	4095.0	4095.0	4095.0	4095.0	4094.0	4094.0	4094.0	4095.0	4095.0	4095.0	4095.0	4095.0	4095.0	4095.0	4095.0	4095.0	4095.0	4095.0	4095.0	4095.0	4095.0	4095.0	4095.0	4095.0	4095.0	4095.0	4095.0	4095.0	4095.0	4095.0	4095.0	4095.0	4095.0	4095.0	4095.0	4095.0	4095.0	4095.0	4095.0	4095.0	4095.0	4095.0	4095.0	4095.0	4095.0	4095.0	4095.0	4095.0	4095.0	4095.0	4095.0	4095.0	4094.0	4094.0	4095.0	4095.0	4095.0	4095.0	4095.0	4095.0	4095.0	4095.0	4095.0	4095.0	4095.0	4095.0	4095.0	4095.0	4095.0	4095.0	4095.0	4095.0	4095.0	4095.0	4095.0	4095.0	4095.0	4095.0	4095.0	4095.0	4095.0	4095.0	4095.0	4095.0	4095.0	4095.0	4095.0	4095.0	4095.0	4095.0	4095.0	4095.0	4094.0	4094.0	4095.0	4095.0	4095.0	4095.0	4095.0	4095.0	4095.0	4095.0	4095.0	4095.0	4095.0	4095.0	4095.0	4095.0	4095.0	4095.0	4095.0	4095.0	4095.0	4095.0	4095.0	4095.0	4095.0	4095.0	4095.0	4095.0	4095.0	4095.0	4095.0	4095.0	4094.0	4094.0	4094.0	4095.0	4095.0	4094.0	4094.0	4094.0	4095.0	4095.0	4095.0	4095.0	4095.0	4095.0	4095.0	4095.0	4095.0	4095.0	4095.0	4095.0	4095.0	4095.0	4095.0	4095.0	4095.0	4095.0	4095.0	4095.0	4095.0	4095.0	4094.0	4094.0	4094.0	4095.0	4095.0	4095.0	4095.0	4095.0	4095.0	4095.0	4095.0	4095.0	4095.0	4095.0	4095.0	4095.0	4095.0	4095.0	4095.0	4095.0	4095.0	4095.0	4095.0	4095.0	4095.0	4095.0	4095.0	4095.0	4095.0	4095.0	4095.0	4095.0	4095.0	4095.0	4095.0	4095.0	4095.0	4095.0	4095.0	4095.0	4095.0	4095.0	4095.0	4095.0	4095.0	4095.0	4095.0	4095.0	4095.0	4095.0	4095.0	4095.0	4095.0	4095.0	4095.0	4095.0	4095.0	4095.0	4095.0	4095.0	4095.0	4095.0	4095.0	4095.0	4095.0	4095.0	4095.0	4095.0	4095.0	4095.0	4095.0	4095.0	4095.0	4095.0	4095.0	4095.0	4095.0	4093.0	4093.0	4093.0	4095.0	4095.0	4095.0	4095.0	4095.0	4095.0	4095.0	4095.0	4095.0	4095.0	4095.0	4095.0	4094.0	4094.0	4094.0	4095.0	4095.0	4095.0	4095.0	4095.0	4095.0	4095.0	4095.0	4095.0	4095.0	4095.0	4095.0	4094.0	4094.0	4094.0	4095.0	4095.0	4095.0	4095.0	4095.0	4095.0	4095.0	4095.0	4095.0	4095.0	4095.0	4095.0	4094.0	4094.0	4094.0	4095.0	4095.0	4095.0	4095.0	4095.0	4095.0	4095.0	4095.0	4095.0	4095.0	4095.0	4095.0	4095.0	4095.0	4095.0	4095.0	4095.0	4095.0	4095.0	4095.0	4095.0	4095.0	4095.0	4095.0	4095.0	4095.0	4095.0	4093.0	4093.0	4093.0	4095.0	4095.0	4095.0	4095.0	4095.0	4095.0	4095.0	4095.0	4095.0	4095.0	4095.0	4095.0	4095.0	4095.0	4095.0	4095.0	4095.0	4095.0	4095.0	4095.0	4095.0	4095.0	4095.0	4095.0	4095.0	4095.0	4095.0	4095.0	4095.0	4095.0	4095.0	4095.0	4095.0	4095.0	4095.0	4095.0	4095.0	4095.0	4095.0	4095.0	4095.0	4095.0	4092.0	4092.0	4092.0	4095.0	4095.0	4095.0	4095.0	4095.0	4095.0	4095.0	4095.0	4095.0	4095.0	4095.0	4095.0	4095.0	4095.0	4095.0	4095.0	4095.0	4090.0	4090.0	4095.0	4095.0	4095.0	4095.0	4095.0	4095.0	4095.0	4095.0	4095.0	4095.0	4095.0	4095.0	4095.0	4095.0	4095.0	4093.0	4093.0	4093.0	4095.0	4095.0	4095.0	4095.0	4095.0	4095.0	4095.0	4094.0	4094.0	4094.0	4094.0	4094.0	4095.0	4095.0	4095.0	4095.0	4095.0	4095.0	4095.0	4095.0	4095.0	4095.0	4095.0	4095.0	4095.0	4095.0	4095.0	4095.0	4095.0	4095.0	4095.0	4095.0	4095.0	4095.0	4095.0	4095.0	4095.0	4095.0	4095.0	4095.0	4095.0	4095.0	4095.0	4095.0	4095.0	4095.0	4095.0	4090.0	4090.0	4090.0	4095.0	4095.0	4095.0	4095.0	4095.0	4095.0	4095.0	4095.0	4095.0	4095.0	4095.0	4095.0	4095.0	4095.0	4095.0	4095.0	4095.0	4095.0	4095.0	4095.0	4095.0	4095.0	4093.0	4093.0	4093.0	4095.0	4095.0	4090.0	4090.0	4090.0	4095.0	4095.0	4095.0	4095.0	4095.0	4095.0	4095.0	4095.0	4095.0	4095.0	4095.0	4095.0	4095.0	4095.0	4095.0	4095.0	4095.0	4095.0	4095.0	4095.0	4095.0	4095.0	4095.0	4095.0	4095.0	4094.0	4094.0	4095.0	4095.0	4095.0	4095.0	4095.0	4094.0	4094.0	4094.0	4095.0	4095.0	4095.0	4095.0	4095.0	4095.0	4095.0	4095.0	4095.0	4095.0	4095.0	4095.0	4095.0	4095.0	4095.0	4095.0	4095.0	4095.0	4095.0	4095.0	4095.0	4095.0	4095.0	4095.0	4095.0	4095.0	4095.0	4095.0	4095.0	4095.0	4095.0	4095.0	4095.0	4095.0	4095.0	4095.0	4095.0	4095.0	4095.0	4095.0	4095.0	4095.0	4095.0	4095.0	4095.0	4095.0	4095.0	4095.0	4095.0	4095.0	4095.0	4095.0	4095.0	4095.0	4095.0	4095.0	4095.0	4095.0	4095.0	4095.0	4094.0	4094.0	4095.0	4095.0	4095.0	4095.0	4095.0	4095.0	4095.0	4095.0	4095.0	4095.0	4092.0	4092.0	4095.0	4095.0	4095.0	4095.0	4095.0	4095.0	4095.0	4095.0	4095.0	4095.0	4095.0	4095.0	4095.0	4095.0	4095.0	4095.0	4095.0	4095.0	4095.0	4095.0	4095.0	4095.0	4095.0	4091.0	4091.0	4095.0	4095.0	4095.0	4095.0	4095.0	4095.0	4095.0	4095.0	4095.0	4095.0	4095.0	4095.0	4095.0	4095.0	4095.0	4095.0	4095.0	4095.0	4095.0	4095.0	4094.0	4094.0	4094.0	4094.0	4094.0	4090.0	4090.0	4090.0	4080.0	4080.0	4071.0	4071.0	4071.0	4059.0	4059.0	4042.0	4042.0	4042.0	4035.0	4035.0	4040.0	4040.0	4040.0	4024.0	4024.0	3978.0	3978.0	3978.0	3952.0	3952.0	3940.0	3940.0	3940.0	3932.0	3932.0	3935.0	3935.0	3935.0	3923.0	3923.0	3880.0	3880.0	3880.0	3862.0	3862.0	3869.0	3869.0	3869.0	3839.0	3839.0	3830.0	3830.0	3830.0	3815.0	3815.0	3780.0	3780.0	3780.0	3775.0	3775.0	3752.0	3752.0	3752.0	3763.0	3763.0	3747.0	3747.0	3747.0	3726.0	3726.0	3707.0	3707.0	3707.0	3707.0	3707.0	3697.0	3697.0	3697.0	3660.0	3660.0	3639.0	3639.0	3639.0	3656.0	3656.0	3652.0	3652.0	3652.0	3590.0	3590.0	3606.0	3606.0	3606.0	3556.0	3556.0	3600.0	3600.0	3600.0	3558.0	3558.0	3558.0	3558.0	3558.0	3523.0	3523.0	3511.0	3511.0	3511.0	3510.0	3510.0	3490.0	3490.0	3490.0	3484.0	3484.0	3451.0	3451.0	3451.0	3450.0	3450.0	3426.0	3426.0	3426.0	3418.0	3418.0	3416.0	3416.0	3416.0	3398.0	3398.0	3378.0	3378.0	3378.0	3367.0	3367.0	3376.0	3376.0	3376.0	3368.0	3368.0	3351.0	3351.0	3351.0	3328.0	3328.0	3311.0	3311.0	3311.0	3324.0	3324.0	3303.0	3303.0	3303.0	3289.0	3289.0	3270.0	3270.0	3258.0	3258.0	3258.0	3272.0	3272.0	3228.0	3228.0	3228.0	3224.0	3224.0	3218.0	3218.0	3218.0	3235.0	3235.0	3231.0	3231.0	3231.0	3178.0	3178.0	3160.0	3160.0	3160.0	3201.0	3201.0	3153.0	3153.0	3153.0	3138.0	3138.0	3171.0	3171.0	3171.0	3151.0	3151.0	3125.0	3125.0	3125.0	3116.0	3116.0	3107.0	3107.0	3107.0	3132.0	3132.0	3080.0	3080.0	3080.0	3063.0	3063.0	3047.0	3047.0	3047.0	3071.0	3071.0	3049.0	3049.0	3049.0	3028.0	3028.0	3021.0	3021.0	3021.0	3013.0	3013.0	3019.0	3019.0	3019.0	3023.0	3023.0	2999.0	2999.0	2999.0	2975.0	2975.0	2999.0	2999.0	2999.0	2984.0	2984.0	2947.0	2947.0	2947.0	2985.0	2985.0	2952.0	2952.0	2952.0	2923.0	2923.0	2922.0	2922.0	2922.0	2899.0	2899.0	2939.0	2939.0	2939.0	2904.0	2904.0	2891.0	2891.0	2891.0	2890.0	2890.0	2871.0	2871.0	2871.0	2901.0	2901.0	2876.0	2876.0	2876.0	2849.0	2849.0	2836.0	2836.0	2836.0	2858.0	2858.0	2845.0	2845.0	2845.0	2842.0	2842.0	2810.0	2810.0	2810.0	2837.0	2837.0	2819.0	2819.0	2819.0	2813.0	2813.0	2822.0	2822.0	2822.0	2787.0	2787.0	2766.0	2766.0	2766.0	2779.0	2779.0	2792.0	2792.0	2792.0	2770.0	2770.0	2767.0	2767.0	2767.0	2742.0	2742.0	2753.0	2753.0	2753.0	2735.0	2735.0	2761.0	2761.0	2761.0	2762.0	2762.0	2754.0	2754.0	2754.0	2759.0	2759.0	2741.0	2741.0	2741.0	2746.0	2746.0	2720.0	2720.0	2720.0	2734.0	2734.0	2734.0	2734.0	2734.0	2741.0	2741.0	2731.0	2731.0	2731.0	2743.0	2743.0	2753.0	2753.0	2753.0	2738.0	2738.0	2702.0	2702.0	2702.0	2716.0	2716.0	2738.0	2738.0	2714.0	2714.0	2714.0	2727.0	2727.0	2706.0	2706.0	2706.0	2717.0	2717.0	2735.0	2735.0	2735.0	2721.0	2721.0	2695.0	2695.0	2695.0	2695.0	2695.0	2713.0	2713.0	2713.0	2707.0	2707.0	2709.0	2709.0	2709.0	2701.0	2701.0	2680.0	2680.0	2680.0	2685.0	2685.0	2696.0	2696.0	2696.0	2696.0	2696.0	2703.0	2703.0	2703.0	2686.0	2686.0	2686.0	2686.0	2686.0	2678.0	2678.0	2678.0	2678.0	2678.0	2661.0	2661.0	2668.0	2668.0	2668.0	2644.0	2644.0	2656.0	2656.0	2656.0	2671.0	2671.0	2659.0	2659.0	2659.0	2670.0	2670.0	2652.0	2652.0	2652.0	2634.0	2634.0	2620.0	2620.0	2620.0	2617.0	2617.0	2632.0	2632.0	2632.0	2646.0	2646.0	2619.0	2619.0	2619.0	2604.0	2604.0	2617.0	2617.0	2617.0	2620.0	2620.0	2597.0	2597.0	2597.0	2588.0	2588.0	2583.0	2583.0	2583.0	2613.0	2613.0	2594.0	2594.0	2594.0	2566.0	2566.0	2587.0	2587.0	2587.0	2569.0	2569.0	2558.0	2558.0	2558.0	2544.0	2544.0	2554.0	2554.0	2554.0	2574.0	2574.0	2555.0	2555.0	2555.0	2537.0	2537.0	2560.0	2560.0	2560.0	2541.0	2541.0	2548.0	2548.0	2548.0	2551.0	2551.0	2505.0	2505.0	2505.0	2509.0	2509.0	2531.0	2531.0	2531.0	2539.0	2539.0	2522.0	2522.0	2522.0	2505.0	2505.0	2523.0	2523.0	2523.0	2504.0	2504.0	2477.0	2477.0	2477.0	2497.0	2497.0	2490.0	2490.0	2490.0	2501.0	2501.0	2492.0	2492.0	2492.0	2486.0	2486.0	2509.0	2509.0	2509.0	2483.0	2483.0	2445.0	2445.0	2445.0	2481.0	2481.0	2439.0	2439.0	2439.0	2443.0	2443.0	2433.0	2433.0	2433.0	2453.0	2453.0	2448.0	2448.0	2448.0	2460.0	2460.0	2439.0	2439.0	2462.0	2462.0	2462.0	2436.0	2436.0	2410.0	2410.0	2410.0	2416.0	2416.0	2431.0	2431.0	2431.0	2387.0	2387.0	2436.0	2436.0	2436.0	2431.0	2431.0	2414.0	2414.0	2414.0	2371.0	2371.0	2408.0	2408.0	2408.0	2384.0	2384.0	2381.0	2381.0	2381.0	2359.0	2359.0	2403.0	2403.0	2403.0	2396.0	2396.0	2378.0	2378.0	2378.0	2373.0	2373.0	2373.0	2373.0	2373.0	2361.0	2361.0	2339.0	2339.0	2339.0	2358.0	2358.0	2330.0	2330.0	2330.0	2367.0	2367.0	2361.0	2361.0	2361.0	2312.0	2312.0	2329.0	2329.0	2329.0	2303.0	2303.0	2346.0	2346.0	2346.0	2327.0	2327.0	2308.0	2308.0	2308.0	2333.0	2333.0	2294.0	2294.0	2294.0	2315.0	2315.0	2303.0	2303.0	2303.0	2291.0	2291.0	2294.0	2294.0	2294.0	2300.0	2300.0	2316.0	2316.0	2316.0	2319.0	2319.0	2286.0	2286.0	2286.0	2291.0	2291.0	2299.0	2299.0	2299.0	2288.0	2288.0	2276.0	2276.0	2276.0	2316.0	2316.0	2278.0	2278.0	2278.0	2298.0	2298.0	2286.0	2286.0	2286.0	2300.0	2300.0	2278.0	2278.0	2278.0	2293.0	2293.0	2256.0	2256.0	2256.0	2296.0	2296.0	2283.0	2283.0	2283.0	2273.0	2273.0	2255.0	2255.0	2255.0	2278.0	2278.0	2241.0	2241.0	2241.0	2258.0	2258.0	2255.0	2255.0	2255.0	2260.0	2260.0	2259.0	2259.0	2259.0	2256.0	2256.0	2273.0	2273.0	2273.0	2270.0	2270.0	2251.0	2251.0	2251.0	2228.0	2228.0	2239.0	2239.0	2239.0	2239.0	2239.0	2260.0	2260.0	2260.0	2250.0	2250.0	2224.0	2224.0	2224.0	2254.0	2254.0	2249.0	2249.0	2249.0	2219.0	2219.0	2246.0	2246.0	2246.0	2238.0	2238.0	2235.0	2235.0	2235.0	2221.0	2221.0	2235.0	2235.0	2235.0	2217.0	2217.0	2201.0	2201.0	2219.0	2219.0	2219.0	2190.0	2190.0	2240.0	2240.0	2240.0	2221.0	2221.0	2194.0	2194.0	2194.0	2207.0	2207.0	2174.0	2174.0	2174.0	2218.0	2218.0	2183.0	2183.0	2183.0	2176.0	2176.0	2184.0	2184.0	2184.0	2199.0	2199.0	2183.0	2183.0	2183.0	2204.0	2204.0	2185.0	2185.0	2185.0	2202.0	2202.0	2197.0	2197.0	2197.0	2203.0	2203.0	2186.0	2186.0	2186.0	2157.0	2157.0	2200.0	2200.0	2200.0	2201.0	2201.0	2168.0	2168.0	2168.0	2151.0	2151.0	2147.0	2147.0	2147.0	2148.0	2148.0	2169.0	2169.0	2169.0	2176.0	2176.0	2174.0	2174.0	2174.0	2145.0	2145.0	2155.0	2155.0	2155.0	2164.0	2164.0	2171.0	2171.0	2171.0	2160.0	2160.0	2172.0	2172.0	2172.0	2162.0	2162.0	2158.0	2158.0	2158.0	2159.0	2159.0	2124.0	2124.0	2124.0	2153.0	2153.0	2126.0	2126.0	2126.0	2143.0	2143.0	2157.0	2157.0	2157.0	2138.0	2138.0	2150.0	2150.0	2150.0	2125.0	2125.0	2110.0	2110.0	2110.0	2111.0	2111.0	2140.0	2140.0	2140.0	2105.0	2105.0	2138.0	2138.0	2138.0	2137.0	2137.0	2110.0	2110.0	2110.0	2111.0	2111.0	2139.0	2139.0	2139.0	2110.0	2110.0	2103.0	2103.0	2103.0	2104.0	2104.0	2111.0	2111.0	2111.0	2122.0	2122.0	2100.0	2100.0	2100.0	2119.0	2119.0	2104.0	2104.0	2104.0	2099.0	2099.0	2097.0	2097.0	2097.0	2089.0	2089.0	2109.0	2109.0	2109.0	2113.0	2113.0	2110.0	2110.0	2110.0	2103.0	2103.0	2116.0	2116.0	2116.0	2087.0	2087.0	2095.0	2095.0	2095.0	2102.0	2102.0	2090.0	2090.0	2090.0	2105.0	2105.0	2109.0	2109.0	2109.0	2095.0	2095.0	2104.0	2104.0	2104.0	2085.0	2085.0	2088.0	2088.0	2080.0	2080.0	2080.0	2096.0	2096.0	2074.0	2074.0	2074.0	2098.0	2098.0	2073.0	2073.0	2073.0	2077.0	2077.0	2106.0	2106.0	2106.0	2089.0	2089.0	2083.0	2083.0	2083.0	2071.0	2071.0	2080.0	2080.0	2080.0	2068.0	2068.0	2092.0	2092.0	2092.0	2097.0	2097.0	2059.0	2059.0	2059.0	2059.0	2059.0	2095.0	2095.0	2095.0	2062.0	2062.0	2079.0	2079.0	2079.0	2106.0	2106.0	2059.0	2059.0	2059.0	2052.0	2052.0	2062.0	2062.0	2062.0	2096.0	2096.0	2085.0	2085.0	2085.0	2072.0	2072.0	2056.0	2056.0	2056.0	2053.0	2053.0	2048.0	2048.0	2048.0	2053.0	2053.0	2084.0	2084.0	2084.0	2069.0	2069.0	2058.0	2058.0	2058.0	2082.0	2082.0	2070.0	2070.0	2070.0	2040.0	2040.0	2057.0	2057.0	2057.0	2066.0	2066.0	2041.0	2041.0	2041.0	2031.0	2031.0	2042.0	2042.0	2042.0	2046.0	2046.0	2032.0	2032.0	2032.0	2036.0	2036.0	2035.0	2035.0	2035.0	2034.0	2034.0	2031.0	2031.0	2031.0	2047.0	2047.0	2064.0	2064.0	2064.0	2039.0	2039.0	2066.0	2066.0	2066.0	2025.0	2025.0	2041.0	2041.0	2041.0	2028.0	2028.0	2053.0	2053.0	2053.0	2023.0	2023.0	2076.0	2076.0	2076.0	2027.0	2027.0	2024.0	2024.0	2024.0	2053.0	2053.0	2021.0	2021.0	2021.0	2055.0	2055.0	2023.0	2023.0	2023.0	2042.0	2042.0	2046.0	2046.0	2046.0	2019.0	2019.0	2053.0	2053.0	2053.0	2057.0	2057.0	2060.0	2060.0	2060.0	2047.0	2047.0	2034.0	2034.0	2034.0	2032.0	2032.0	2057.0	2057.0	2057.0	2047.0	2047.0	2074.0	2074.0	2074.0	2044.0	2044.0	2043.0	2043.0	2043.0	2027.0	2027.0	2065.0	2065.0	2065.0	2059.0	2059.0	2067.0	2067.0	2025.0	2025.0	2025.0	2079.0	2079.0	2051.0	2051.0	2051.0	2069.0	2069.0	2083.0	2083.0	2083.0	2048.0	2048.0	2098.0	2098.0	2098.0	2093.0	2093.0	2074.0	