1917.0	1917.0	1923.0	1923.0	1923.0	1923.0	1923.0	1944.0	1944.0	1944.0	1914.0	1914.0	1938.0	1938.0	1938.0	1920.0	1920.0	1923.0	1923.0	1923.0	1909.0	1909.0	1905.0	1905.0	1905.0	1915.0	1915.0	1932.0	1932.0	1932.0	1916.0	1916.0	1937.0	1937.0	1937.0	1925.0	1925.0	1917.0	1917.0	1917.0	1939.0	1939.0	1938.0	1938.0	1938.0	1947.0	1947.0	1921.0	1921.0	1921.0	1910.0	1910.0	1955.0	1955.0	1928.0	1928.0	1928.0	1903.0	1903.0	1917.0	1917.0	1917.0	1924.0	1924.0	1929.0	1929.0	1929.0	1931.0	1931.0	1917.0	1917.0	1917.0	1937.0	1937.0	1914.0	1914.0	1914.0	1908.0	1908.0	1938.0	1938.0	1938.0	1897.0	1897.0	1931.0	1931.0	1931.0	1932.0	1932.0	1891.0	1891.0	1891.0	1919.0	1919.0	1952.0	1952.0	1952.0	1914.0	1914.0	1914.0	1914.0	1914.0	1900.0	1900.0	1909.0	1909.0	1909.0	1904.0	1904.0	1922.0	1922.0	1922.0	1925.0	1925.0	1936.0	1936.0	1936.0	1931.0	1931.0	1945.0	1945.0	1945.0	1928.0	1928.0	1916.0	1916.0	1916.0	1900.0	1900.0	1911.0	1911.0	1911.0	1891.0	1891.0	1911.0	1911.0	1911.0	1893.0	1893.0	1914.0	1914.0	1914.0	1890.0	1890.0	1904.0	1904.0	1904.0	1896.0	1896.0	1908.0	1908.0	1908.0	1899.0	1899.0	1918.0	1918.0	1918.0	1938.0	1938.0	1919.0	1919.0	1919.0	1911.0	1911.0	1896.0	1896.0	1896.0	1897.0	1897.0	1905.0	1905.0	1905.0	1898.0	1898.0	1898.0	1898.0	1898.0	1930.0	1930.0	1920.0	1920.0	1920.0	1900.0	1900.0	1889.0	1889.0	1889.0	1913.0	1913.0	1916.0	1916.0	1916.0	1906.0	1906.0	1923.0	1923.0	1923.0	1940.0	1940.0	1921.0	1921.0	1921.0	1911.0	1911.0	1894.0	1894.0	1894.0	1918.0	1918.0	1911.0	1911.0	1911.0	1894.0	1894.0	1889.0	1889.0	1889.0	1931.0	1931.0	1917.0	1917.0	1917.0	1904.0	1904.0	1891.0	1891.0	1891.0	1889.0	1889.0	1907.0	1907.0	1907.0	1895.0	1895.0	1909.0	1909.0	1909.0	1916.0	1916.0	1905.0	1905.0	1905.0	1930.0	1930.0	1879.0	1879.0	1879.0	1907.0	1907.0	1924.0	1924.0	1924.0	1884.0	1884.0	1898.0	1898.0	1898.0	1933.0	1933.0	1891.0	1891.0	1881.0	1881.0	1881.0	1927.0	1927.0	1880.0	1880.0	1880.0	1883.0	1883.0	1889.0	1889.0	1889.0	1935.0	1935.0	1926.0	1926.0	1926.0	1930.0	1930.0	1887.0	1887.0	1887.0	1872.0	1872.0	1899.0	1899.0	1899.0	1931.0	1931.0	1918.0	1918.0	1918.0	1882.0	1882.0	1919.0	1919.0	1919.0	1929.0	1929.0	1916.0	1916.0	1916.0	1894.0	1894.0	1904.0	1904.0	1904.0	1888.0	1888.0	1929.0	1929.0	1929.0	1916.0	1916.0	1915.0	1915.0	1915.0	1888.0	1888.0	1898.0	1898.0	1898.0	1916.0	1916.0	1888.0	1888.0	1888.0	1894.0	1894.0	1935.0	1935.0	1935.0	1908.0	1908.0	1889.0	1889.0	1889.0	1906.0	1906.0	1930.0	1930.0	1930.0	1902.0	1902.0	1886.0	1886.0	1886.0	1880.0	1880.0	1896.0	1896.0	1896.0	1931.0	1931.0	1911.0	1911.0	1911.0	1919.0	1919.0	1910.0	1910.0	1910.0	1918.0	1918.0	1902.0	1902.0	1902.0	1915.0	1915.0	1914.0	1914.0	1914.0	1905.0	1905.0	1881.0	1881.0	1881.0	1917.0	1917.0	1893.0	1893.0	1893.0	1920.0	1920.0	1887.0	1887.0	1887.0	1926.0	1926.0	1927.0	1927.0	1927.0	1914.0	1914.0	1940.0	1940.0	1940.0	1927.0	1927.0	1934.0	1934.0	1934.0	1956.0	1956.0	1928.0	1928.0	1928.0	1952.0	1952.0	1990.0	1990.0	1990.0	1977.0	1977.0	2000.0	2000.0	2000.0	1982.0	1982.0	1994.0	1994.0	1994.0	2012.0	2012.0	2031.0	2031.0	2031.0	2016.0	2016.0	2060.0	2060.0	2060.0	2063.0	2063.0	2070.0	2070.0	2070.0	2082.0	2082.0	2083.0	2083.0	2083.0	2099.0	2099.0	2112.0	2112.0	2112.0	2121.0	2121.0	2140.0	2140.0	2140.0	2150.0	2150.0	2146.0	2146.0	2146.0	2141.0	2141.0	2153.0	2153.0	2148.0	2148.0	2148.0	2181.0	2181.0	2176.0	2176.0	2176.0	2179.0	2179.0	2188.0	2188.0	2188.0	2207.0	2207.0	2190.0	2190.0	2190.0	2211.0	2211.0	2173.0	2173.0	2173.0	2202.0	2202.0	2191.0	2191.0	2191.0	2203.0	2203.0	2221.0	2221.0	2221.0	2217.0	2217.0	2205.0	2205.0	2205.0	2211.0	2211.0	2214.0	2214.0	2214.0	2212.0	2212.0	2230.0	2230.0	2230.0	2213.0	2213.0	2242.0	2242.0	2242.0	2233.0	2233.0	2230.0	2230.0	2230.0	2247.0	2247.0	2225.0	2225.0	2225.0	2202.0	2202.0	2215.0	2215.0	2215.0	2195.0	2195.0	2238.0	2238.0	2238.0	2233.0	2233.0	2232.0	2232.0	2232.0	2209.0	2209.0	2213.0	2213.0	2213.0	2208.0	2208.0	2227.0	2227.0	2227.0	2216.0	2216.0	2200.0	2200.0	2200.0	2206.0	2206.0	2205.0	2205.0	2205.0	2215.0	2215.0	2199.0	2199.0	2199.0	2224.0	2224.0	2184.0	2184.0	2184.0	2222.0	2222.0	2219.0	2219.0	2219.0	2179.0	2179.0	2195.0	2195.0	2195.0	2194.0	2194.0	2189.0	2189.0	2189.0	2173.0	2173.0	2185.0	2185.0	2185.0	2178.0	2178.0	2221.0	2221.0	2221.0	2195.0	2195.0	2176.0	2176.0	2176.0	2162.0	2162.0	2163.0	2163.0	2163.0	2202.0	2202.0	2143.0	2143.0	2143.0	2166.0	2166.0	2182.0	2182.0	2182.0	2163.0	2163.0	2177.0	2177.0	2177.0	2141.0	2141.0	2144.0	2144.0	2144.0	2134.0	2134.0	2157.0	2157.0	2157.0	2139.0	2139.0	2126.0	2126.0	2126.0	2146.0	2146.0	2161.0	2161.0	2161.0	2126.0	2126.0	2119.0	2119.0	2119.0	2143.0	2143.0	2136.0	2136.0	2136.0	2144.0	2144.0	2114.0	2114.0	2114.0	2123.0	2123.0	2120.0	2120.0	2120.0	2123.0	2123.0	2118.0	2118.0	2118.0	2122.0	2122.0	2085.0	2085.0	2110.0	2110.0	2110.0	2102.0	2102.0	2098.0	2098.0	2098.0	2075.0	2075.0	2065.0	2065.0	2065.0	2096.0	2096.0	2081.0	2081.0	2081.0	2040.0	2040.0	2039.0	2039.0	2039.0	2066.0	2066.0	2065.0	2065.0	2065.0	2054.0	2054.0	2037.0	2037.0	2037.0	2061.0	2061.0	2023.0	2023.0	2023.0	2048.0	2048.0	2020.0	2020.0	2020.0	2035.0	2035.0	2052.0	2052.0	2052.0	2028.0	2028.0	2033.0	2033.0	2033.0	2038.0	2038.0	2056.0	2056.0	2056.0	2021.0	2021.0	2031.0	2031.0	2031.0	2039.0	2039.0	2022.0	2022.0	2022.0	2032.0	2032.0	2009.0	2009.0	2009.0	2004.0	2004.0	2031.0	2031.0	2031.0	2016.0	2016.0	2019.0	2019.0	2019.0	2031.0	2031.0	2030.0	2030.0	2030.0	1996.0	1996.0	1986.0	1986.0	1986.0	1997.0	1997.0	2016.0	2016.0	2016.0	2020.0	2020.0	2032.0	2032.0	2032.0	2019.0	2019.0	2021.0	2021.0	2021.0	1990.0	1990.0	2013.0	2013.0	2013.0	1979.0	1979.0	2005.0	2005.0	2005.0	1998.0	1998.0	2016.0	2016.0	2016.0	1999.0	1999.0	2016.0	2016.0	2016.0	2000.0	2000.0	2012.0	2012.0	2012.0	2001.0	2001.0	1998.0	1998.0	1998.0	1997.0	1997.0	1996.0	1996.0	1996.0	1988.0	1988.0	2013.0	2013.0	2013.0	2002.0	2002.0	1972.0	1972.0	1972.0	2014.0	2014.0	1991.0	1991.0	1991.0	1979.0	1979.0	1997.0	1997.0	1997.0	2008.0	2008.0	1996.0	1996.0	1996.0	1966.0	1966.0	1954.0	1954.0	1954.0	1965.0	1965.0	1985.0	1985.0	1985.0	2002.0	2002.0	1956.0	1956.0	1956.0	1991.0	1991.0	1978.0	1978.0	1978.0	1960.0	1960.0	1954.0	1954.0	1954.0	1977.0	1977.0	1976.0	1976.0	1976.0	1979.0	1979.0	1947.0	1947.0	1973.0	1973.0	1973.0	1957.0	1957.0	1972.0	1972.0	1972.0	1988.0	1988.0	1953.0	1953.0	1953.0	1952.0	1952.0	1976.0	1976.0	1976.0	1945.0	1945.0	1960.0	1960.0	1960.0	1979.0	1979.0	1945.0	1945.0	1945.0	1939.0	1939.0	1951.0	1951.0	1951.0	1935.0	1935.0	1943.0	1943.0	1943.0	1976.0	1976.0	1950.0	1950.0	1950.0	1958.0	1958.0	1961.0	1961.0	1961.0	1967.0	1967.0	1940.0	1940.0	1940.0	1926.0	1926.0	1941.0	1941.0	1941.0	1925.0	1925.0	1954.0	1954.0	1954.0	1963.0	1963.0	1934.0	1934.0	1934.0	1926.0	1926.0	1950.0	1950.0	1950.0	1926.0	1926.0	1951.0	1951.0	1951.0	1922.0	1922.0	1926.0	1926.0	1926.0	1926.0	1926.0	1966.0	1966.0	1966.0	1925.0	1925.0	1905.0	1905.0	1905.0	1905.0	1905.0	1956.0	1956.0	1956.0	1959.0	1959.0	1947.0	1947.0	1947.0	1929.0	1929.0	1952.0	1952.0	1952.0	1951.0	1951.0	1942.0	1942.0	1942.0	1925.0	1925.0	1912.0	1912.0	1912.0	1927.0	1927.0	1913.0	1913.0	1913.0	1954.0	1954.0	1947.0	1947.0	1947.0	1907.0	1907.0	1925.0	1925.0	1925.0	1912.0	1912.0	1914.0	1914.0	1914.0	1940.0	1940.0	1947.0	1947.0	1947.0	1924.0	1924.0	1909.0	1909.0	1909.0	1910.0	1910.0	1929.0	1929.0	1929.0	1937.0	1937.0	1932.0	1932.0	1932.0	1912.0	1912.0	1943.0	1943.0	1943.0	1931.0	1931.0	1907.0	1907.0	1907.0	1923.0	1923.0	1934.0	1934.0	1934.0	1938.0	1938.0	1936.0	1936.0	1936.0	1907.0	1907.0	1905.0	1905.0	1905.0	1902.0	1902.0	1927.0	1927.0	1927.0	1911.0	1911.0	1891.0	1891.0	1891.0	1935.0	1935.0	1900.0	1900.0	1900.0	1939.0	1939.0	1920.0	1920.0	1903.0	1903.0	1903.0	1917.0	1917.0	1930.0	1930.0	1930.0	1901.0	1901.0	1924.0	1924.0	1924.0	1901.0	1901.0	1901.0	1901.0	1901.0	1913.0	1913.0	1899.0	1899.0	1899.0	1915.0	1915.0	1903.0	1903.0	1903.0	1895.0	1895.0	1926.0	1926.0	1926.0	1922.0	1922.0	1899.0	1899.0	1899.0	1927.0	1927.0	1888.0	1888.0	1888.0	1904.0	1904.0	1904.0	1904.0	1904.0	1886.0	1886.0	1883.0	1883.0	1883.0	1895.0	1895.0	1889.0	1889.0	1889.0	1884.0	1884.0	1899.0	1899.0	1899.0	1902.0	1902.0	1900.0	1900.0	1900.0	1884.0	1884.0	1909.0	1909.0	1909.0	1899.0	1899.0	1915.0	1915.0	1915.0	1876.0	1876.0	1916.0	1916.0	1916.0	1868.0	1868.0	1876.0	1876.0	1876.0	1902.0	1902.0	1879.0	1879.0	1879.0	1880.0	1880.0	1877.0	1877.0	1877.0	1880.0	1880.0	1888.0	1888.0	1888.0	1875.0	1875.0	1906.0	1906.0	1906.0	1918.0	1918.0	1861.0	1861.0	1861.0	1893.0	1893.0	1922.0	1922.0	1922.0	1914.0	1914.0	1927.0	1927.0	1927.0	1910.0	1910.0	1871.0	1871.0	1871.0	1904.0	1904.0	1872.0	1872.0	1872.0	1921.0	1921.0	1921.0	1921.0	1921.0	1903.0	1903.0	1892.0	1892.0	1892.0	1888.0	1888.0	1872.0	1872.0	1872.0	1877.0	1877.0	1901.0	1901.0	1901.0	1910.0	1910.0	1879.0	1879.0	1879.0	1913.0	1913.0	1892.0	1892.0	1892.0	1883.0	1883.0	1918.0	1918.0	1918.0	1919.0	1919.0	1891.0	1891.0	1891.0	1916.0	1916.0	1915.0	1915.0	1915.0	1914.0	1914.0	1919.0	1919.0	1919.0	1893.0	1893.0	1905.0	1905.0	1905.0	1875.0	1875.0	1884.0	1884.0	1884.0	1898.0	1898.0	1892.0	1892.0	1892.0	1934.0	1934.0	1911.0	1911.0	1911.0	1894.0	1894.0	1883.0	1883.0	1914.0	1914.0	1914.0	1907.0	1907.0	1912.0	1912.0	1912.0	1919.0	1919.0	1880.0	1880.0	1880.0	1898.0	1898.0	1930.0	1930.0	1930.0	1891.0	1891.0	1888.0	1888.0	1888.0	1899.0	1899.0	1915.0	1915.0	1915.0	1934.0	1934.0	1909.0	1909.0	1909.0	1911.0	1911.0	1896.0	1896.0	1896.0	1927.0	1927.0	1884.0	1884.0	1884.0	1925.0	1925.0	1918.0	1918.0	1918.0	1901.0	1901.0	1908.0	1908.0	1908.0	1930.0	1930.0	1921.0	1921.0	1921.0	1893.0	1893.0	1909.0	1909.0	1909.0	1884.0	1884.0	1899.0	1899.0	1899.0	1929.0	1929.0	1881.0	1881.0	1881.0	1903.0	1903.0	1887.0	1887.0	1887.0	1897.0	1897.0	1891.0	1891.0	1891.0	1889.0	1889.0	1900.0	1900.0	1900.0	1904.0	1904.0	1907.0	1907.0	1907.0	1919.0	1919.0	1890.0	1890.0	1890.0	1924.0	1924.0	1902.0	1902.0	1902.0	1917.0	1917.0	1883.0	1883.0	1883.0	1899.0	1899.0	1920.0	1920.0	1920.0	1932.0	1932.0	1901.0	1901.0	1901.0	1899.0	1899.0	1889.0	1889.0	1889.0	1919.0	1919.0	1925.0	1925.0	1925.0	1905.0	1905.0	1922.0	1922.0	1922.0	1923.0	1923.0	1895.0	1895.0	1895.0	1903.0	1903.0	1889.0	1889.0	1889.0	1926.0	1926.0	1929.0	1929.0	1929.0	1916.0	1916.0	1934.0	1934.0	1934.0	1901.0	1901.0	1942.0	1942.0	1942.0	1936.0	1936.0	1911.0	1911.0	1911.0	1951.0	1951.0	1955.0	1955.0	1955.0	1987.0	1987.0	1976.0	1976.0	1976.0	1991.0	1991.0	1963.0	1963.0	1963.0	1973.0	1973.0	1971.0	1971.0	1971.0	1986.0	1986.0	2018.0	2018.0	2018.0	2015.0	2015.0	2055.0	2055.0	2055.0	2045.0	2045.0	2034.0	2034.0	2034.0	2064.0	2064.0	2076.0	2076.0	2101.0	2101.0	2101.0	2076.0	2076.0	2124.0	2124.0	2124.0	2122.0	2122.0	2115.0	2115.0	2115.0	2133.0	2133.0	2127.0	2127.0	2127.0	2143.0	2143.0	2165.0	2165.0	2165.0	2163.0	2163.0	2161.0	2161.0	2161.0	2168.0	2168.0	2183.0	2183.0	2183.0	2152.0	2152.0	2215.0	2215.0	2215.0	2187.0	2187.0	2201.0	2201.0	2201.0	2220.0	2220.0	2217.0	2217.0	2217.0	2248.0	2248.0	2238.0	2238.0	2238.0	2229.0	2229.0	2208.0	2208.0	2208.0	2223.0	2223.0	2237.0	2237.0	2237.0	2228.0	2228.0	2206.0	2206.0	2206.0	2208.0	2208.0	2251.0	2251.0	2251.0	2225.0	2225.0	2217.0	2217.0	2217.0	2225.0	2225.0	2231.0	2231.0	2231.0	2218.0	2218.0	2217.0	2217.0	2217.0	2219.0	2219.0	2221.0	2221.0	2221.0	2213.0	2213.0	2247.0	2247.0	2247.0	2202.0	2202.0	2237.0	2237.0	2237.0	2230.0	2230.0	2232.0	2232.0	2232.0	2233.0	2233.0	2238.0	2238.0	2238.0	2215.0	2215.0	2200.0	2200.0	2200.0	2223.0	2223.0	2203.0	2203.0	2203.0	2205.0	2205.0	2229.0	2229.0	2229.0	2216.0	2216.0	2221.0	2221.0	2221.0	2208.0	2208.0	2221.0	2221.0	2221.0	2199.0	2199.0	2227.0	2227.0	2227.0	2235.0	2235.0	2187.0	2187.0	2187.0	2195.0	2195.0	2195.0	2195.0	2195.0	2190.0	2190.0	2214.0	2214.0	2214.0	2187.0	2187.0	2170.0	2170.0	2170.0	2190.0	2190.0	2179.0	2179.0	2179.0	2197.0	2197.0	2196.0	2196.0	2196.0	2205.0	2205.0	2173.0	2173.0	2173.0	2162.0	2162.0	2183.0	2183.0	2183.0	2160.0	2160.0	2192.0	2192.0	2192.0	2173.0	2173.0	2173.0	2173.0	2173.0	2188.0	2188.0	2166.0	2166.0	2166.0	2154.0	2154.0	2150.0	2150.0	2159.0	2159.0	2159.0	2124.0	2124.0	2164.0	2164.0	2164.0	2121.0	2121.0	2130.0	2130.0	2130.0	2105.0	2105.0	2113.0	2113.0	2113.0	2101.0	2101.0	2136.0	2136.0	2136.0	2127.0	2127.0	2124.0	2124.0	2124.0	2084.0	2084.0	2085.0	2085.0	2085.0	2084.0	2084.0	2102.0	2102.0	2102.0	2080.0	2080.0	2107.0	2107.0	2107.0	2068.0	2068.0	2068.0	2068.0	2068.0	2053.0	2053.0	2085.0	2085.0	2085.0	2029.0	2029.0	2035.0	2035.0	2035.0	2076.0	2076.0	2054.0	2054.0	2054.0	2044.0	2044.0	2047.0	2047.0	2047.0	2028.0	2028.0	2042.0	2042.0	2042.0	2029.0	2029.0	2004.0	2004.0	2004.0	2043.0	2043.0	2016.0	2016.0	2016.0	2036.0	2036.0	2012.0	2012.0	2012.0	2001.0	2001.0	2041.0	2041.0	2041.0	1999.0	1999.0	2029.0	2029.0	2029.0	1998.0	1998.0	2014.0	2014.0	2014.0	1992.0	1992.0	2006.0	2006.0	2006.0	2015.0	2015.0	2023.0	2023.0	2023.0	2004.0	2004.0	2001.0	2001.0	2001.0	1988.0	1988.0	1994.0	1994.0	1994.0	2015.0	2015.0	2012.0	2012.0	2012.0	2019.0	2019.0	1993.0	1993.0	1993.0	1975.0	1975.0	1997.0	1997.0	1997.0	1985.0	1985.0	1992.0	1992.0	1992.0	1977.0	1977.0	1985.0	1985.0	1985.0	1987.0	1987.0	1995.0	1995.0	1995.0	1991.0	1991.0	1992.0	1992.0	1992.0	1977.0	1977.0	1955.0	1955.0	1955.0	1980.0	1980.0	1986.0	1986.0	1986.0	1971.0	1971.0	1948.0	1948.0	1948.0	1948.0	1948.0	1967.0	1967.0	1967.0	1958.0	1958.0	1958.0	1958.0	1958.0	1936.0	1936.0	1981.0	1981.0	1981.0	1977.0	1977.0	1967.0	1967.0	1967.0	1917.0	1917.0	1926.0	1926.0	1926.0	1955.0	1955.0	1919.0	1919.0	1919.0	1955.0	1955.0	1924.0	1924.0	1957.0	1957.0	1957.0	1919.0	1919.0	1922.0	1922.0	1922.0	1884.0	1884.0	1924.0	1924.0	1924.0	1915.0	1915.0	1900.0	1900.0	1900.0	1898.0	1898.0	1928.0	1928.0	1928.0	1897.0	1897.0	1909.0	1909.0	1909.0	1892.0	1892.0	1889.0	1889.0	1889.0	1862.0	1862.0	1873.0	1873.0	1873.0	1868.0	1868.0	1878.0	1878.0	1878.0	1854.0	1854.0	1844.0	1844.0	1844.0	1849.0	1849.0	1843.0	1843.0	1843.0	1841.0	1841.0	1815.0	1815.0	1815.0	1839.0	1839.0	1828.0	1828.0	1828.0	1813.0	1813.0	1809.0	1809.0	1809.0	1778.0	1778.0	1796.0	1796.0	1796.0	1771.0	1771.0	1763.0	1763.0	1763.0	1808.0	1808.0	1780.0	1780.0	1780.0	1770.0	1770.0	1762.0	1762.0	1762.0	1773.0	1773.0	1769.0	1769.0	1769.0	1781.0	1781.0	1779.0	1779.0	1779.0	1768.0	1768.0	1740.0	1740.0	1740.0	1743.0	1743.0	1751.0	1751.0	1751.0	1750.0	1750.0	1743.0	1743.0	1743.0	1751.0	1751.0	1735.0	1735.0	1735.0	1712.0	1712.0	1736.0	1736.0	1736.0	1718.0	1718.0	1721.0	1721.0	1721.0	1721.0	1721.0	1719.0	1719.0	1719.0	1680.0	1680.0	1681.0	1681.0	1681.0	1688.0	1688.0	1695.0	1695.0	1695.0	1710.0	1710.0	1696.0	1696.0	1696.0	1688.0	1688.0	1707.0	1707.0	1707.0	1660.0	1660.0	1686.0	1686.0	1686.0	1709.0	1709.0	1664.0	1664.0	1664.0	1704.0	1704.0	1682.0	1682.0	1682.0	1652.0	1652.0	1663.0	1663.0	1663.0	1702.0	1702.0	1694.0	1694.0	1694.0	1688.0	1688.0	1664.0	1664.0	1664.0	1699.0	1699.0	1667.0	1667.0	1667.0	1652.0	1652.0	1656.0	1656.0	1656.0	1684.0	1684.0	1674.0	1674.0	1674.0	1669.0	1669.0	1671.0	1671.0	1675.0	1675.0	1675.0	1679.0	1679.0	1651.0	