2032.0	2032.0	2032.0	1972.0	1972.0	1958.0	1958.0	1958.0	2034.0	2034.0	1963.0	1963.0	1963.0	1964.0	1964.0	2016.0	2016.0	2016.0	2007.0	2007.0	1960.0	1960.0	1960.0	1966.0	1966.0	1963.0	1963.0	1963.0	2002.0	2002.0	2003.0	2003.0	2003.0	2005.0	2005.0	2020.0	2020.0	2020.0	2010.0	2010.0	1989.0	1989.0	1989.0	1949.0	1949.0	1990.0	1990.0	1990.0	1950.0	1950.0	2002.0	2002.0	2002.0	2023.0	2023.0	2002.0	2002.0	2002.0	1949.0	1949.0	1980.0	1980.0	1980.0	1958.0	1958.0	1980.0	1980.0	1980.0	1954.0	1954.0	2017.0	2017.0	2017.0	1970.0	1970.0	2008.0	2008.0	2008.0	1978.0	1978.0	2017.0	2017.0	2017.0	1986.0	1986.0	1950.0	1950.0	1950.0	1992.0	1992.0	2010.0	2010.0	2010.0	2005.0	2005.0	1952.0	1952.0	1952.0	1947.0	1947.0	1957.0	1957.0	1957.0	2013.0	2013.0	1944.0	1944.0	1944.0	1973.0	1973.0	1968.0	1968.0	1968.0	1985.0	1985.0	1984.0	1984.0	1984.0	1963.0	1963.0	2014.0	2014.0	2014.0	1966.0	1966.0	1945.0	1945.0	1945.0	2008.0	2008.0	2005.0	2005.0	2005.0	1996.0	1996.0	2002.0	2002.0	2002.0	2014.0	2014.0	1975.0	1975.0	1975.0	2015.0	2015.0	2007.0	2007.0	2007.0	2011.0	2011.0	1952.0	1952.0	1952.0	1954.0	1954.0	2000.0	2000.0	2000.0	1958.0	1958.0	1992.0	1992.0	1992.0	1951.0	1951.0	1996.0	1996.0	1996.0	1979.0	1979.0	2022.0	2022.0	2022.0	1972.0	1972.0	1952.0	1952.0	1952.0	2008.0	2008.0	1996.0	1996.0	1996.0	2021.0	2021.0	1980.0	1980.0	1962.0	1962.0	1962.0	1998.0	1998.0	1950.0	1950.0	1950.0	1984.0	1984.0	1962.0	1962.0	1962.0	1960.0	1960.0	2003.0	2003.0	2003.0	1968.0	1968.0	1966.0	1966.0	1966.0	1980.0	1980.0	1984.0	1984.0	1984.0	1964.0	1964.0	2022.0	2022.0	2022.0	1966.0	1966.0	1965.0	1965.0	1965.0	1978.0	1978.0	2040.0	2040.0	2040.0	1993.0	1993.0	1966.0	1966.0	1966.0	2024.0	2024.0	1988.0	1988.0	1988.0	1993.0	1993.0	2007.0	2007.0	2007.0	2008.0	2008.0	2081.0	2081.0	2081.0	2053.0	2053.0	2057.0	2057.0	2057.0	2098.0	2098.0	2113.0	2113.0	2113.0	2124.0	2124.0	2118.0	2118.0	2118.0	2137.0	2137.0	2111.0	2111.0	2111.0	2146.0	2146.0	2155.0	2155.0	2155.0	2172.0	2172.0	2113.0	2113.0	2113.0	2120.0	2120.0	2192.0	2192.0	2192.0	2163.0	2163.0	2200.0	2200.0	2200.0	2205.0	2205.0	2190.0	2190.0	2190.0	2187.0	2187.0	2219.0	2219.0	2219.0	2192.0	2192.0	2193.0	2193.0	2193.0	2256.0	2256.0	2219.0	2219.0	2219.0	2217.0	2217.0	2261.0	2261.0	2261.0	2262.0	2262.0	2299.0	2299.0	2299.0	2254.0	2254.0	2271.0	2271.0	2271.0	2265.0	2265.0	2255.0	2255.0	2255.0	2245.0	2245.0	2294.0	2294.0	2294.0	2259.0	2259.0	2336.0	2336.0	2336.0	2264.0	2264.0	2262.0	2262.0	2262.0	2343.0	2343.0	2332.0	2332.0	2332.0	2284.0	2284.0	2290.0	2290.0	2290.0	2342.0	2342.0	2362.0	2362.0	2362.0	2293.0	2293.0	2347.0	2347.0	2347.0	2308.0	2308.0	2343.0	2343.0	2343.0	2324.0	2324.0	2363.0	2363.0	2363.0	2338.0	2338.0	2309.0	2309.0	2309.0	2348.0	2348.0	2319.0	2319.0	2319.0	2367.0	2367.0	2315.0	2315.0	2315.0	2369.0	2369.0	2317.0	2317.0	2392.0	2392.0	2392.0	2351.0	2351.0	2324.0	2324.0	2324.0	2325.0	2325.0	2319.0	2319.0	2319.0	2389.0	2389.0	2370.0	2370.0	2370.0	2336.0	2336.0	2327.0	2327.0	2327.0	2359.0	2359.0	2394.0	2394.0	2394.0	2380.0	2380.0	2342.0	2342.0	2342.0	2325.0	2325.0	2337.0	2337.0	2337.0	2317.0	2317.0	2382.0	2382.0	2382.0	2375.0	2375.0	2379.0	2379.0	2379.0	2348.0	2348.0	2353.0	2353.0	2353.0	2315.0	2315.0	2322.0	2322.0	2322.0	2367.0	2367.0	2320.0	2320.0	2320.0	2374.0	2374.0	2314.0	2314.0	2314.0	2312.0	2312.0	2312.0	2312.0	2312.0	2312.0	2312.0	2373.0	2373.0	2373.0	2349.0	2349.0	2351.0	2351.0	2351.0	2363.0	2363.0	2364.0	2364.0	2364.0	2313.0	2313.0	2295.0	2295.0	2295.0	2342.0	2342.0	2362.0	2362.0	2362.0	2368.0	2368.0	2327.0	2327.0	2327.0	2360.0	2360.0	2291.0	2291.0	2291.0	2339.0	2339.0	2303.0	2303.0	2303.0	2338.0	2338.0	2333.0	2333.0	2333.0	2289.0	2289.0	2338.0	2338.0	2338.0	2289.0	2289.0	2296.0	2296.0	2296.0	2308.0	2308.0	2260.0	2260.0	2260.0	2320.0	2320.0	2266.0	2266.0	2266.0	2253.0	2253.0	2286.0	2286.0	2286.0	2260.0	2260.0	2243.0	2243.0	2243.0	2238.0	2238.0	2265.0	2265.0	2265.0	2259.0	2259.0	2270.0	2270.0	2270.0	2256.0	2256.0	2273.0	2273.0	2273.0	2274.0	2274.0	2221.0	2221.0	2221.0	2234.0	2234.0	2231.0	2231.0	2231.0	2213.0	2213.0	2270.0	2270.0	2270.0	2208.0	2208.0	2273.0	2273.0	2273.0	2201.0	2201.0	2197.0	2197.0	2197.0	2242.0	2242.0	2246.0	2246.0	2246.0	2196.0	2196.0	2255.0	2255.0	2255.0	2205.0	2205.0	2198.0	2198.0	2186.0	2186.0	2186.0	2174.0	2174.0	2195.0	2195.0	2195.0	2240.0	2240.0	2198.0	2198.0	2198.0	2248.0	2248.0	2220.0	2220.0	2220.0	2234.0	2234.0	2212.0	2212.0	2212.0	2202.0	2202.0	2173.0	2173.0	2173.0	2177.0	2177.0	2231.0	2231.0	2231.0	2217.0	2217.0	2174.0	2174.0	2174.0	2162.0	2162.0	2229.0	2229.0	2229.0	2182.0	2182.0	2215.0	2215.0	2215.0	2196.0	2196.0	2149.0	2149.0	2149.0	2208.0	2208.0	2188.0	2188.0	2188.0	2200.0	2200.0	2171.0	2171.0	2171.0	2167.0	2167.0	2185.0	2185.0	2185.0	2203.0	2203.0	2142.0	2142.0	2142.0	2190.0	2190.0	2161.0	2161.0	2161.0	2152.0	2152.0	2184.0	2184.0	2184.0	2195.0	2195.0	2190.0	2190.0	2190.0	2160.0	2160.0	2143.0	2143.0	2143.0	2127.0	2127.0	2164.0	2164.0	2164.0	2168.0	2168.0	2182.0	2182.0	2182.0	2168.0	2168.0	2151.0	2151.0	2151.0	2113.0	2113.0	2159.0	2159.0	2159.0	2115.0	2115.0	2116.0	2116.0	2116.0	2100.0	2100.0	2167.0	2167.0	2167.0	2111.0	2111.0	2129.0	2129.0	2129.0	2123.0	2123.0	2096.0	2096.0	2096.0	2144.0	2144.0	2128.0	2128.0	2128.0	2094.0	2094.0	2111.0	2111.0	2111.0	2092.0	2092.0	2147.0	2147.0	2147.0	2080.0	2080.0	2147.0	2147.0	2147.0	2114.0	2114.0	2089.0	2089.0	2089.0	2082.0	2082.0	2091.0	2091.0	2091.0	2134.0	2134.0	2073.0	2073.0	2073.0	2115.0	2115.0	2077.0	2077.0	2077.0	2096.0	2096.0	2078.0	2078.0	2078.0	2084.0	2084.0	2122.0	2122.0	2122.0	2135.0	2135.0	2066.0	2066.0	2066.0	2059.0	2059.0	2115.0	2115.0	2115.0	2061.0	2061.0	2056.0	2056.0	2056.0	2131.0	2131.0	2120.0	2120.0	2091.0	2091.0	2091.0	2117.0	2117.0	2063.0	2063.0	2063.0	2104.0	2104.0	2115.0	2115.0	2115.0	2054.0	2054.0	2104.0	2104.0	2104.0	2063.0	2063.0	2116.0	2116.0	2116.0	2059.0	2059.0	2043.0	2043.0	2043.0	2113.0	2113.0	2077.0	2077.0	2077.0	2046.0	2046.0	2042.0	2042.0	2042.0	2110.0	2110.0	2098.0	2098.0	2098.0	2036.0	2036.0	2036.0	2036.0	2036.0	2102.0	2102.0	2056.0	2056.0	2056.0	2041.0	2041.0	2102.0	2102.0	2102.0	2047.0	2047.0	2037.0	2037.0	2037.0	2071.0	2071.0	2065.0	2065.0	2065.0	2085.0	2085.0	2038.0	2038.0	2038.0	2033.0	2033.0	2012.0	2012.0	2012.0	2022.0	2022.0	2039.0	2039.0	2039.0	2017.0	2017.0	2015.0	2015.0	2015.0	2012.0	2012.0	2048.0	2048.0	2048.0	2017.0	2017.0	2050.0	2050.0	2050.0	2076.0	2076.0	2075.0	2075.0	2075.0	2068.0	2068.0	2037.0	2037.0	2037.0	2062.0	2062.0	2065.0	2065.0	2065.0	2018.0	2018.0	2060.0	2060.0	2060.0	2069.0	2069.0	2059.0	2059.0	2059.0	2064.0	2064.0	2071.0	2071.0	2071.0	2065.0	2065.0	2055.0	2055.0	2055.0	1999.0	1999.0	2054.0	2054.0	2054.0	2072.0	2072.0	2062.0	2062.0	2062.0	2010.0	2010.0	2024.0	2024.0	2024.0	2015.0	2015.0	2055.0	2055.0	2055.0	2052.0	2052.0	2001.0	2001.0	2001.0	1991.0	1991.0	2036.0	2036.0	2036.0	2045.0	2045.0	2065.0	2065.0	2065.0	2002.0	2002.0	2036.0	2036.0	2036.0	1994.0	1994.0	2061.0	2061.0	2061.0	2030.0	2030.0	2015.0	2015.0	2015.0	2070.0	2070.0	2016.0	2016.0	2016.0	2035.0	2035.0	2014.0	2014.0	2014.0	2053.0	2053.0	2069.0	2069.0	2069.0	2052.0	2052.0	2024.0	2024.0	2024.0	2075.0	2075.0	2068.0	2068.0	2041.0	2041.0	2041.0	2055.0	2055.0	2101.0	2101.0	2101.0	2048.0	2048.0	2116.0	2116.0	2116.0	2136.0	2136.0	2116.0	2116.0	2116.0	2109.0	2109.0	2103.0	2103.0	2103.0	2162.0	2162.0	2129.0	2129.0	2129.0	2169.0	2169.0	2137.0	2137.0	2137.0	2174.0	2174.0	2201.0	2201.0	2201.0	2214.0	2214.0	2175.0	2175.0	2175.0	2154.0	2154.0	2225.0	2225.0	2225.0	2176.0	2176.0	2219.0	2219.0	2219.0	2199.0	2199.0	2254.0	2254.0	2254.0	2212.0	2212.0	2271.0	2271.0	2271.0	2262.0	2262.0	2268.0	2268.0	2268.0	2218.0	2218.0	2216.0	2216.0	2216.0	2264.0	2264.0	2226.0	2226.0	2226.0	2288.0	2288.0	2292.0	2292.0	2292.0	2271.0	2271.0	2277.0	2277.0	2277.0	2301.0	2301.0	2313.0	2313.0	2313.0	2309.0	2309.0	2300.0	2300.0	2300.0	2249.0	2249.0	2294.0	2294.0	2294.0	2273.0	2273.0	2304.0	2304.0	2304.0	2319.0	2319.0	2262.0	2262.0	2262.0	2263.0	2263.0	2285.0	2285.0	2285.0	2330.0	2330.0	2280.0	2280.0	2280.0	2281.0	2281.0	2324.0	2324.0	2324.0	2282.0	2282.0	2279.0	2279.0	2279.0	2305.0	2305.0	2272.0	2272.0	2272.0	2255.0	2255.0	2336.0	2336.0	2336.0	2264.0	2264.0	2307.0	2307.0	2307.0	2278.0	2278.0	2315.0	2315.0	2315.0	2305.0	2305.0	2306.0	2306.0	2306.0	2312.0	2312.0	2325.0	2325.0	2325.0	2290.0	2290.0	2271.0	2271.0	2271.0	2289.0	2289.0	2271.0	2271.0	2271.0	2252.0	2252.0	2276.0	2276.0	2276.0	2311.0	2311.0	2255.0	2255.0	2255.0	2314.0	2314.0	2273.0	2273.0	2273.0	2263.0	2263.0	2265.0	2265.0	2265.0	2252.0	2252.0	2273.0	2273.0	2273.0	2254.0	2254.0	2275.0	2275.0	2235.0	2235.0	2235.0	2300.0	2300.0	2250.0	2250.0	2250.0	2276.0	2276.0	2228.0	2228.0	2228.0	2260.0	2260.0	2268.0	2268.0	2268.0	2253.0	2253.0	2223.0	2223.0	2223.0	2243.0	2243.0	2256.0	2256.0	2256.0	2272.0	2272.0	2218.0	2218.0	2218.0	2234.0	2234.0	2236.0	2236.0	2236.0	2209.0	2209.0	2268.0	2268.0	2268.0	2225.0	2225.0	2235.0	2235.0	2235.0	2201.0	2201.0	2243.0	2243.0	2243.0	2175.0	2175.0	2171.0	2171.0	2171.0	2236.0	2236.0	2223.0	2223.0	2223.0	2223.0	2223.0	2183.0	2183.0	2183.0	2192.0	2192.0	2164.0	2164.0	2164.0	2209.0	2209.0	2160.0	2160.0	2160.0	2165.0	2165.0	2142.0	2142.0	2142.0	2190.0	2190.0	2194.0	2194.0	2194.0	2127.0	2127.0	2182.0	2182.0	2182.0	2164.0	2164.0	2169.0	2169.0	2169.0	2161.0	2161.0	2101.0	2101.0	2101.0	2102.0	2102.0	2118.0	2118.0	2118.0	2148.0	2148.0	2083.0	2083.0	2083.0	2123.0	2123.0	2103.0	2103.0	2103.0	2089.0	2089.0	2133.0	2133.0	2133.0	2124.0	2124.0	2073.0	2073.0	2073.0	2081.0	2081.0	2071.0	2071.0	2071.0	2118.0	2118.0	2082.0	2082.0	2082.0	2108.0	2108.0	2077.0	2077.0	2077.0	2102.0	2102.0	2108.0	2108.0	2108.0	2067.0	2067.0	2037.0	2037.0	2037.0	2036.0	2036.0	2046.0	2046.0	2046.0	2089.0	2089.0	2036.0	2036.0	2036.0	2031.0	2031.0	2048.0	2048.0	2048.0	2086.0	2086.0	2062.0	2062.0	2062.0	2073.0	2073.0	2053.0	2053.0	2053.0	2073.0	2073.0	2026.0	2026.0	2026.0	2052.0	2052.0	2040.0	2040.0	2040.0	2035.0	2035.0	2050.0	2050.0	2050.0	2053.0	2053.0	1997.0	1997.0	1997.0	2013.0	2013.0	2044.0	2044.0	2001.0	2001.0	2001.0	1980.0	1980.0	2010.0	2010.0	2010.0	2001.0	2001.0	1984.0	1984.0	1984.0	2035.0	2035.0	1987.0	1987.0	1987.0	1996.0	1996.0	1999.0	1999.0	1999.0	2023.0	2023.0	1979.0	1979.0	1979.0	1968.0	1968.0	2001.0	2001.0	2001.0	1988.0	1988.0	1946.0	1946.0	1946.0	1999.0	1999.0	1944.0	1944.0	1944.0	1997.0	1997.0	1997.0	1997.0	1997.0	2002.0	2002.0	1962.0	1962.0	1962.0	1933.0	1933.0	1923.0	1923.0	1923.0	2002.0	2002.0	1928.0	1928.0	1928.0	1955.0	1955.0	1931.0	1931.0	1931.0	1907.0	1907.0	1963.0	1963.0	1963.0	1960.0	1960.0	1939.0	1939.0	1939.0	1949.0	1949.0	1897.0	1897.0	1897.0	1959.0	1959.0	1926.0	1926.0	1926.0	1912.0	1912.0	1950.0	1950.0	1950.0	1947.0	1947.0	1935.0	1935.0	1935.0	1889.0	1889.0	1894.0	1894.0	1894.0	1876.0	1876.0	1935.0	1935.0	1935.0	1876.0	1876.0	1870.0	1870.0	1870.0	1914.0	1914.0	1912.0	1912.0	1912.0	1932.0	1932.0	1916.0	1916.0	1916.0	1858.0	1858.0	1881.0	1881.0	1881.0	1919.0	1919.0	1895.0	1895.0	1895.0	1888.0	1888.0	1851.0	1851.0	1851.0	1847.0	1847.0	1857.0	1857.0	1857.0	1848.0	1848.0	1914.0	1914.0	1914.0	1848.0	1848.0	1847.0	1847.0	1847.0	1892.0	1892.0	1877.0	1877.0	1877.0	1906.0	1906.0	1829.0	1829.0	1829.0	1887.0	1887.0	1868.0	1868.0	1868.0	1894.0	1894.0	1839.0	1839.0	1839.0	1824.0	1824.0	1870.0	1870.0	1870.0	1821.0	1821.0	1841.0	1841.0	1841.0	1875.0	1875.0	1853.0	1853.0	1853.0	1832.0	1832.0	1865.0	1865.0	1865.0	1883.0	1883.0	1882.0	1882.0	1882.0	1811.0	1811.0	1823.0	1823.0	1823.0	1816.0	1816.0	1871.0	1871.0	1820.0	1820.0	1820.0	1837.0	1837.0	1811.0	1811.0	1811.0	1860.0	1860.0	1822.0	1822.0	1822.0	1821.0	1821.0	1849.0	1849.0	1849.0	1839.0	1839.0	1848.0	1848.0	1848.0	1876.0	1876.0	1806.0	1806.0	1806.0	1795.0	1795.0	1825.0	1825.0	1825.0	1798.0	1798.0	1793.0	1793.0	1793.0	1856.0	1856.0	1805.0	1805.0	1805.0	1847.0	1847.0	1851.0	1851.0	1851.0	1852.0	1852.0	1859.0	1859.0	1859.0	1791.0	1791.0	1795.0	1795.0	1795.0	1818.0	1818.0	1789.0	1789.0	1789.0	1832.0	1832.0	1858.0	1858.0	1858.0	1792.0	1792.0	1837.0	1837.0	1837.0	1807.0	1807.0	1801.0	1801.0	1801.0	1798.0	1798.0	1809.0	1809.0	1809.0	1827.0	1827.0	1779.0	1779.0	1779.0	1788.0	1788.0	1813.0	1813.0	1813.0	1803.0	1803.0	1778.0	1778.0	1778.0	1836.0	1836.0	1839.0	1839.0	1839.0	1848.0	1848.0	1788.0	1788.0	1788.0	1837.0	1837.0	1810.0	1810.0	1810.0	1782.0	1782.0	1847.0	1847.0	1847.0	1812.0	1812.0	1805.0	1805.0	1805.0	1839.0	1839.0	1791.0	1791.0	1791.0	1847.0	1847.0	1787.0	1787.0	1787.0	1825.0	1825.0	1805.0	1805.0	1805.0	1840.0	1840.0	1868.0	1868.0	1868.0	1870.0	1870.0	1822.0	1822.0	1822.0	1830.0	1830.0	1883.0	1883.0	1883.0	1835.0	1835.0	1849.0	1849.0	1849.0	1839.0	1839.0	1852.0	1852.0	1852.0	1877.0	1877.0	1885.0	1885.0	1885.0	1945.0	1945.0	1914.0	1914.0	1914.0	1940.0	1940.0	1945.0	1945.0	1945.0	1939.0	1939.0	1977.0	1977.0	1977.0	1997.0	1997.0	1936.0	1936.0	1936.0	1945.0	1945.0	1949.0	1949.0	1949.0	1944.0	1944.0	2016.0	2016.0	2016.0	1968.0	1968.0	2041.0	2041.0	2038.0	2038.0	2038.0	2044.0	2044.0	2007.0	2007.0	2007.0	1997.0	1997.0	2060.0	2060.0	2060.0	2009.0	2009.0	2062.0	2062.0	2062.0	2072.0	2072.0	2040.0	2040.0	2040.0	2063.0	2063.0	2050.0	2050.0	2050.0	2062.0	2062.0	2051.0	2051.0	2051.0	2043.0	2043.0	2105.0	2105.0	2105.0	2107.0	2107.0	2093.0	2093.0	2093.0	2072.0	2072.0	2115.0	2115.0	2115.0	2065.0	2065.0	2077.0	2077.0	2077.0	2063.0	2063.0	2119.0	2119.0	2119.0	2070.0	2070.0	2074.0	2074.0	2074.0	2100.0	2100.0	2116.0	2116.0	2116.0	2097.0	2097.0	2080.0	2080.0	2080.0	2097.0	2097.0	2137.0	2137.0	2137.0	2156.0	2156.0	2079.0	2079.0	2079.0	2109.0	2109.0	2158.0	2158.0	2158.0	2130.0	2130.0	2102.0	2102.0	2102.0	2153.0	2153.0	2142.0	2142.0	2142.0	2149.0	2149.0	2146.0	2146.0	2146.0	2114.0	2114.0	2135.0	2135.0	2135.0	2157.0	2157.0	2134.0	2134.0	2134.0	2099.0	2099.0	2089.0	2089.0	2089.0	2140.0	2140.0	2139.0	2139.0	2139.0	2138.0	2138.0	2160.0	2160.0	2160.0	2150.0	2150.0	2110.0	2110.0	2110.0	2134.0	2134.0	2161.0	2161.0	2161.0	2094.0	2094.0	2158.0	2158.0	2158.0	2149.0	2149.0	2093.0	2093.0	2093.0	2087.0	2087.0	2155.0	2155.0	2155.0	2095.0	2095.0	2109.0	2109.0	2109.0	2088.0	2088.0	2155.0	2155.0	2155.0	2132.0	2132.0	2086.0	2086.0	2086.0	2108.0	2108.0	2112.0	2112.0	2112.0	2121.0	2121.0	2115.0	2115.0	2115.0	2132.0	2132.0	2081.0	2081.0	2081.0	2141.0	2141.0	2137.0	2137.0	2137.0	2083.0	2083.0	2072.0	2072.0	2072.0	2102.0	2102.0	2061.0	2061.0	2061.0	2120.0	2120.0	2114.0	2114.0	2114.0	2103.0	2103.0	2112.0	2112.0	2049.0	2049.0	2049.0	2062.0	2062.0	2106.0	2106.0	2106.0	2099.0	2099.0	2088.0	2088.0	2088.0	2096.0	2096.0	2033.0	2033.0	2033.0	2060.0	2060.0	2030.0	2030.0	2030.0	2087.0	2087.0	2044.0	2044.0	2044.0	2044.0	2044.0	2067.0	2067.0	2067.0	2013.0	2013.0	2083.0	2083.0	2083.0	2018.0	2018.0	2043.0	2043.0	2043.0	2068.0	2068.0	2052.0	2052.0	2052.0	2034.0	2034.0	2007.0	2007.0	2007.0	2037.0	2037.0	1983.0	1983.0	1983.0	1989.0	1989.0	2051.0	2051.0	2051.0	1977.0	1977.0	2006.0	2006.0	2006.0	2041.0	2041.0	1982.0	1982.0	1982.0	2035.0	2035.0	