1856.0	1901.0	1901.0	1901.0	1895.0	1895.0	1874.0	1874.0	1874.0	1851.0	1851.0	1881.0	1881.0	1881.0	1842.0	1842.0	1878.0	1878.0	1878.0	1857.0	1857.0	1835.0	1835.0	1835.0	1823.0	1823.0	1877.0	1877.0	1877.0	1834.0	1834.0	1873.0	1873.0	1873.0	1853.0	1853.0	1854.0	1854.0	1854.0	1853.0	1853.0	1826.0	1826.0	1826.0	1870.0	1870.0	1824.0	1824.0	1824.0	1843.0	1843.0	1831.0	1831.0	1831.0	1837.0	1837.0	1847.0	1847.0	1847.0	1837.0	1837.0	1812.0	1812.0	1812.0	1818.0	1818.0	1817.0	1817.0	1817.0	1820.0	1820.0	1833.0	1833.0	1833.0	1832.0	1832.0	1803.0	1803.0	1822.0	1822.0	1822.0	1814.0	1814.0	1800.0	1800.0	1800.0	1816.0	1816.0	1803.0	1803.0	1803.0	1802.0	1802.0	1802.0	1802.0	1802.0	1821.0	1821.0	1827.0	1827.0	1827.0	1828.0	1828.0	1788.0	1788.0	1788.0	1817.0	1817.0	1799.0	1799.0	1799.0	1808.0	1808.0	1811.0	1811.0	1811.0	1782.0	1782.0	1790.0	1790.0	1790.0	1790.0	1790.0	1816.0	1816.0	1816.0	1798.0	1798.0	1816.0	1816.0	1816.0	1787.0	1787.0	1778.0	1778.0	1778.0	1797.0	1797.0	1782.0	1782.0	1782.0	1790.0	1790.0	1803.0	1803.0	1803.0	1795.0	1795.0	1808.0	1808.0	1808.0	1779.0	1779.0	1773.0	1773.0	1773.0	1775.0	1775.0	1766.0	1766.0	1766.0	1822.0	1822.0	1770.0	1770.0	1770.0	1807.0	1807.0	1771.0	1771.0	1771.0	1795.0	1795.0	1802.0	1802.0	1802.0	1797.0	1797.0	1769.0	1769.0	1769.0	1777.0	1777.0	1800.0	1800.0	1800.0	1775.0	1775.0	1770.0	1770.0	1770.0	1790.0	1790.0	1763.0	1763.0	1763.0	1798.0	1798.0	1781.0	1781.0	1781.0	1786.0	1786.0	1772.0	1772.0	1772.0	1803.0	1803.0	1783.0	1783.0	1783.0	1781.0	1781.0	1767.0	1767.0	1767.0	1797.0	1797.0	1792.0	1792.0	1792.0	1775.0	1775.0	1787.0	1787.0	1787.0	1758.0	1758.0	1777.0	1777.0	1777.0	1770.0	1770.0	1789.0	1789.0	1789.0	1816.0	1816.0	1786.0	1786.0	1786.0	1818.0	1818.0	1790.0	1790.0	1790.0	1774.0	1774.0	1790.0	1790.0	1790.0	1803.0	1803.0	1764.0	1764.0	1764.0	1776.0	1776.0	1776.0	1776.0	1776.0	1785.0	1785.0	1769.0	1769.0	1769.0	1799.0	1799.0	1789.0	1789.0	1789.0	1799.0	1799.0	1778.0	1778.0	1778.0	1773.0	1773.0	1795.0	1795.0	1795.0	1788.0	1788.0	1766.0	1766.0	1775.0	1775.0	1775.0	1765.0	1765.0	1781.0	1781.0	1781.0	1791.0	1791.0	1779.0	1779.0	1779.0	1788.0	1788.0	1763.0	1763.0	1763.0	1782.0	1782.0	1760.0	1760.0	1760.0	1795.0	1795.0	1790.0	1790.0	1790.0	1772.0	1772.0	1795.0	1795.0	1795.0	1765.0	1765.0	1793.0	1793.0	1793.0	1782.0	1782.0	1782.0	1782.0	1782.0	1771.0	1771.0	1790.0	1790.0	1790.0	1785.0	1785.0	1779.0	1779.0	1779.0	1792.0	1792.0	1790.0	1790.0	1790.0	1787.0	1787.0	1793.0	1793.0	1793.0	1770.0	1770.0	1768.0	1768.0	1768.0	1778.0	1778.0	1776.0	1776.0	1776.0	1765.0	1765.0	1766.0	1766.0	1766.0	1788.0	1788.0	1786.0	1786.0	1786.0	1772.0	1772.0	1789.0	1789.0	1789.0	1760.0	1760.0	1753.0	1753.0	1753.0	1774.0	1774.0	1773.0	1773.0	1773.0	1811.0	1811.0	1785.0	1785.0	1785.0	1808.0	1808.0	1780.0	1780.0	1780.0	1793.0	1793.0	1804.0	1804.0	1804.0	1808.0	1808.0	1799.0	1799.0	1799.0	1817.0	1817.0	1861.0	1861.0	1861.0	1858.0	1858.0	1884.0	1884.0	1884.0	1872.0	1872.0	1884.0	1884.0	1884.0	1891.0	1891.0	1910.0	1910.0	1910.0	1941.0	1941.0	1955.0	1955.0	1955.0	1954.0	1954.0	1963.0	1963.0	1963.0	2004.0	2004.0	1990.0	1990.0	1990.0	2001.0	2001.0	2039.0	2039.0	2039.0	2067.0	2067.0	2068.0	2068.0	2068.0	2096.0	2096.0	2109.0	2109.0	2109.0	2114.0	2114.0	2093.0	2093.0	2093.0	2102.0	2102.0	2149.0	2149.0	2149.0	2164.0	2164.0	2152.0	2152.0	2152.0	2157.0	2157.0	2187.0	2187.0	2187.0	2191.0	2191.0	2216.0	2216.0	2216.0	2199.0	2199.0	2243.0	2243.0	2243.0	2249.0	2249.0	2235.0	2235.0	2269.0	2269.0	2269.0	2281.0	2281.0	2277.0	2277.0	2277.0	2254.0	2254.0	2266.0	2266.0	2266.0	2307.0	2307.0	2284.0	2284.0	2284.0	2286.0	2286.0	2327.0	2327.0	2327.0	2296.0	2296.0	2300.0	2300.0	2300.0	2311.0	2311.0	2343.0	2343.0	2343.0	2328.0	2328.0	2349.0	2349.0	2349.0	2326.0	2326.0	2329.0	2329.0	2329.0	2337.0	2337.0	2336.0	2336.0	2336.0	2341.0	2341.0	2348.0	2348.0	2348.0	2374.0	2374.0	2348.0	2348.0	2348.0	2351.0	2351.0	2355.0	2355.0	2355.0	2366.0	2366.0	2354.0	2354.0	2354.0	2353.0	2353.0	2351.0	2351.0	2351.0	2381.0	2381.0	2363.0	2363.0	2363.0	2350.0	2350.0	2352.0	2352.0	2352.0	2392.0	2392.0	2362.0	2362.0	2362.0	2360.0	2360.0	2381.0	2381.0	2381.0	2385.0	2385.0	2355.0	2355.0	2355.0	2353.0	2353.0	2380.0	2380.0	2380.0	2370.0	2370.0	2363.0	2363.0	2363.0	2352.0	2352.0	2357.0	2357.0	2357.0	2365.0	2365.0	2373.0	2373.0	2373.0	2361.0	2361.0	2359.0	2359.0	2359.0	2364.0	2364.0	2356.0	2356.0	2356.0	2382.0	2382.0	2346.0	2346.0	2346.0	2359.0	2359.0	2350.0	2350.0	2350.0	2345.0	2345.0	2362.0	2362.0	2362.0	2343.0	2343.0	2324.0	2324.0	2324.0	2344.0	2344.0	2354.0	2354.0	2354.0	2330.0	2330.0	2362.0	2362.0	2362.0	2340.0	2340.0	2328.0	2328.0	2328.0	2321.0	2321.0	2322.0	2322.0	2322.0	2317.0	2317.0	2292.0	2292.0	2292.0	2292.0	2292.0	2286.0	2286.0	2286.0	2282.0	2282.0	2306.0	2306.0	2306.0	2267.0	2267.0	2257.0	2257.0	2257.0	2259.0	2259.0	2283.0	2283.0	2283.0	2252.0	2252.0	2246.0	2246.0	2246.0	2255.0	2255.0	2240.0	2240.0	2219.0	2219.0	2219.0	2220.0	2220.0	2213.0	2213.0	2213.0	2177.0	2177.0	2196.0	2196.0	2196.0	2199.0	2199.0	2167.0	2167.0	2167.0	2165.0	2165.0	2177.0	2177.0	2177.0	2181.0	2181.0	2177.0	2177.0	2177.0	2155.0	2155.0	2151.0	2151.0	2151.0	2145.0	2145.0	2125.0	2125.0	2125.0	2132.0	2132.0	2131.0	2131.0	2131.0	2139.0	2139.0	2105.0	2105.0	2105.0	2116.0	2116.0	2118.0	2118.0	2118.0	2079.0	2079.0	2082.0	2082.0	2082.0	2088.0	2088.0	2065.0	2065.0	2065.0	2091.0	2091.0	2075.0	2075.0	2075.0	2085.0	2085.0	2056.0	2056.0	2056.0	2065.0	2065.0	2068.0	2068.0	2068.0	2055.0	2055.0	2052.0	2052.0	2052.0	2041.0	2041.0	2041.0	2041.0	2041.0	2042.0	2042.0	2039.0	2039.0	2039.0	2037.0	2037.0	2058.0	2058.0	2058.0	2061.0	2061.0	2064.0	2064.0	2064.0	2041.0	2041.0	2040.0	2040.0	2040.0	2037.0	2037.0	1999.0	1999.0	1999.0	2004.0	2004.0	2050.0	2050.0	2050.0	1995.0	1995.0	2008.0	2008.0	2008.0	1999.0	1999.0	2003.0	2003.0	2003.0	2014.0	2014.0	1985.0	1985.0	1985.0	1996.0	1996.0	1992.0	1992.0	1992.0	2024.0	2024.0	1988.0	1988.0	1988.0	2006.0	2006.0	1964.0	1964.0	1964.0	1989.0	1989.0	1978.0	1978.0	1978.0	1989.0	1989.0	2005.0	2005.0	2005.0	1980.0	1980.0	1957.0	1957.0	1957.0	1984.0	1984.0	1977.0	1977.0	1977.0	1964.0	1964.0	1945.0	1945.0	1945.0	1945.0	1945.0	1952.0	1952.0	1952.0	1974.0	1974.0	1976.0	1976.0	1976.0	1936.0	1936.0	1982.0	1982.0	1982.0	1943.0	1943.0	1952.0	1952.0	1952.0	1931.0	1931.0	1935.0	1935.0	1935.0	1927.0	1927.0	1948.0	1948.0	1948.0	1937.0	1937.0	1943.0	1943.0	1907.0	1907.0	1907.0	1929.0	1929.0	1918.0	1918.0	1918.0	1896.0	1896.0	1912.0	1912.0	1912.0	1943.0	1943.0	1909.0	1909.0	1909.0	1902.0	1902.0	1901.0	1901.0	1901.0	1898.0	1898.0	1919.0	1919.0	1919.0	1895.0	1895.0	1882.0	1882.0	1882.0	1896.0	1896.0	1918.0	1918.0	1918.0	1875.0	1875.0	1914.0	1914.0	1914.0	1913.0	1913.0	1871.0	1871.0	1871.0	1912.0	1912.0	1869.0	1869.0	1869.0	1871.0	1871.0	1864.0	1864.0	1864.0	1874.0	1874.0	1895.0	1895.0	1895.0	1864.0	1864.0	1846.0	1846.0	1846.0	1865.0	1865.0	1877.0	1877.0	1877.0	1867.0	1867.0	1860.0	1860.0	1860.0	1858.0	1858.0	1842.0	1842.0	1842.0	1847.0	1847.0	1838.0	1838.0	1838.0	1875.0	1875.0	1855.0	1855.0	1855.0	1828.0	1828.0	1862.0	1862.0	1862.0	1836.0	1836.0	1870.0	1870.0	1870.0	1827.0	1827.0	1866.0	1866.0	1866.0	1836.0	1836.0	1839.0	1839.0	1839.0	1854.0	1854.0	1817.0	1817.0	1817.0	1848.0	1848.0	1837.0	1837.0	1837.0	1808.0	1808.0	1833.0	1833.0	1833.0	1846.0	1846.0	1835.0	1835.0	1835.0	1833.0	1833.0	1839.0	1839.0	1839.0	1831.0	1831.0	1851.0	1851.0	1851.0	1837.0	1837.0	1833.0	1833.0	1833.0	1799.0	1799.0	1801.0	1801.0	1801.0	1812.0	1812.0	1828.0	1828.0	1828.0	1790.0	1790.0	1796.0	1796.0	1796.0	1789.0	1789.0	1816.0	1816.0	1816.0	1797.0	1797.0	1812.0	1812.0	1812.0	1810.0	1810.0	1794.0	1794.0	1794.0	1835.0	1835.0	1808.0	1808.0	1808.0	1829.0	1829.0	1783.0	1783.0	1783.0	1814.0	1814.0	1795.0	1795.0	1795.0	1809.0	1809.0	1798.0	1798.0	1798.0	1795.0	1795.0	1827.0	1827.0	1809.0	1809.0	1809.0	1812.0	1812.0	1810.0	1810.0	1810.0	1785.0	1785.0	1819.0	1819.0	1819.0	1809.0	1809.0	1797.0	1797.0	1797.0	1813.0	1813.0	1799.0	1799.0	1799.0	1791.0	1791.0	1830.0	1830.0	1830.0	1808.0	1808.0	1820.0	1820.0	1820.0	1812.0	1812.0	1789.0	1789.0	1789.0	1779.0	1779.0	1807.0	1807.0	1807.0	1804.0	1804.0	1790.0	1790.0	1790.0	1773.0	1773.0	1773.0	1773.0	1773.0	1777.0	1777.0	1811.0	1811.0	1811.0	1805.0	1805.0	1778.0	1778.0	1778.0	1793.0	1793.0	1794.0	1794.0	1794.0	1792.0	1792.0	1797.0	1797.0	1797.0	1777.0	1777.0	1807.0	1807.0	1807.0	1788.0	1788.0	1786.0	1786.0	1786.0	1811.0	1811.0	1805.0	1805.0	1805.0	1815.0	1815.0	1784.0	1784.0	1784.0	1784.0	1784.0	1782.0	1782.0	1782.0	1817.0	1817.0	1777.0	1777.0	1777.0	1786.0	1786.0	1788.0	1788.0	1788.0	1792.0	1792.0	1789.0	1789.0	1789.0	1814.0	1814.0	1795.0	1795.0	1795.0	1819.0	1819.0	1786.0	1786.0	1786.0	1776.0	1776.0	1814.0	1814.0	1814.0	1819.0	1819.0	1787.0	1787.0	1787.0	1800.0	1800.0	1792.0	1792.0	1792.0	1771.0	1771.0	1789.0	1789.0	1789.0	1786.0	1786.0	1790.0	1790.0	1790.0	1802.0	1802.0	1788.0	1788.0	1788.0	1768.0	1768.0	1790.0	1790.0	1790.0	1793.0	1793.0	1775.0	1775.0	1775.0	1774.0	1774.0	1805.0	1805.0	1805.0	1771.0	1771.0	1792.0	1792.0	1792.0	1788.0	1788.0	1820.0	1820.0	1820.0	1797.0	1797.0	1807.0	1807.0	1807.0	1809.0	1809.0	1778.0	1778.0	1778.0	1812.0	1812.0	1762.0	1762.0	1762.0	1794.0	1794.0	1803.0	1803.0	1803.0	1767.0	1767.0	1799.0	1799.0	1772.0	1772.0	1772.0	1795.0	1795.0	1807.0	1807.0	1807.0	1798.0	1798.0	1786.0	1786.0	1786.0	1794.0	1794.0	1767.0	1767.0	1767.0	1796.0	1796.0	1795.0	1795.0	1795.0	1800.0	1800.0	1792.0	1792.0	1792.0	1814.0	1814.0	1830.0	1830.0	1830.0	1808.0	1808.0	1825.0	1825.0	1825.0	1853.0	1853.0	1844.0	1844.0	1844.0	1815.0	1815.0	1815.0	1815.0	1815.0	1873.0	1873.0	1858.0	1858.0	1858.0	1876.0	1876.0	1905.0	1905.0	1905.0	1895.0	1895.0	1902.0	1902.0	1902.0	1912.0	1912.0	1961.0	1961.0	1961.0	1943.0	1943.0	1989.0	1989.0	1989.0	1991.0	1991.0	1992.0	1992.0	1992.0	2005.0	2005.0	2060.0	2060.0	2060.0	2067.0	2067.0	2061.0	2061.0	2061.0	2060.0	2060.0	2115.0	2115.0	2115.0	2112.0	2112.0	2086.0	2086.0	2086.0	2148.0	2148.0	2149.0	2149.0	2149.0	2131.0	2131.0	2162.0	2162.0	2162.0	2185.0	2185.0	2173.0	2173.0	2173.0	2176.0	2176.0	2189.0	2189.0	2189.0	2194.0	2194.0	2238.0	2238.0	2238.0	2222.0	2222.0	2239.0	2239.0	2239.0	2261.0	2261.0	2268.0	2268.0	2268.0	2281.0	2281.0	2266.0	2266.0	2266.0	2264.0	2264.0	2266.0	2266.0	2266.0	2307.0	2307.0	2273.0	2273.0	2273.0	2319.0	2319.0	2287.0	2287.0	2287.0	2312.0	2312.0	2287.0	2287.0	2287.0	2293.0	2293.0	2315.0	2315.0	2315.0	2304.0	2304.0	2330.0	2330.0	2330.0	2315.0	2315.0	2345.0	2345.0	2345.0	2338.0	2338.0	2356.0	2356.0	2356.0	2353.0	2353.0	2325.0	2325.0	2325.0	2360.0	2360.0	2335.0	2335.0	2335.0	2358.0	2358.0	2346.0	2346.0	2346.0	2346.0	2346.0	2355.0	2355.0	2355.0	2358.0	2358.0	2341.0	2341.0	2341.0	2358.0	2358.0	2367.0	2367.0	2339.0	2339.0	2339.0	2340.0	2340.0	2334.0	2334.0	2334.0	2337.0	2337.0	2341.0	2341.0	2341.0	2330.0	2330.0	2366.0	2366.0	2366.0	2368.0	2368.0	2335.0	2335.0	2335.0	2328.0	2328.0	2360.0	2360.0	2360.0	2331.0	2331.0	2343.0	2343.0	2343.0	2327.0	2327.0	2338.0	2338.0	2338.0	2336.0	2336.0	2353.0	2353.0	2353.0	2343.0	2343.0	2334.0	2334.0	2334.0	2343.0	2343.0	2310.0	2310.0	2310.0	2335.0	2335.0	2308.0	2308.0	2308.0	2316.0	2316.0	2330.0	2330.0	2330.0	2328.0	2328.0	2313.0	2313.0	2313.0	2306.0	2306.0	2284.0	2284.0	2284.0	2317.0	2317.0	2280.0	2280.0	2280.0	2306.0	2306.0	2292.0	2292.0	2292.0	2273.0	2273.0	2268.0	2268.0	2268.0	2262.0	2262.0	2264.0	2264.0	2264.0	2232.0	2232.0	2242.0	2242.0	2242.0	2230.0	2230.0	2243.0	2243.0	2243.0	2238.0	2238.0	2212.0	2212.0	2212.0	2198.0	2198.0	2176.0	2176.0	2176.0	2192.0	2192.0	2195.0	2195.0	2195.0	2175.0	2175.0	2177.0	2177.0	2177.0	2190.0	2190.0	2142.0	2142.0	2142.0	2142.0	2142.0	2141.0	2141.0	2141.0	2135.0	2135.0	2135.0	2135.0	2135.0	2151.0	2151.0	2118.0	2118.0	2118.0	2147.0	2147.0	2091.0	2091.0	2091.0	2108.0	2108.0	2123.0	2123.0	2123.0	2099.0	2099.0	2102.0	2102.0	2102.0	2113.0	2113.0	2118.0	2118.0	2118.0	2087.0	2087.0	2062.0	2062.0	2062.0	2067.0	2067.0	2099.0	2099.0	2099.0	2069.0	2069.0	2081.0	2081.0	2081.0	2096.0	2096.0	2055.0	2055.0	2055.0	2062.0	2062.0	2067.0	2067.0	2067.0	2081.0	2081.0	2044.0	2044.0	2044.0	2038.0	2038.0	2079.0	2079.0	2079.0	2052.0	2052.0	2040.0	2040.0	2037.0	2037.0	2037.0	2086.0	2086.0	2051.0	2051.0	2051.0	2063.0	2063.0	2074.0	2074.0	2074.0	2026.0	2026.0	2055.0	2055.0	2055.0	2042.0	2042.0	2062.0	2062.0	2062.0	2027.0	2027.0	2052.0	2052.0	2052.0	2044.0	2044.0	2019.0	2019.0	2019.0	2031.0	2031.0	2035.0	2035.0	2035.0	2042.0	2042.0	2007.0	2007.0	2007.0	2003.0	2003.0	2014.0	2014.0	2014.0	2023.0	2023.0	2002.0	2002.0	2002.0	2016.0	2016.0	1992.0	1992.0	1992.0	2000.0	2000.0	2001.0	2001.0	2001.0	1983.0	1983.0	2027.0	2027.0	2027.0	1983.0	1983.0	1996.0	1996.0	1996.0	1991.0	1991.0	1978.0	1978.0	1978.0	2001.0	2001.0	1989.0	1989.0	1989.0	2012.0	2012.0	1958.0	1958.0	1958.0	1976.0	1976.0	1984.0	1984.0	1984.0	1979.0	1979.0	1988.0	1988.0	1988.0	1960.0	1960.0	1969.0	1969.0	1969.0	1944.0	1944.0	1947.0	1947.0	1947.0	1972.0	1972.0	1933.0	1933.0	1933.0	1947.0	1947.0	1960.0	1960.0	1960.0	1945.0	1945.0	1984.0	1984.0	1984.0	1947.0	1947.0	1938.0	1938.0	1938.0	1941.0	1941.0	1948.0	1948.0	1948.0	1920.0	1920.0	1951.0	1951.0	1951.0	1904.0	1904.0	1933.0	1933.0	1933.0	1939.0	1939.0	1924.0	1924.0	1924.0	1926.0	1926.0	1924.0	1924.0	1924.0	1912.0	1912.0	1910.0	1910.0	1910.0	1915.0	1915.0	1914.0	1914.0	1914.0	1915.0	1915.0	1906.0	1906.0	1906.0	1921.0	1921.0	1924.0	1924.0	1924.0	1909.0	1909.0	1901.0	1901.0	1901.0	1884.0	1884.0	1883.0	1883.0	1883.0	1876.0	1876.0	1896.0	1896.0	1896.0	1856.0	1856.0	1884.0	1884.0	1884.0	1877.0	1877.0	1879.0	1879.0	1879.0	1852.0	1852.0	1853.0	1853.0	1853.0	1871.0	1871.0	1845.0	1845.0	1883.0	1883.0	1883.0	1883.0	1883.0	1858.0	1858.0	1858.0	1862.0	1862.0	1843.0	1843.0	1843.0	1840.0	1840.0	1853.0	1853.0	1853.0	1846.0	1846.0	1846.0	1846.0	1846.0	1837.0	1837.0	1859.0	1859.0	1859.0	1871.0	1871.0	1832.0	1832.0	1832.0	1859.0	1859.0	1844.0	1844.0	1844.0	1869.0	1869.0	1826.0	1826.0	1826.0	1830.0	1830.0	1836.0	1836.0	1836.0	1816.0	1816.0	1834.0	1834.0	1834.0	1871.0	1871.0	1830.0	1830.0	1830.0	1831.0	1831.0	1867.0	1867.0	1867.0	1853.0	1853.0	1823.0	1823.0	1823.0	1836.0	1836.0	1812.0	1812.0	1812.0	1851.0	1851.0	1849.0	1849.0	1849.0	1855.0	1855.0	1827.0	1827.0	1827.0	1847.0	1847.0	1827.0	1827.0	1827.0	1803.0	1803.0	1823.0	1823.0	1823.0	1809.0	1809.0	1823.0	1823.0	1823.0	1847.0	1847.0	1811.0	1811.0	1811.0	1814.0	1814.0	1794.0	1794.0	1794.0	1809.0	1809.0	1822.0	1822.0	1822.0	1803.0	1803.0	1836.0	1836.0	1836.0	1833.0	1833.0	1795.0	1795.0	1795.0	1808.0	1808.0	1834.0	1834.0	1834.0	1828.0	1828.0	1840.0	1840.0	1840.0	1799.0	1799.0	1799.0	1799.0	1799.0	1842.0	1842.0	1791.0	1791.0	1791.0	1828.0	1828.0	1800.0	1800.0	1800.0	1805.0	1805.0	1787.0	1787.0	1787.0	1835.0	1835.0	1832.0	1832.0	1832.0	1820.0	1820.0	1827.0	1827.0	1827.0	1804.0	1804.0	1811.0	1811.0	1811.0	1854.0	1854.0	1812.0	1812.0	1812.0	1814.0	1814.0	1826.0	1826.0	1826.0	1813.0	1813.0	1810.0	1810.0	1810.0	1806.0	