1490.0	1490.0	1490.0	1490.0	1486.0	1486.0	1539.0	1539.0	1539.0	1534.0	1534.0	1528.0	1528.0	1528.0	1480.0	1480.0	1538.0	1538.0	1538.0	1516.0	1516.0	1499.0	1499.0	1499.0	1541.0	1541.0	1552.0	1552.0	1515.0	1515.0	1515.0	1492.0	1492.0	1516.0	1516.0	1516.0	1512.0	1512.0	1567.0	1567.0	1567.0	1530.0	1530.0	1572.0	1572.0	1572.0	1565.0	1565.0	1548.0	1548.0	1548.0	1509.0	1509.0	1541.0	1541.0	1541.0	1568.0	1568.0	1532.0	1532.0	1532.0	1606.0	1606.0	1626.0	1626.0	1626.0	1626.0	1626.0	1585.0	1585.0	1585.0	1600.0	1600.0	1600.0	1600.0	1600.0	1705.0	1705.0	1660.0	1660.0	1660.0	1709.0	1709.0	1770.0	1770.0	1770.0	1741.0	1741.0	1775.0	1775.0	1775.0	1801.0	1801.0	1836.0	1836.0	1836.0	1857.0	1857.0	1872.0	1872.0	1872.0	1883.0	1883.0	1924.0	1924.0	1924.0	1948.0	1948.0	2007.0	2007.0	2007.0	2044.0	2044.0	2069.0	2069.0	2069.0	2123.0	2123.0	2137.0	2137.0	2137.0	2176.0	2176.0	2160.0	2160.0	2160.0	2220.0	2220.0	2200.0	2200.0	2200.0	2229.0	2229.0	2251.0	2251.0	2251.0	2273.0	2273.0	2300.0	2300.0	2300.0	2359.0	2359.0	2372.0	2372.0	2372.0	2370.0	2370.0	2422.0	2422.0	2422.0	2443.0	2443.0	2459.0	2459.0	2459.0	2435.0	2435.0	2479.0	2479.0	2479.0	2458.0	2458.0	2502.0	2502.0	2502.0	2527.0	2527.0	2568.0	2568.0	2568.0	2524.0	2524.0	2530.0	2530.0	2530.0	2578.0	2578.0	2570.0	2570.0	2570.0	2627.0	2627.0	2580.0	2580.0	2580.0	2583.0	2583.0	2645.0	2645.0	2645.0	2607.0	2607.0	2612.0	2612.0	2612.0	2656.0	2656.0	2681.0	2681.0	2681.0	2640.0	2640.0	2644.0	2644.0	2644.0	2691.0	2691.0	2643.0	2643.0	2643.0	2678.0	2678.0	2713.0	2713.0	2713.0	2673.0	2673.0	2730.0	2730.0	2730.0	2699.0	2699.0	2715.0	2715.0	2715.0	2712.0	2712.0	2684.0	2684.0	2684.0	2749.0	2749.0	2697.0	2697.0	2692.0	2692.0	2692.0	2698.0	2698.0	2708.0	2708.0	2708.0	2761.0	2761.0	2688.0	2688.0	2688.0	2702.0	2702.0	2727.0	2727.0	2727.0	2759.0	2759.0	2696.0	2696.0	2696.0	2744.0	2744.0	2733.0	2733.0	2733.0	2750.0	2750.0	2729.0	2729.0	2729.0	2684.0	2684.0	2742.0	2742.0	2742.0	2692.0	2692.0	2683.0	2683.0	2683.0	2714.0	2714.0	2683.0	2683.0	2683.0	2753.0	2753.0	2672.0	2672.0	2672.0	2701.0	2701.0	2708.0	2708.0	2708.0	2696.0	2696.0	2719.0	2719.0	2719.0	2675.0	2675.0	2691.0	2691.0	2691.0	2696.0	2696.0	2702.0	2702.0	2702.0	2691.0	2691.0	2634.0	2634.0	2634.0	2679.0	2679.0	2626.0	2626.0	2626.0	2613.0	2613.0	2595.0	2595.0	2595.0	2600.0	2600.0	2635.0	2635.0	2635.0	2579.0	2579.0	2620.0	2620.0	2620.0	2598.0	2598.0	2590.0	2590.0	2590.0	2530.0	2530.0	2515.0	2515.0	2515.0	2492.0	2492.0	2511.0	2511.0	2511.0	2503.0	2503.0	2459.0	2459.0	2459.0	2464.0	2464.0	2436.0	2436.0	2436.0	2462.0	2462.0	2403.0	2403.0	2403.0	2387.0	2387.0	2407.0	2407.0	2407.0	2381.0	2381.0	2363.0	2363.0	2363.0	2403.0	2403.0	2352.0	2352.0	2352.0	2319.0	2319.0	2304.0	2304.0	2304.0	2291.0	2291.0	2342.0	2342.0	2342.0	2285.0	2285.0	2291.0	2291.0	2291.0	2242.0	2242.0	2285.0	2285.0	2285.0	2244.0	2244.0	2218.0	2218.0	2218.0	2203.0	2203.0	2211.0	2211.0	2211.0	2223.0	2223.0	2178.0	2178.0	2178.0	2230.0	2230.0	2211.0	2211.0	2211.0	2212.0	2212.0	2149.0	2149.0	2149.0	2185.0	2185.0	2130.0	2130.0	2130.0	2188.0	2188.0	2134.0	2134.0	2134.0	2123.0	2123.0	2106.0	2106.0	2170.0	2170.0	2170.0	2104.0	2104.0	2093.0	2093.0	2093.0	2143.0	2143.0	2093.0	2093.0	2093.0	2120.0	2120.0	2083.0	2083.0	2083.0	2107.0	2107.0	2074.0	2074.0	2074.0	2118.0	2118.0	2075.0	2075.0	2075.0	2107.0	2107.0	2097.0	2097.0	2097.0	2047.0	2047.0	2071.0	2071.0	2071.0	2046.0	2046.0	2026.0	2026.0	2026.0	2050.0	2050.0	2060.0	2060.0	2060.0	2066.0	2066.0	2017.0	2017.0	2017.0	2057.0	2057.0	2026.0	2026.0	2026.0	2043.0	2043.0	1984.0	1984.0	1984.0	2039.0	2039.0	1975.0	1975.0	1975.0	1977.0	1977.0	1959.0	1959.0	1959.0	1973.0	1973.0	1998.0	1998.0	1998.0	1974.0	1974.0	1982.0	1982.0	1982.0	1929.0	1929.0	1981.0	1981.0	1981.0	1978.0	1978.0	1926.0	1926.0	1926.0	1963.0	1963.0	1944.0	1944.0	1944.0	1917.0	1917.0	1943.0	1943.0	1943.0	1907.0	1907.0	1886.0	1886.0	1886.0	1892.0	1892.0	1917.0	1917.0	1917.0	1933.0	1933.0	1887.0	1887.0	1887.0	1908.0	1908.0	1910.0	1910.0	1910.0	1846.0	1846.0	1840.0	1840.0	1840.0	1886.0	1886.0	1887.0	1887.0	1887.0	1829.0	1829.0	1845.0	1845.0	1845.0	1881.0	1881.0	1812.0	1812.0	1812.0	1823.0	1823.0	1828.0	1828.0	1828.0	1795.0	1795.0	1804.0	1804.0	1804.0	1831.0	1831.0	1831.0	1831.0	1831.0	1777.0	1777.0	1772.0	1772.0	1772.0	1760.0	1760.0	1771.0	1771.0	1771.0	1776.0	1776.0	1799.0	1799.0	1799.0	1777.0	1777.0	1750.0	1750.0	1750.0	1754.0	1754.0	1770.0	1770.0	1770.0	1726.0	1726.0	1739.0	1739.0	1739.0	1745.0	1745.0	1784.0	1784.0	1784.0	1739.0	1739.0	1777.0	1777.0	1777.0	1751.0	1751.0	1733.0	1733.0	1733.0	1722.0	1722.0	1715.0	1715.0	1758.0	1758.0	1758.0	1706.0	1706.0	1730.0	1730.0	1730.0	1731.0	1731.0	1674.0	1674.0	1674.0	1720.0	1720.0	1714.0	1714.0	1714.0	1666.0	1666.0	1663.0	1663.0	1663.0	1649.0	1649.0	1722.0	1722.0	1722.0	1684.0	1684.0	1713.0	1713.0	1713.0	1683.0	1683.0	1647.0	1647.0	1647.0	1650.0	1650.0	1644.0	1644.0	1644.0	1665.0	1665.0	1685.0	1685.0	1685.0	1617.0	1617.0	1617.0	1617.0	1617.0	1679.0	1679.0	1609.0	1609.0	1609.0	1682.0	1682.0	1607.0	1607.0	1607.0	1608.0	1608.0	1660.0	1660.0	1660.0	1602.0	1602.0	1602.0	1602.0	1602.0	1599.0	1599.0	1655.0	1655.0	1655.0	1620.0	1620.0	1605.0	1605.0	1605.0	1588.0	1588.0	1639.0	1639.0	1639.0	1576.0	1576.0	1587.0	1587.0	1587.0	1631.0	1631.0	1650.0	1650.0	1650.0	1584.0	1584.0	1575.0	1575.0	1575.0	1578.0	1578.0	1565.0	1565.0	1565.0	1561.0	1561.0	1620.0	1620.0	1620.0	1632.0	1632.0	1583.0	1583.0	1583.0	1620.0	1620.0	1589.0	1589.0	1589.0	1576.0	1576.0	1591.0	1591.0	1591.0	1586.0	1586.0	1583.0	1583.0	1583.0	1627.0	1627.0	1624.0	1624.0	1624.0	1622.0	1622.0	1556.0	1556.0	1556.0	1589.0	1589.0	1572.0	1572.0	1572.0	1619.0	1619.0	1572.0	1572.0	1572.0	1566.0	1566.0	1571.0	1571.0	1571.0	1536.0	1536.0	1530.0	1530.0	1530.0	1598.0	1598.0	1532.0	1532.0	1532.0	1538.0	1538.0	1548.0	1548.0	1548.0	1598.0	1598.0	1555.0	1555.0	1555.0	1540.0	1540.0	1559.0	1559.0	1559.0	1581.0	1581.0	1543.0	1543.0	1543.0	1558.0	1558.0	1570.0	1570.0	1570.0	1529.0	1529.0	1575.0	1575.0	1575.0	1573.0	1573.0	1544.0	1544.0	1542.0	1542.0	1542.0	1598.0	1598.0	1593.0	1593.0	1593.0	1547.0	1547.0	1591.0	1591.0	1591.0	1584.0	1584.0	1603.0	1603.0	1603.0	1578.0	1578.0	1561.0	1561.0	1561.0	1569.0	1569.0	1597.0	1597.0	1597.0	1573.0	1573.0	1559.0	1559.0	1559.0	1575.0	1575.0	1580.0	1580.0	1580.0	1584.0	1584.0	1575.0	1575.0	1575.0	1572.0	1572.0	1578.0	1578.0	1578.0	1518.0	1518.0	1520.0	1520.0	1520.0	1518.0	1518.0	1560.0	1560.0	1560.0	1558.0	1558.0	1527.0	1527.0	1527.0	1523.0	1523.0	1576.0	1576.0	1576.0	1533.0	1533.0	1542.0	1542.0	1542.0	1596.0	1596.0	1582.0	1582.0	1582.0	1526.0	1526.0	1588.0	1588.0	1588.0	1558.0	1558.0	1536.0	1536.0	1536.0	1559.0	1559.0	1546.0	1546.0	1546.0	1521.0	1521.0	1590.0	1590.0	1590.0	1522.0	1522.0	1537.0	1537.0	1537.0	1556.0	1556.0	1587.0	1587.0	1587.0	1553.0	1553.0	1545.0	1545.0	1545.0	1583.0	1583.0	1517.0	1517.0	1517.0	1568.0	1568.0	1594.0	1594.0	1594.0	1571.0	1571.0	1523.0	1523.0	1523.0	1579.0	1579.0	1537.0	1537.0	1537.0	1550.0	1550.0	1510.0	1510.0	1510.0	1543.0	1543.0	1564.0	1564.0	1564.0	1515.0	1515.0	1523.0	1523.0	1523.0	1520.0	1520.0	1576.0	1576.0	1576.0	1549.0	1549.0	1539.0	1539.0	1539.0	1568.0	1568.0	1516.0	1516.0	1516.0	1544.0	1544.0	1536.0	1536.0	1536.0	1509.0	1509.0	1527.0	1527.0	1527.0	1532.0	1532.0	1567.0	1567.0	1567.0	1502.0	1502.0	1576.0	1576.0	1576.0	1520.0	1520.0	1548.0	1548.0	1548.0	1523.0	1523.0	1529.0	1529.0	1529.0	1511.0	1511.0	1581.0	1581.0	1581.0	1514.0	1514.0	1566.0	1566.0	1549.0	1549.0	1549.0	1544.0	1544.0	1523.0	1523.0	1523.0	1584.0	1584.0	1528.0	1528.0	1528.0	1562.0	1562.0	1612.0	1612.0	1612.0	1595.0	1595.0	1573.0	1573.0	1573.0	1588.0	1588.0	1598.0	1598.0	1598.0	1623.0	1623.0	1687.0	1687.0	1687.0	1693.0	1693.0	1724.0	1724.0	1724.0	1707.0	1707.0	1700.0	1700.0	1700.0	1778.0	1778.0	1758.0	1758.0	1758.0	1775.0	1775.0	1829.0	1829.0	1829.0	1832.0	1832.0	1840.0	1840.0	1840.0	1871.0	1871.0	1898.0	1898.0	1898.0	1929.0	1929.0	1990.0	1990.0	1990.0	1977.0	1977.0	2037.0	2037.0	2037.0	2051.0	2051.0	2062.0	2062.0	2062.0	2124.0	2124.0	2123.0	2123.0	2123.0	2221.0	2221.0	2239.0	2239.0	2239.0	2236.0	2236.0	2287.0	2287.0	2287.0	2249.0	2249.0	2323.0	2323.0	2323.0	2291.0	2291.0	2308.0	2308.0	2308.0	2329.0	2329.0	2372.0	2372.0	2372.0	2377.0	2377.0	2404.0	2404.0	2404.0	2446.0	2446.0	2439.0	2439.0	2439.0	2483.0	2483.0	2512.0	2512.0	2512.0	2483.0	2483.0	2523.0	2523.0	2523.0	2484.0	2484.0	2520.0	2520.0	2520.0	2524.0	2524.0	2530.0	2530.0	2530.0	2539.0	2539.0	2555.0	2555.0	2555.0	2568.0	2568.0	2554.0	2554.0	2554.0	2568.0	2568.0	2586.0	2586.0	2586.0	2586.0	2586.0	2595.0	2595.0	2595.0	2618.0	2618.0	2624.0	2624.0	2624.0	2609.0	2609.0	2659.0	2659.0	2659.0	2685.0	2685.0	2662.0	2662.0	2662.0	2690.0	2690.0	2665.0	2665.0	2665.0	2633.0	2633.0	2677.0	2677.0	2677.0	2648.0	2648.0	2681.0	2681.0	2681.0	2692.0	2692.0	2690.0	2690.0	2690.0	2699.0	2699.0	2673.0	2673.0	2673.0	2682.0	2682.0	2640.0	2640.0	2640.0	2692.0	2692.0	2692.0	2692.0	2701.0	2701.0	2701.0	2643.0	2643.0	2703.0	2703.0	2703.0	2642.0	2642.0	2702.0	2702.0	2702.0	2702.0	2702.0	2694.0	2694.0	2694.0	2654.0	2654.0	2682.0	2682.0	2682.0	2686.0	2686.0	2666.0	2666.0	2666.0	2621.0	2621.0	2631.0	2631.0	2631.0	2661.0	2661.0	2638.0	2638.0	2638.0	2667.0	2667.0	2640.0	2640.0	2640.0	2665.0	2665.0	2622.0	2622.0	2622.0	2613.0	2613.0	2645.0	2645.0	2645.0	2647.0	2647.0	2567.0	2567.0	2567.0	2612.0	2612.0	2560.0	2560.0	2560.0	2542.0	2542.0	2548.0	2548.0	2548.0	2550.0	2550.0	2587.0	2587.0	2587.0	2571.0	2571.0	2551.0	2551.0	2551.0	2542.0	2542.0	2530.0	2530.0	2530.0	2527.0	2527.0	2493.0	2493.0	2493.0	2508.0	2508.0	2482.0	2482.0	2482.0	2436.0	2436.0	2450.0	2450.0	2450.0	2404.0	2404.0	2444.0	2444.0	2444.0	2414.0	2414.0	2367.0	2367.0	2367.0	2385.0	2385.0	2393.0	2393.0	2393.0	2352.0	2352.0	2366.0	2366.0	2366.0	2308.0	2308.0	2298.0	2298.0	2298.0	2272.0	2272.0	2273.0	2273.0	2273.0	2261.0	2261.0	2248.0	2248.0	2248.0	2284.0	2284.0	2288.0	2288.0	2288.0	2228.0	2228.0	2241.0	2241.0	2241.0	2230.0	2230.0	2260.0	2260.0	2260.0	2240.0	2240.0	2187.0	2187.0	2187.0	2232.0	2232.0	2161.0	2161.0	2161.0	2209.0	2209.0	2176.0	2176.0	2176.0	2174.0	2174.0	2197.0	2197.0	2197.0	2165.0	2165.0	2163.0	2163.0	2163.0	2186.0	2186.0	2153.0	2153.0	2153.0	2189.0	2189.0	2135.0	2135.0	2135.0	2137.0	2137.0	2110.0	2110.0	2110.0	2115.0	2115.0	2141.0	2141.0	2141.0	2161.0	2161.0	2091.0	2091.0	2091.0	2153.0	2153.0	2094.0	2094.0	2115.0	2115.0	2115.0	2088.0	2088.0	2118.0	2118.0	2118.0	2078.0	2078.0	2127.0	2127.0	2127.0	2097.0	2097.0	2066.0	2066.0	2066.0	2057.0	2057.0	2121.0	2121.0	2121.0	2049.0	2049.0	2064.0	2064.0	2064.0	2040.0	2040.0	2071.0	2071.0	2071.0	2061.0	2061.0	2060.0	2060.0	2060.0	2059.0	2059.0	2060.0	2060.0	2060.0	2012.0	2012.0	2038.0	2038.0	2038.0	2025.0	2025.0	2064.0	2064.0	2064.0	2061.0	2061.0	1978.0	1978.0	1978.0	2044.0	2044.0	1988.0	1988.0	1988.0	2025.0	2025.0	2035.0	2035.0	2035.0	1970.0	1970.0	2014.0	2014.0	2014.0	1967.0	1967.0	1973.0	1973.0	1973.0	1982.0	1982.0	1930.0	1930.0	1930.0	1936.0	1936.0	1957.0	1957.0	1957.0	1951.0	1951.0	1941.0	1941.0	1941.0	1975.0	1975.0	1943.0	1943.0	1943.0	1970.0	1970.0	1971.0	1971.0	1971.0	1963.0	1963.0	1897.0	1897.0	1897.0	1948.0	1948.0	1917.0	1917.0	1917.0	1875.0	1875.0	1877.0	1877.0	1877.0	1934.0	1934.0	1857.0	1857.0	1857.0	1920.0	1920.0	1890.0	1890.0	1890.0	1846.0	1846.0	1902.0	1902.0	1902.0	1851.0	1851.0	1829.0	1829.0	1829.0	1835.0	1835.0	1892.0	1892.0	1892.0	1870.0	1870.0	1812.0	1812.0	1812.0	1876.0	1876.0	1800.0	1800.0	1800.0	1831.0	1831.0	1799.0	1799.0	1799.0	1846.0	1846.0	1853.0	1853.0	1853.0	1842.0	1842.0	1832.0	1832.0	1832.0	1785.0	1785.0	1787.0	1787.0	1787.0	1792.0	1792.0	1770.0	1770.0	1770.0	1819.0	1819.0	1796.0	1796.0	1796.0	1811.0	1811.0	1762.0	1762.0	1762.0	1741.0	1741.0	1807.0	1807.0	1807.0	1745.0	1745.0	1732.0	1732.0	1732.0	1729.0	1729.0	1733.0	1733.0	1766.0	1766.0	1766.0	1721.0	1721.0	1777.0	1777.0	1777.0	1740.0	1740.0	1714.0	1714.0	1714.0	1727.0	1727.0	1724.0	1724.0	1724.0	1760.0	1760.0	1750.0	1750.0	1750.0	1748.0	1748.0	1743.0	1743.0	1743.0	1747.0	1747.0	1738.0	1738.0	1738.0	1737.0	1737.0	1688.0	1688.0	1688.0	1690.0	1690.0	1691.0	1691.0	1691.0	1697.0	1697.0	1697.0	1697.0	1697.0	1726.0	1726.0	1726.0	1726.0	1726.0	1663.0	1663.0	1694.0	1694.0	1694.0	1701.0	1701.0	1691.0	1691.0	1691.0	1689.0	1689.0	1659.0	1659.0	1659.0	1693.0	1693.0	1681.0	1681.0	1681.0	1705.0	1705.0	1688.0	1688.0	1688.0	1658.0	1658.0	1693.0	1693.0	1693.0	1647.0	1647.0	1687.0	1687.0	1687.0	1674.0	1674.0	1635.0	1635.0	1635.0	1627.0	1627.0	1693.0	1693.0	1693.0	1644.0	1644.0	1687.0	1687.0	1687.0	1630.0	1630.0	1646.0	1646.0	1646.0	1675.0	1675.0	1686.0	1686.0	1686.0	1684.0	1684.0	1616.0	1616.0	1616.0	1638.0	1638.0	1618.0	1618.0	1618.0	1679.0	1679.0	1670.0	1670.0	1670.0	1617.0	1617.0	1619.0	1619.0	1619.0	1670.0	1670.0	1657.0	1657.0	1657.0	1608.0	1608.0	1673.0	1673.0	1673.0	1628.0	1628.0	1627.0	1627.0	1627.0	1615.0	1615.0	1610.0	1610.0	1610.0	1651.0	1651.0	1667.0	1667.0	1667.0	1594.0	1594.0	1617.0	1617.0	1617.0	1598.0	1598.0	1595.0	1595.0	1595.0	1625.0	1625.0	1601.0	1601.0	1601.0	1646.0	1646.0	1620.0	1620.0	1620.0	1623.0	1623.0	1621.0	1621.0	1621.0	1664.0	1664.0	1644.0	1644.0	1644.0	1629.0	1629.0	1599.0	1599.0	1599.0	1629.0	1629.0	1614.0	1614.0	1614.0	1642.0	1642.0	1635.0	1635.0	1635.0	1616.0	1616.0	1656.0	1656.0	1655.0	1655.0	1655.0	1613.0	1613.0	1643.0	1643.0	1643.0	1585.0	1585.0	1655.0	1655.0	1655.0	1647.0	1647.0	1598.0	1598.0	1598.0	1627.0	1627.0	1630.0	1630.0	1630.0	1636.0	1636.0	1595.0	1595.0	1595.0	1591.0	1591.0	1591.0	1591.0	1591.0	1641.0	1641.0	1643.0	1643.0	1643.0	1611.0	1611.0	1580.0	1580.0	1580.0	1612.0	1612.0	1623.0	1623.0	1623.0	1631.0	1631.0	1620.0	1620.0	1620.0	1643.0	1643.0	1582.0	1582.0	1582.0	1583.0	1583.0	1598.0	1598.0	1598.0	1609.0	1609.0	1632.0	1632.0	1632.0	1601.0	1601.0	1622.0	1622.0	1622.0	1628.0	1628.0	1628.0	1628.0	1628.0	1583.0	1583.0	1568.0	1568.0	1568.0	1593.0	1593.0	1595.0	1595.0	1595.0	1576.0	1576.0	1582.0	1582.0	1582.0	1633.0	1633.0	1598.0	1598.0	1598.0	1589.0	1589.0	1601.0	1601.0	1601.0	1580.0	1580.0	1643.0	1643.0	1643.0	1580.0	1580.0	1640.0	1640.0	1640.0	1576.0	1576.0	1576.0	1576.0	1576.0	1616.0	1616.0	1611.0	1611.0	1611.0	1614.0	1614.0	1584.0	1584.0	1584.0	1618.0	1618.0	1619.0	1619.0	1619.0	1604.0	1604.0	1566.0	1566.0	1566.0	1636.0	1636.0	1592.0	1592.0	1592.0	1635.0	1635.0	1619.0	1619.0	1619.0	1592.0	1592.0	1595.0	1595.0	1595.0	1676.0	1676.0	1669.0	1669.0	1669.0	1619.0	1619.0	1695.0	1695.0	1695.0	1657.0	1657.0	1676.0	1676.0	1676.0	1686.0	1686.0	1709.0	1709.0	1709.0	1771.0	1771.0	1722.0	1722.0	1722.0	1821.0	1821.0	1840.0	1840.0	1840.0	1843.0	1843.0	1816.0	1816.0	1816.0	1914.0	1914.0	1929.0	1929.0	1929.0	1893.0	1893.0	1920.0	1920.0	1920.0	1996.0	1996.0	1969.0	1969.0	1998.0	1998.0	1998.0	2036.0	2036.0	2051.0	2051.0	2051.0	2138.0	2138.0	2151.0	2151.0	2151.0	2153.0	2153.0	2205.0	2205.0	2205.0	2205.0	2205.0	2212.0	2212.0	2212.0	2291.0	2291.0	2281.0	2281.0	2281.0	2338.0	2338.0	2326.0	2326.0	