2022.0	2022.0	2022.0	2047.0	2047.0	2022.0	2022.0	2022.0	2004.0	2004.0	2030.0	2030.0	2030.0	2008.0	2008.0	2000.0	2000.0	2000.0	2009.0	2009.0	1998.0	1998.0	1998.0	1988.0	1988.0	1990.0	1990.0	1990.0	1977.0	1977.0	2015.0	2015.0	2015.0	1995.0	1995.0	1965.0	1965.0	1965.0	1974.0	1974.0	1982.0	1982.0	1982.0	1947.0	1947.0	1979.0	1979.0	1979.0	1975.0	1975.0	1959.0	1959.0	1941.0	1941.0	1941.0	1952.0	1952.0	1955.0	1955.0	1955.0	1969.0	1969.0	1939.0	1939.0	1939.0	1944.0	1944.0	1928.0	1928.0	1928.0	1961.0	1961.0	1941.0	1941.0	1941.0	1916.0	1916.0	1914.0	1914.0	1914.0	1955.0	1955.0	1938.0	1938.0	1938.0	1920.0	1920.0	1912.0	1912.0	1912.0	1904.0	1904.0	1937.0	1937.0	1937.0	1930.0	1930.0	1948.0	1948.0	1948.0	1935.0	1935.0	1883.0	1883.0	1883.0	1898.0	1898.0	1890.0	1890.0	1890.0	1924.0	1924.0	1931.0	1931.0	1931.0	1894.0	1894.0	1911.0	1911.0	1911.0	1888.0	1888.0	1884.0	1884.0	1884.0	1870.0	1870.0	1900.0	1900.0	1900.0	1880.0	1880.0	1864.0	1864.0	1864.0	1875.0	1875.0	1862.0	1862.0	1862.0	1871.0	1871.0	1879.0	1879.0	1879.0	1877.0	1877.0	1853.0	1853.0	1853.0	1859.0	1859.0	1884.0	1884.0	1884.0	1884.0	1884.0	1847.0	1847.0	1847.0	1856.0	1856.0	1859.0	1859.0	1859.0	1865.0	1865.0	1830.0	1830.0	1830.0	1851.0	1851.0	1859.0	1859.0	1859.0	1862.0	1862.0	1837.0	1837.0	1837.0	1865.0	1865.0	1845.0	1845.0	1845.0	1832.0	1832.0	1872.0	1872.0	1872.0	1820.0	1820.0	1831.0	1831.0	1831.0	1863.0	1863.0	1830.0	1830.0	1830.0	1844.0	1844.0	1817.0	1817.0	1817.0	1819.0	1819.0	1863.0	1863.0	1863.0	1843.0	1843.0	1865.0	1865.0	1865.0	1860.0	1860.0	1823.0	1823.0	1823.0	1847.0	1847.0	1826.0	1826.0	1826.0	1824.0	1824.0	1835.0	1835.0	1835.0	1843.0	1843.0	1856.0	1856.0	1856.0	1823.0	1823.0	1812.0	1812.0	1812.0	1845.0	1845.0	1858.0	1858.0	1858.0	1849.0	1849.0	1817.0	1817.0	1817.0	1846.0	1846.0	1847.0	1847.0	1838.0	1838.0	1838.0	1791.0	1791.0	1812.0	1812.0	1812.0	1820.0	1820.0	1808.0	1808.0	1808.0	1831.0	1831.0	1831.0	1831.0	1831.0	1805.0	1805.0	1813.0	1813.0	1813.0	1822.0	1822.0	1819.0	1819.0	1819.0	1806.0	1806.0	1827.0	1827.0	1827.0	1817.0	1817.0	1838.0	1838.0	1838.0	1827.0	1827.0	1808.0	1808.0	1808.0	1794.0	1794.0	1794.0	1794.0	1794.0	1807.0	1807.0	1798.0	1798.0	1798.0	1802.0	1802.0	1798.0	1798.0	1798.0	1810.0	1810.0	1823.0	1823.0	1823.0	1794.0	1794.0	1817.0	1817.0	1817.0	1842.0	1842.0	1794.0	1794.0	1794.0	1791.0	1791.0	1831.0	1831.0	1831.0	1812.0	1812.0	1816.0	1816.0	1816.0	1808.0	1808.0	1845.0	1845.0	1845.0	1804.0	1804.0	1801.0	1801.0	1801.0	1830.0	1830.0	1789.0	1789.0	1789.0	1803.0	1803.0	1799.0	1799.0	1799.0	1790.0	1790.0	1804.0	1804.0	1804.0	1819.0	1819.0	1819.0	1819.0	1819.0	1839.0	1839.0	1798.0	1798.0	1798.0	1798.0	1798.0	1816.0	1816.0	1816.0	1777.0	1777.0	1792.0	1792.0	1792.0	1827.0	1827.0	1786.0	1786.0	1786.0	1789.0	1789.0	1824.0	1824.0	1824.0	1820.0	1820.0	1793.0	1793.0	1793.0	1814.0	1814.0	1794.0	1794.0	1794.0	1815.0	1815.0	1795.0	1795.0	1795.0	1820.0	1820.0	1803.0	1803.0	1803.0	1832.0	1832.0	1798.0	1798.0	1798.0	1829.0	1829.0	1829.0	1829.0	1829.0	1807.0	1807.0	1804.0	1804.0	1804.0	1818.0	1818.0	1804.0	1804.0	1804.0	1831.0	1831.0	1830.0	1830.0	1830.0	1840.0	1840.0	1837.0	1837.0	1837.0	1863.0	1863.0	1878.0	1878.0	1878.0	1884.0	1884.0	1888.0	1888.0	1888.0	1939.0	1939.0	1917.0	1917.0	1917.0	1912.0	1912.0	1957.0	1957.0	1977.0	1977.0	1977.0	2001.0	2001.0	1979.0	1979.0	1979.0	2001.0	2001.0	2012.0	2012.0	2012.0	2044.0	2044.0	2042.0	2042.0	2042.0	2082.0	2082.0	2109.0	2109.0	2109.0	2102.0	2102.0	2115.0	2115.0	2115.0	2119.0	2119.0	2148.0	2148.0	2148.0	2142.0	2142.0	2176.0	2176.0	2176.0	2199.0	2199.0	2207.0	2207.0	2207.0	2236.0	2236.0	2238.0	2238.0	2238.0	2270.0	2270.0	2266.0	2266.0	2266.0	2295.0	2295.0	2293.0	2293.0	2293.0	2319.0	2319.0	2307.0	2307.0	2307.0	2331.0	2331.0	2313.0	2313.0	2313.0	2311.0	2311.0	2338.0	2338.0	2338.0	2356.0	2356.0	2351.0	2351.0	2351.0	2382.0	2382.0	2351.0	2351.0	2351.0	2394.0	2394.0	2377.0	2377.0	2377.0	2396.0	2396.0	2382.0	2382.0	2382.0	2384.0	2384.0	2418.0	2418.0	2418.0	2400.0	2400.0	2436.0	2436.0	2436.0	2411.0	2411.0	2409.0	2409.0	2409.0	2413.0	2413.0	2448.0	2448.0	2448.0	2418.0	2418.0	2437.0	2437.0	2437.0	2443.0	2443.0	2461.0	2461.0	2461.0	2442.0	2442.0	2423.0	2423.0	2423.0	2406.0	2406.0	2429.0	2429.0	2429.0	2460.0	2460.0	2438.0	2438.0	2438.0	2436.0	2436.0	2425.0	2425.0	2425.0	2431.0	2431.0	2466.0	2466.0	2466.0	2438.0	2438.0	2430.0	2430.0	2430.0	2421.0	2421.0	2444.0	2444.0	2444.0	2447.0	2447.0	2442.0	2442.0	2442.0	2446.0	2446.0	2439.0	2439.0	2439.0	2447.0	2447.0	2448.0	2448.0	2448.0	2437.0	2437.0	2437.0	2437.0	2437.0	2435.0	2435.0	2447.0	2447.0	2447.0	2418.0	2418.0	2429.0	2429.0	2429.0	2428.0	2428.0	2426.0	2426.0	2426.0	2431.0	2431.0	2403.0	2403.0	2403.0	2423.0	2423.0	2427.0	2427.0	2394.0	2394.0	2394.0	2396.0	2396.0	2386.0	2386.0	2386.0	2386.0	2386.0	2403.0	2403.0	2403.0	2398.0	2398.0	2391.0	2391.0	2391.0	2389.0	2389.0	2389.0	2389.0	2389.0	2357.0	2357.0	2342.0	2342.0	2342.0	2358.0	2358.0	2346.0	2346.0	2346.0	2364.0	2364.0	2353.0	2353.0	2353.0	2347.0	2347.0	2336.0	2336.0	2336.0	2349.0	2349.0	2323.0	2323.0	2323.0	2320.0	2320.0	2296.0	2296.0	2296.0	2307.0	2307.0	2285.0	2285.0	2285.0	2278.0	2278.0	2285.0	2285.0	2285.0	2252.0	2252.0	2238.0	2238.0	2238.0	2231.0	2231.0	2227.0	2227.0	2227.0	2242.0	2242.0	2233.0	2233.0	2233.0	2238.0	2238.0	2193.0	2193.0	2193.0	2196.0	2196.0	2174.0	2174.0	2174.0	2167.0	2167.0	2169.0	2169.0	2169.0	2168.0	2168.0	2144.0	2144.0	2144.0	2148.0	2148.0	2149.0	2149.0	2149.0	2126.0	2126.0	2141.0	2141.0	2141.0	2152.0	2152.0	2141.0	2141.0	2141.0	2106.0	2106.0	2140.0	2140.0	2140.0	2119.0	2119.0	2122.0	2122.0	2122.0	2095.0	2095.0	2124.0	2124.0	2124.0	2126.0	2126.0	2098.0	2098.0	2098.0	2095.0	2095.0	2093.0	2093.0	2093.0	2100.0	2100.0	2093.0	2093.0	2093.0	2106.0	2106.0	2080.0	2080.0	2080.0	2066.0	2066.0	2062.0	2062.0	2062.0	2075.0	2075.0	2076.0	2076.0	2076.0	2085.0	2085.0	2054.0	2054.0	2054.0	2051.0	2051.0	2087.0	2087.0	2087.0	2043.0	2043.0	2050.0	2050.0	2050.0	2043.0	2043.0	2034.0	2034.0	2034.0	2035.0	2035.0	2046.0	2046.0	2046.0	2051.0	2051.0	2037.0	2037.0	2037.0	2033.0	2033.0	2054.0	2054.0	2054.0	2014.0	2014.0	2011.0	2011.0	2011.0	2003.0	2003.0	2023.0	2023.0	2036.0	2036.0	2036.0	2024.0	2024.0	2011.0	2011.0	2011.0	2018.0	2018.0	2011.0	2011.0	2011.0	2006.0	2006.0	2004.0	2004.0	2004.0	1991.0	1991.0	1996.0	1996.0	1996.0	2012.0	2012.0	1988.0	1988.0	1988.0	1982.0	1982.0	1968.0	1968.0	1968.0	1986.0	1986.0	1991.0	1991.0	1991.0	1977.0	1977.0	1991.0	1991.0	1991.0	1959.0	1959.0	1959.0	1959.0	1959.0	1986.0	1986.0	1985.0	1985.0	1985.0	1990.0	1990.0	1949.0	1949.0	1949.0	1974.0	1974.0	1959.0	1959.0	1959.0	1948.0	1948.0	1967.0	1967.0	1967.0	1928.0	1928.0	1960.0	1960.0	1960.0	1970.0	1970.0	1954.0	1954.0	1954.0	1963.0	1963.0	1914.0	1914.0	1914.0	1950.0	1950.0	1914.0	1914.0	1914.0	1924.0	1924.0	1912.0	1912.0	1912.0	1927.0	1927.0	1922.0	1922.0	1922.0	1914.0	1914.0	1889.0	1889.0	1889.0	1930.0	1930.0	1889.0	1889.0	1889.0	1913.0	1913.0	1883.0	1883.0	1883.0	1902.0	1902.0	1884.0	1884.0	1884.0	1902.0	1902.0	1895.0	1895.0	1895.0	1874.0	1874.0	1920.0	1920.0	1920.0	1869.0	1869.0	1871.0	1871.0	1871.0	1873.0	1873.0	1902.0	1902.0	1902.0	1871.0	1871.0	1842.0	1842.0	1842.0	1866.0	1866.0	1865.0	1865.0	1865.0	1871.0	1871.0	1847.0	1847.0	1847.0	1863.0	1863.0	1891.0	1891.0	1891.0	1846.0	1846.0	1845.0	1845.0	1845.0	1841.0	1841.0	1842.0	1842.0	1842.0	1880.0	1880.0	1864.0	1864.0	1864.0	1853.0	1853.0	1845.0	1845.0	1845.0	1831.0	1831.0	1849.0	1849.0	1849.0	1841.0	1841.0	1845.0	1845.0	1845.0	1840.0	1840.0	1856.0	1856.0	1856.0	1828.0	1828.0	1817.0	1817.0	1817.0	1819.0	1819.0	1827.0	1827.0	1827.0	1855.0	1855.0	1826.0	1826.0	1816.0	1816.0	1816.0	1841.0	1841.0	1847.0	1847.0	1847.0	1818.0	1818.0	1812.0	1812.0	1812.0	1827.0	1827.0	1807.0	1807.0	1807.0	1818.0	1818.0	1837.0	1837.0	1837.0	1794.0	1794.0	1806.0	1806.0	1806.0	1807.0	1807.0	1813.0	1813.0	1813.0	1829.0	1829.0	1804.0	1804.0	1804.0	1803.0	1803.0	1811.0	1811.0	1811.0	1799.0	1799.0	1831.0	1831.0	1831.0	1822.0	1822.0	1793.0	1793.0	1793.0	1779.0	1779.0	1832.0	1832.0	1832.0	1799.0	1799.0	1811.0	1811.0	1811.0	1823.0	1823.0	1801.0	1801.0	1801.0	1812.0	1812.0	1830.0	1830.0	1830.0	1800.0	1800.0	1787.0	1787.0	1787.0	1787.0	1787.0	1815.0	1815.0	1815.0	1794.0	1794.0	1819.0	1819.0	1819.0	1814.0	1814.0	1783.0	1783.0	1783.0	1825.0	1825.0	1794.0	1794.0	1794.0	1779.0	1779.0	1812.0	1812.0	1812.0	1812.0	1812.0	1795.0	1795.0	1795.0	1794.0	1794.0	1775.0	1775.0	1775.0	1812.0	1812.0	1820.0	1820.0	1820.0	1798.0	1798.0	1783.0	1783.0	1783.0	1797.0	1797.0	1807.0	1807.0	1807.0	1775.0	1775.0	1785.0	1785.0	1785.0	1784.0	1784.0	1809.0	1809.0	1809.0	1776.0	1776.0	1769.0	1769.0	1769.0	1779.0	1779.0	1779.0	1779.0	1779.0	1816.0	1816.0	1787.0	1787.0	1787.0	1779.0	1779.0	1790.0	1790.0	1790.0	1805.0	1805.0	1778.0	1778.0	1778.0	1804.0	1804.0	1804.0	1804.0	1804.0	1797.0	1797.0	1781.0	1781.0	1781.0	1776.0	1776.0	1773.0	1773.0	1773.0	1801.0	1801.0	1816.0	1816.0	1816.0	1790.0	1790.0	1783.0	1783.0	1783.0	1816.0	1816.0	1806.0	1806.0	1806.0	1763.0	1763.0	1795.0	1795.0	1795.0	1769.0	1769.0	1774.0	1774.0	1787.0	1787.0	1787.0	1806.0	1806.0	1818.0	1818.0	1818.0	1804.0	1804.0	1802.0	1802.0	1802.0	1800.0	1800.0	1769.0	1769.0	1769.0	1803.0	1803.0	1774.0	1774.0	1774.0	1798.0	1798.0	1800.0	1800.0	1800.0	1798.0	1798.0	1807.0	1807.0	1807.0	1787.0	1787.0	1768.0	1768.0	1768.0	1784.0	1784.0	1801.0	1801.0	1801.0	1815.0	1815.0	1797.0	1797.0	1797.0	1770.0	1770.0	1778.0	1778.0	1778.0	1791.0	1791.0	1764.0	1764.0	1764.0	1785.0	1785.0	1772.0	1772.0	1772.0	1825.0	1825.0	1775.0	1775.0	1775.0	1790.0	1790.0	1818.0	1818.0	1818.0	1771.0	1771.0	1791.0	1791.0	1791.0	1832.0	1832.0	1812.0	1812.0	1812.0	1798.0	1798.0	1842.0	1842.0	1842.0	1845.0	1845.0	1822.0	1822.0	1822.0	1875.0	1875.0	1864.0	1864.0	1864.0	1904.0	1904.0	1871.0	1871.0	1871.0	1915.0	1915.0	1945.0	1945.0	1945.0	1912.0	1912.0	1947.0	1947.0	1947.0	1968.0	1968.0	2010.0	2010.0	2010.0	1998.0	1998.0	2003.0	2003.0	2003.0	2045.0	2045.0	2057.0	2057.0	2057.0	2064.0	2064.0	2068.0	2068.0	2068.0	2080.0	2080.0	2139.0	2139.0	2139.0	2114.0	2114.0	2160.0	2160.0	2160.0	2187.0	2187.0	2157.0	2157.0	2157.0	2187.0	2187.0	2189.0	2189.0	2189.0	2238.0	2238.0	2262.0	2262.0	2262.0	2245.0	2245.0	2268.0	2268.0	2268.0	2272.0	2272.0	2266.0	2266.0	2266.0	2287.0	2287.0	2324.0	2324.0	2324.0	2305.0	2305.0	2338.0	2338.0	2338.0	2339.0	2339.0	2320.0	2320.0	2320.0	2342.0	2342.0	2355.0	2355.0	2355.0	2356.0	2356.0	2371.0	2371.0	2371.0	2366.0	2366.0	2387.0	2387.0	2387.0	2394.0	2394.0	2384.0	2384.0	2384.0	2398.0	2398.0	2409.0	2409.0	2421.0	2421.0	2421.0	2392.0	2392.0	2428.0	2428.0	2428.0	2425.0	2425.0	2435.0	2435.0	2435.0	2438.0	2438.0	2441.0	2441.0	2441.0	2413.0	2413.0	2402.0	2402.0	2402.0	2462.0	2462.0	2432.0	2432.0	2432.0	2427.0	2427.0	2426.0	2426.0	2426.0	2425.0	2425.0	2459.0	2459.0	2459.0	2455.0	2455.0	2440.0	2440.0	2440.0	2442.0	2442.0	2439.0	2439.0	2439.0	2449.0	2449.0	2443.0	2443.0	2443.0	2441.0	2441.0	2447.0	2447.0	2447.0	2429.0	2429.0	2462.0	2462.0	2462.0	2422.0	2422.0	2449.0	2449.0	2449.0	2426.0	2426.0	2455.0	2455.0	2455.0	2440.0	2440.0	2447.0	2447.0	2447.0	2445.0	2445.0	2427.0	2427.0	2427.0	2446.0	2446.0	2436.0	2436.0	2436.0	2445.0	2445.0	2443.0	2443.0	2443.0	2444.0	2444.0	2418.0	2418.0	2418.0	2411.0	2411.0	2402.0	2402.0	2402.0	2396.0	2396.0	2433.0	2433.0	2433.0	2406.0	2406.0	2429.0	2429.0	2429.0	2392.0	2392.0	2405.0	2405.0	2405.0	2388.0	2388.0	2377.0	2377.0	2377.0	2403.0	2403.0	2395.0	2395.0	2395.0	2383.0	2383.0	2379.0	2379.0	2379.0	2383.0	2383.0	2379.0	2379.0	2379.0	2350.0	2350.0	2355.0	2355.0	2355.0	2381.0	2381.0	2356.0	2356.0	2356.0	2358.0	2358.0	2325.0	2325.0	2325.0	2314.0	2314.0	2328.0	2328.0	2328.0	2292.0	2292.0	2323.0	2323.0	2323.0	2295.0	2295.0	2273.0	2273.0	2273.0	2272.0	2272.0	2269.0	2269.0	2269.0	2296.0	2296.0	2246.0	2246.0	2246.0	2226.0	2226.0	2243.0	2243.0	2243.0	2208.0	2208.0	2228.0	2228.0	2228.0	2211.0	2211.0	2219.0	2219.0	2219.0	2204.0	2204.0	2190.0	2190.0	2190.0	2163.0	2163.0	2160.0	2160.0	2168.0	2168.0	2168.0	2141.0	2141.0	2178.0	2178.0	2178.0	2125.0	2125.0	2136.0	2136.0	2136.0	2143.0	2143.0	2113.0	2113.0	2113.0	2132.0	2132.0	2103.0	2103.0	2103.0	2097.0	2097.0	2101.0	2101.0	2101.0	2099.0	2099.0	2086.0	2086.0	2086.0	2087.0	2087.0	2078.0	2078.0	2078.0	2089.0	2089.0	2089.0	2089.0	2089.0	2068.0	2068.0	2070.0	2070.0	2070.0	2063.0	2063.0	2065.0	2065.0	2065.0	2045.0	2045.0	2049.0	2049.0	2049.0	2040.0	2040.0	2091.0	2091.0	2091.0	2052.0	2052.0	2060.0	2060.0	2060.0	2061.0	2061.0	2069.0	2069.0	2069.0	2033.0	2033.0	2073.0	2073.0	2073.0	2040.0	2040.0	2049.0	2049.0	2049.0	2043.0	2043.0	2010.0	2010.0	2010.0	2028.0	2028.0	2051.0	2051.0	2051.0	2022.0	2022.0	1997.0	1997.0	1997.0	2000.0	2000.0	2025.0	2025.0	2025.0	2000.0	2000.0	2006.0	2006.0	2006.0	1993.0	1993.0	2018.0	2018.0	2018.0	2007.0	2007.0	2007.0	2007.0	2007.0	1998.0	1998.0	2017.0	2017.0	2017.0	2005.0	2005.0	1976.0	1976.0	1976.0	1982.0	1982.0	1974.0	1974.0	1974.0	1996.0	1996.0	1994.0	1994.0	1994.0	1988.0	1988.0	1986.0	1986.0	1986.0	2000.0	2000.0	1985.0	1985.0	1985.0	1961.0	1961.0	1970.0	1970.0	1970.0	1973.0	1973.0	1978.0	1978.0	1978.0	1971.0	1971.0	1974.0	1974.0	1974.0	1969.0	1969.0	1931.0	1931.0	1931.0	1935.0	1935.0	1938.0	1938.0	1938.0	1966.0	1966.0	1929.0	1929.0	1929.0	1922.0	1922.0	1923.0	1923.0	1923.0	1916.0	1916.0	1913.0	1913.0	1913.0	1935.0	1935.0	1893.0	1893.0	1893.0	1918.0	1918.0	1908.0	1908.0	1908.0	1889.0	1889.0	1918.0	1918.0	1903.0	1903.0	1903.0	1899.0	1899.0	1884.0	1884.0	1884.0	1895.0	1895.0	1897.0	1897.0	1897.0	1917.0	1917.0	1910.0	1910.0	1910.0	1869.0	1869.0	1875.0	1875.0	1875.0	1857.0	1857.0	1872.0	1872.0	1872.0	1905.0	1905.0	1895.0	1895.0	1895.0	1870.0	1870.0	1882.0	1882.0	1882.0	1851.0	1851.0	1896.0	1896.0	1896.0	1852.0	1852.0	1852.0	1852.0	1852.0	1859.0	1859.0	1839.0	1839.0	1839.0	1864.0	1864.0	1835.0	1835.0	1835.0	1854.0	1854.0	1863.0	1863.0	1863.0	1875.0	1875.0	1844.0	1844.0	1844.0	1857.0	1857.0	1854.0	1854.0	1854.0	1837.0	1837.0	1807.0	1807.0	1807.0	1823.0	1823.0	1854.0	1854.0	1854.0	1837.0	1837.0	1839.0	1839.0	1839.0	1852.0	1852.0	1826.0	1826.0	1826.0	1832.0	1832.0	1840.0	1840.0	1840.0	1808.0	1808.0	1826.0	1826.0	1826.0	1796.0	1796.0	1806.0	1806.0	1806.0	1809.0	1809.0	1793.0	1793.0	1793.0	1810.0	1810.0	1807.0	1807.0	1807.0	1845.0	1845.0	1802.0	1802.0	1802.0	1791.0	1791.0	1793.0	1793.0	1793.0	1808.0	1808.0	1796.0	1796.0	1796.0	1807.0	1807.0	1815.0	1815.0	1815.0	1790.0	1790.0	1784.0	1784.0	1784.0	1823.0	1823.0	1822.0	1822.0	1822.0	1790.0	1790.0	1815.0	1815.0	1815.0	1812.0	1812.0	1778.0	1778.0	1778.0	1805.0	1805.0	1784.0	1784.0	1784.0	1805.0	1805.0	1808.0	1808.0	1808.0	1777.0	1777.0	1804.0	1804.0	1804.0	1791.0	1791.0	1806.0	1806.0	1806.0	1798.0	1798.0	1809.0	1809.0	1809.0	1815.0	1815.0	1788.0	1788.0	1788.0	1785.0	1785.0	1795.0	1795.0	1795.0	1772.0	1772.0	1774.0	1774.0	1774.0	1800.0	1800.0	1772.0	1772.0	1772.0	1805.0	1805.0	1804.0	1804.0	1802.0	1802.0	1802.0	1781.0	1781.0	1783.0	1783.0	1783.0	