1631.0	1631.0	1628.0	1628.0	1628.0	1562.0	1562.0	1557.0	1557.0	1557.0	1608.0	1608.0	1562.0	1562.0	1562.0	1591.0	1591.0	1577.0	1577.0	1577.0	1601.0	1601.0	1590.0	1590.0	1590.0	1660.0	1660.0	1645.0	1645.0	1645.0	1608.0	1608.0	1631.0	1631.0	1631.0	1635.0	1635.0	1724.0	1724.0	1724.0	1684.0	1684.0	1766.0	1766.0	1766.0	1741.0	1741.0	1752.0	1752.0	1752.0	1799.0	1799.0	1874.0	1874.0	1874.0	1893.0	1893.0	1883.0	1883.0	1883.0	1931.0	1931.0	1970.0	1970.0	1970.0	2017.0	2017.0	2103.0	2103.0	2103.0	2126.0	2126.0	2145.0	2145.0	2145.0	2230.0	2230.0	2293.0	2293.0	2293.0	2329.0	2329.0	2291.0	2291.0	2291.0	2345.0	2345.0	2411.0	2411.0	2411.0	2431.0	2431.0	2486.0	2486.0	2486.0	2520.0	2520.0	2559.0	2559.0	2559.0	2607.0	2607.0	2620.0	2620.0	2620.0	2601.0	2601.0	2650.0	2650.0	2650.0	2657.0	2657.0	2747.0	2747.0	2747.0	2738.0	2738.0	2776.0	2776.0	2776.0	2805.0	2805.0	2836.0	2836.0	2836.0	2852.0	2852.0	2878.0	2878.0	2878.0	2844.0	2844.0	2839.0	2839.0	2839.0	2850.0	2850.0	2870.0	2870.0	2870.0	2889.0	2889.0	2946.0	2946.0	2946.0	2966.0	2966.0	2942.0	2942.0	2942.0	2919.0	2919.0	2988.0	2988.0	2988.0	2936.0	2936.0	2951.0	2951.0	2951.0	2960.0	2960.0	2951.0	2951.0	2951.0	3007.0	3007.0	2939.0	2939.0	2939.0	2974.0	2974.0	2956.0	2956.0	2956.0	2942.0	2942.0	2973.0	2973.0	2973.0	2941.0	2941.0	2977.0	2977.0	2977.0	2933.0	2933.0	2955.0	2955.0	2955.0	2955.0	2955.0	2942.0	2942.0	2942.0	2921.0	2921.0	2918.0	2918.0	2918.0	2983.0	2983.0	2973.0	2973.0	2973.0	2977.0	2977.0	2952.0	2952.0	2882.0	2882.0	2882.0	2943.0	2943.0	2891.0	2891.0	2891.0	2928.0	2928.0	2913.0	2913.0	2913.0	2882.0	2882.0	2907.0	2907.0	2907.0	2831.0	2831.0	2817.0	2817.0	2817.0	2839.0	2839.0	2867.0	2867.0	2867.0	2846.0	2846.0	2798.0	2798.0	2798.0	2770.0	2770.0	2833.0	2833.0	2833.0	2755.0	2755.0	2802.0	2802.0	2802.0	2721.0	2721.0	2715.0	2715.0	2715.0	2709.0	2709.0	2711.0	2711.0	2711.0	2741.0	2741.0	2725.0	2725.0	2725.0	2662.0	2662.0	2648.0	2648.0	2648.0	2627.0	2627.0	2662.0	2662.0	2662.0	2651.0	2651.0	2643.0	2643.0	2643.0	2579.0	2579.0	2555.0	2555.0	2555.0	2552.0	2552.0	2566.0	2566.0	2566.0	2565.0	2565.0	2488.0	2488.0	2488.0	2506.0	2506.0	2526.0	2526.0	2526.0	2458.0	2458.0	2481.0	2481.0	2481.0	2401.0	2401.0	2399.0	2399.0	2399.0	2435.0	2435.0	2368.0	2368.0	2368.0	2339.0	2339.0	2343.0	2343.0	2343.0	2343.0	2343.0	2311.0	2311.0	2311.0	2302.0	2302.0	2311.0	2311.0	2311.0	2256.0	2256.0	2212.0	2212.0	2212.0	2259.0	2259.0	2179.0	2179.0	2179.0	2215.0	2215.0	2182.0	2182.0	2182.0	2156.0	2156.0	2122.0	2122.0	2122.0	2143.0	2143.0	2162.0	2162.0	2162.0	2150.0	2150.0	2111.0	2111.0	2111.0	2128.0	2128.0	2128.0	2128.0	2128.0	2051.0	2051.0	2102.0	2102.0	2102.0	2035.0	2035.0	2057.0	2057.0	2057.0	2009.0	2009.0	2003.0	2003.0	2003.0	2036.0	2036.0	2052.0	2052.0	2052.0	1989.0	1989.0	2055.0	2055.0	2055.0	2051.0	2051.0	2030.0	2030.0	2030.0	2005.0	2005.0	1963.0	1963.0	1963.0	1965.0	1965.0	1957.0	1957.0	1957.0	1949.0	1949.0	2018.0	2018.0	1959.0	1959.0	1959.0	1947.0	1947.0	1934.0	1934.0	1934.0	2000.0	2000.0	1980.0	1980.0	1980.0	1942.0	1942.0	1913.0	1913.0	1913.0	1955.0	1955.0	1908.0	1908.0	1908.0	1987.0	1987.0	1975.0	1975.0	1975.0	1922.0	1922.0	1970.0	1970.0	1970.0	1955.0	1955.0	1956.0	1956.0	1956.0	1952.0	1952.0	1946.0	1946.0	1946.0	1951.0	1951.0	1890.0	1890.0	1890.0	1950.0	1950.0	1882.0	1882.0	1882.0	1943.0	1943.0	1916.0	1916.0	1916.0	1893.0	1893.0	1945.0	1945.0	1945.0	1942.0	1942.0	1887.0	1887.0	1887.0	1924.0	1924.0	1863.0	1863.0	1863.0	1929.0	1929.0	1870.0	1870.0	1870.0	1863.0	1863.0	1869.0	1869.0	1869.0	1898.0	1898.0	1879.0	1879.0	1879.0	1846.0	1846.0	1899.0	1899.0	1899.0	1830.0	1830.0	1840.0	1840.0	1840.0	1838.0	1838.0	1818.0	1818.0	1818.0	1819.0	1819.0	1816.0	1816.0	1816.0	1882.0	1882.0	1835.0	1835.0	1835.0	1829.0	1829.0	1813.0	1813.0	1813.0	1791.0	1791.0	1831.0	1831.0	1831.0	1789.0	1789.0	1816.0	1816.0	1816.0	1831.0	1831.0	1812.0	1812.0	1812.0	1775.0	1775.0	1773.0	1773.0	1773.0	1819.0	1819.0	1767.0	1767.0	1767.0	1758.0	1758.0	1765.0	1765.0	1765.0	1829.0	1829.0	1816.0	1816.0	1816.0	1748.0	1748.0	1818.0	1818.0	1818.0	1794.0	1794.0	1802.0	1802.0	1802.0	1793.0	1793.0	1754.0	1754.0	1754.0	1758.0	1758.0	1750.0	1750.0	1750.0	1805.0	1805.0	1738.0	1738.0	1738.0	1776.0	1776.0	1780.0	1780.0	1780.0	1773.0	1773.0	1706.0	1706.0	1706.0	1759.0	1759.0	1693.0	1693.0	1693.0	1745.0	1745.0	1735.0	1735.0	1735.0	1723.0	1723.0	1742.0	1742.0	1713.0	1713.0	1713.0	1684.0	1684.0	1732.0	1732.0	1732.0	1740.0	1740.0	1726.0	1726.0	1726.0	1691.0	1691.0	1687.0	1687.0	1687.0	1665.0	1665.0	1724.0	1724.0	1724.0	1705.0	1705.0	1662.0	1662.0	1662.0	1633.0	1633.0	1688.0	1688.0	1688.0	1687.0	1687.0	1636.0	1636.0	1636.0	1647.0	1647.0	1702.0	1702.0	1702.0	1683.0	1683.0	1683.0	1683.0	1683.0	1642.0	1642.0	1674.0	1674.0	1674.0	1615.0	1615.0	1694.0	1694.0	1694.0	1645.0	1645.0	1669.0	1669.0	1669.0	1668.0	1668.0	1616.0	1616.0	1616.0	1634.0	1634.0	1603.0	1603.0	1603.0	1671.0	1671.0	1638.0	1638.0	1638.0	1596.0	1596.0	1642.0	1642.0	1642.0	1621.0	1621.0	1675.0	1675.0	1675.0	1605.0	1605.0	1656.0	1656.0	1656.0	1658.0	1658.0	1655.0	1655.0	1655.0	1587.0	1587.0	1671.0	1671.0	1671.0	1601.0	1601.0	1595.0	1595.0	1595.0	1587.0	1587.0	1589.0	1589.0	1589.0	1626.0	1626.0	1590.0	1590.0	1590.0	1596.0	1596.0	1637.0	1637.0	1637.0	1661.0	1661.0	1583.0	1583.0	1583.0	1628.0	1628.0	1594.0	1594.0	1594.0	1587.0	1587.0	1614.0	1614.0	1614.0	1642.0	1642.0	1655.0	1655.0	1655.0	1659.0	1659.0	1664.0	1664.0	1664.0	1599.0	1599.0	1646.0	1646.0	1646.0	1606.0	1606.0	1642.0	1642.0	1642.0	1639.0	1639.0	1625.0	1625.0	1625.0	1580.0	1580.0	1570.0	1570.0	1570.0	1570.0	1570.0	1641.0	1641.0	1641.0	1636.0	1636.0	1601.0	1601.0	1601.0	1560.0	1560.0	1628.0	1628.0	1628.0	1570.0	1570.0	1564.0	1564.0	1564.0	1613.0	1613.0	1606.0	1606.0	1606.0	1590.0	1590.0	1608.0	1608.0	1608.0	1607.0	1607.0	1604.0	1604.0	1604.0	1631.0	1631.0	1628.0	1628.0	1603.0	1603.0	1603.0	1568.0	1568.0	1568.0	1568.0	1568.0	1584.0	1584.0	1609.0	1609.0	1609.0	1582.0	1582.0	1580.0	1580.0	1580.0	1550.0	1550.0	1578.0	1578.0	1578.0	1619.0	1619.0	1580.0	1580.0	1580.0	1557.0	1557.0	1626.0	1626.0	1626.0	1608.0	1608.0	1555.0	1555.0	1555.0	1622.0	1622.0	1627.0	1627.0	1627.0	1639.0	1639.0	1600.0	1600.0	1600.0	1587.0	1587.0	1600.0	1600.0	1600.0	1613.0	1613.0	1636.0	1636.0	1636.0	1721.0	1721.0	1747.0	1747.0	1747.0	1695.0	1695.0	1791.0	1791.0	1791.0	1831.0	1831.0	1788.0	1788.0	1788.0	1835.0	1835.0	1863.0	1863.0	1863.0	1950.0	1950.0	1943.0	1943.0	1943.0	2004.0	2004.0	2056.0	2056.0	2056.0	2073.0	2073.0	2166.0	2166.0	2166.0	2213.0	2213.0	2268.0	2268.0	2268.0	2285.0	2285.0	2324.0	2324.0	2324.0	2316.0	2316.0	2396.0	2396.0	2396.0	2433.0	2433.0	2491.0	2491.0	2491.0	2507.0	2507.0	2565.0	2565.0	2565.0	2579.0	2579.0	2604.0	2604.0	2604.0	2587.0	2587.0	2612.0	2612.0	2612.0	2648.0	2648.0	2675.0	2675.0	2675.0	2715.0	2715.0	2745.0	2745.0	2745.0	2751.0	2751.0	2785.0	2785.0	2785.0	2842.0	2842.0	2861.0	2861.0	2861.0	2878.0	2878.0	2871.0	2871.0	2871.0	2856.0	2856.0	2887.0	2887.0	2887.0	2889.0	2889.0	2957.0	2957.0	2957.0	2934.0	2934.0	2925.0	2925.0	2925.0	2979.0	2979.0	2943.0	2943.0	2943.0	2945.0	2945.0	2975.0	2975.0	2975.0	2947.0	2947.0	2955.0	2955.0	2955.0	3016.0	3016.0	2960.0	2960.0	2960.0	2975.0	2975.0	3018.0	3018.0	3018.0	2976.0	2976.0	3014.0	3014.0	3014.0	2982.0	2982.0	2949.0	2949.0	2941.0	2941.0	2941.0	2942.0	2942.0	2963.0	2963.0	2963.0	2991.0	2991.0	2970.0	2970.0	2970.0	2971.0	2971.0	2970.0	2970.0	2970.0	2927.0	2927.0	2959.0	2959.0	2959.0	2892.0	2892.0	2949.0	2949.0	2949.0	2887.0	2887.0	2917.0	2917.0	2917.0	2899.0	2899.0	2918.0	2918.0	2918.0	2851.0	2851.0	2908.0	2908.0	2908.0	2901.0	2901.0	2874.0	2874.0	2874.0	2825.0	2825.0	2843.0	2843.0	2843.0	2836.0	2836.0	2840.0	2840.0	2840.0	2762.0	2762.0	2827.0	2827.0	2827.0	2779.0	2779.0	2772.0	2772.0	2772.0	2719.0	2719.0	2721.0	2721.0	2721.0	2756.0	2756.0	2746.0	2746.0	2746.0	2668.0	2668.0	2682.0	2682.0	2682.0	2646.0	2646.0	2693.0	2693.0	2693.0	2684.0	2684.0	2651.0	2651.0	2651.0	2613.0	2613.0	2572.0	2572.0	2572.0	2611.0	2611.0	2545.0	2545.0	2545.0	2520.0	2520.0	2509.0	2509.0	2509.0	2554.0	2554.0	2531.0	2531.0	2531.0	2457.0	2457.0	2508.0	2508.0	2508.0	2415.0	2415.0	2428.0	2428.0	2428.0	2437.0	2437.0	2428.0	2428.0	2428.0	2412.0	2412.0	2326.0	2326.0	2326.0	2308.0	2308.0	2309.0	2309.0	2309.0	2350.0	2350.0	2299.0	2299.0	2299.0	2235.0	2235.0	2219.0	2219.0	2219.0	2214.0	2214.0	2190.0	2190.0	2190.0	2236.0	2236.0	2189.0	2189.0	2189.0	2197.0	2197.0	2183.0	2183.0	2183.0	2144.0	2144.0	2138.0	2138.0	2138.0	2072.0	2072.0	2119.0	2119.0	2119.0	2115.0	2115.0	2062.0	2062.0	2062.0	2028.0	2028.0	2076.0	2076.0	2076.0	2073.0	2073.0	1999.0	1999.0	1999.0	2004.0	2004.0	2012.0	2012.0	2012.0	1976.0	1976.0	1983.0	1983.0	1983.0	1984.0	1984.0	1974.0	1974.0	1982.0	1982.0	1982.0	1935.0	1935.0	1968.0	1968.0	1968.0	1984.0	1984.0	1927.0	1927.0	1927.0	1926.0	1926.0	1915.0	1915.0	1915.0	1975.0	1975.0	1906.0	1906.0	1906.0	1949.0	1949.0	1927.0	1927.0	1927.0	1902.0	1902.0	1903.0	1903.0	1903.0	1943.0	1943.0	1891.0	1891.0	1891.0	1903.0	1903.0	1899.0	1899.0	1899.0	1870.0	1870.0	1870.0	1870.0	1870.0	1882.0	1882.0	1928.0	1928.0	1928.0	1899.0	1899.0	1876.0	1876.0	1876.0	1929.0	1929.0	1853.0	1853.0	1853.0	1852.0	1852.0	1852.0	1852.0	1852.0	1910.0	1910.0	1838.0	1838.0	1838.0	1859.0	1859.0	1907.0	1907.0	1907.0	1892.0	1892.0	1904.0	1904.0	1904.0	1824.0	1824.0	1851.0	1851.0	1851.0	1895.0	1895.0	1849.0	1849.0	1849.0	1897.0	1897.0	1882.0	1882.0	1882.0	1849.0	1849.0	1810.0	1810.0	1810.0	1854.0	1854.0	1866.0	1866.0	1866.0	1803.0	1803.0	1856.0	1856.0	1856.0	1846.0	1846.0	1864.0	1864.0	1864.0	1867.0	1867.0	1806.0	1806.0	1806.0	1822.0	1822.0	1811.0	1811.0	1811.0	1809.0	1809.0	1774.0	1774.0	1774.0	1776.0	1776.0	1807.0	1807.0	1807.0	1776.0	1776.0	1829.0	1829.0	1829.0	1825.0	1825.0	1829.0	1829.0	1829.0	1796.0	1796.0	1763.0	1763.0	1763.0	1745.0	1745.0	1776.0	1776.0	1776.0	1748.0	1748.0	1758.0	1758.0	1758.0	1782.0	1782.0	1773.0	1773.0	1773.0	1735.0	1735.0	1744.0	1744.0	1744.0	1732.0	1732.0	1726.0	1726.0	1726.0	1709.0	1709.0	1736.0	1736.0	1736.0	1714.0	1714.0	1735.0	1735.0	1735.0	1752.0	1752.0	1762.0	1762.0	1762.0	1713.0	1713.0	1714.0	1714.0	1714.0	1738.0	1738.0	1694.0	1694.0	1694.0	1673.0	1673.0	1737.0	1737.0	1694.0	1694.0	1694.0	1733.0	1733.0	1721.0	1721.0	1721.0	1711.0	1711.0	1718.0	1718.0	1718.0	1697.0	1697.0	1647.0	1647.0	1647.0	1639.0	1639.0	1682.0	1682.0	1682.0	1700.0	1700.0	1628.0	1628.0	1628.0	1692.0	1692.0	1693.0	1693.0	1693.0	1619.0	1619.0	1620.0	1620.0	1620.0	1626.0	1626.0	1652.0	1652.0	1652.0	1607.0	1607.0	1661.0	1661.0	1661.0	1598.0	1598.0	1594.0	1594.0	1594.0	1651.0	1651.0	1651.0	1651.0	1651.0	1617.0	1617.0	1660.0	1660.0	1660.0	1649.0	1649.0	1587.0	1587.0	1587.0	1630.0	1630.0	1620.0	1620.0	1620.0	1645.0	1645.0	1578.0	1578.0	1578.0	1643.0	1643.0	1636.0	1636.0	1636.0	1576.0	1576.0	1565.0	1565.0	1565.0	1558.0	1558.0	1604.0	1604.0	1604.0	1586.0	1586.0	1577.0	1577.0	1577.0	1555.0	1555.0	1556.0	1556.0	1556.0	1583.0	1583.0	1583.0	1583.0	1583.0	1617.0	1617.0	1593.0	1593.0	1593.0	1593.0	1593.0	1562.0	1562.0	1562.0	1537.0	1537.0	1546.0	1546.0	1546.0	1544.0	1544.0	1608.0	1608.0	1608.0	1603.0	1603.0	1537.0	1537.0	1537.0	1536.0	1536.0	1543.0	1543.0	1543.0	1603.0	1603.0	1551.0	1551.0	1551.0	1527.0	1527.0	1552.0	1552.0	1552.0	1588.0	1588.0	1565.0	1565.0	1565.0	1587.0	1587.0	1538.0	1538.0	1538.0	1571.0	1571.0	1570.0	1570.0	1570.0	1581.0	1581.0	1509.0	1509.0	1509.0	1588.0	1588.0	1560.0	1560.0	1560.0	1549.0	1549.0	1503.0	1503.0	1503.0	1577.0	1577.0	1565.0	1565.0	1565.0	1507.0	1507.0	1558.0	1558.0	1558.0	1511.0	1511.0	1511.0	1511.0	1511.0	1560.0	1560.0	1498.0	1498.0	1498.0	1531.0	1531.0	1511.0	1511.0	1493.0	1493.0	1493.0	1575.0	1575.0	1493.0	1493.0	1493.0	1497.0	1497.0	1546.0	1546.0	1546.0	1485.0	1485.0	1495.0	1495.0	1495.0	1537.0	1537.0	1557.0	1557.0	1557.0	1550.0	1550.0	1481.0	1481.0	1481.0	1554.0	1554.0	1496.0	1496.0	1496.0	1488.0	1488.0	1528.0	1528.0	1528.0	1472.0	1472.0	1491.0	1491.0	1491.0	1474.0	1474.0	1526.0	1526.0	1526.0	1482.0	1482.0	1531.0	1531.0	1531.0	1488.0	1488.0	1553.0	1553.0	1553.0	1498.0	1498.0	1521.0	1521.0	1521.0	1553.0	1553.0	1493.0	1493.0	1493.0	1509.0	1509.0	1521.0	1521.0	1521.0	1550.0	1550.0	1619.0	1619.0	1619.0	1556.0	1556.0	1661.0	1661.0	1661.0	1623.0	1623.0	1697.0	1697.0	1697.0	1695.0	1695.0	1751.0	1751.0	1751.0	1714.0	1714.0	1822.0	1822.0	1822.0	1782.0	1782.0	1865.0	1865.0	1865.0	1866.0	1866.0	1946.0	1946.0	1946.0	1961.0	1961.0	1991.0	1991.0	1991.0	2025.0	2025.0	2133.0	2133.0	2133.0	2130.0	2130.0	2163.0	2163.0	2163.0	2205.0	2205.0	2247.0	2247.0	2247.0	2334.0	2334.0	2364.0	2364.0	2364.0	2409.0	2409.0	2458.0	2458.0	2458.0	2476.0	2476.0	2516.0	2516.0	2516.0	2481.0	2481.0	2547.0	2547.0	2547.0	2612.0	2612.0	2576.0	2576.0	2576.0	2662.0	2662.0	2675.0	2675.0	2675.0	2641.0	2641.0	2682.0	2682.0	2682.0	2689.0	2689.0	2721.0	2721.0	2721.0	2723.0	2723.0	2785.0	2785.0	2785.0	2763.0	2763.0	2751.0	2751.0	2751.0	2788.0	2788.0	2811.0	2811.0	2811.0	2795.0	2795.0	2795.0	2795.0	2795.0	2857.0	2857.0	2869.0	2869.0	2869.0	2857.0	2857.0	2878.0	2878.0	2878.0	2874.0	2874.0	2902.0	2902.0	2902.0	2844.0	2844.0	2895.0	2895.0	2842.0	2842.0	2842.0	2877.0	2877.0	2879.0	2879.0	2879.0	2841.0	2841.0	2887.0	2887.0	2887.0	2844.0	2844.0	2881.0	2881.0	2881.0	2893.0	2893.0	2854.0	2854.0	2854.0	2815.0	2815.0	2876.0	2876.0	2876.0	2835.0	2835.0	2871.0	2871.0	2871.0	2853.0	2853.0	2851.0	2851.0	2851.0	2808.0	2808.0	2774.0	2774.0	2774.0	2794.0	2794.0	2772.0	2772.0	2772.0	2813.0	2813.0	2809.0	2809.0	2809.0	2799.0	2799.0	2745.0	2745.0	2745.0	2730.0	2730.0	2718.0	2718.0	2718.0	2699.0	2699.0	2685.0	2685.0	2685.0	2723.0	2723.0	2646.0	2646.0	2646.0	2690.0	2690.0	2634.0	2634.0	2634.0	2677.0	2677.0	2648.0	2648.0	2648.0	2608.0	2608.0	2662.0	2662.0	2662.0	2624.0	2624.0	2608.0	2608.0	2608.0	2609.0	2609.0	2583.0	2583.0	2583.0	2597.0	2597.0	2515.0	2515.0	2515.0	2502.0	2502.0	2532.0	2532.0	2532.0	2486.0	2486.0	2525.0	2525.0	2525.0	2432.0	2432.0	2430.0	2430.0	2430.0	2450.0	2450.0	2401.0	2401.0	2401.0	2377.0	2377.0	2382.0	2382.0	2382.0	2341.0	2341.0	2386.0	2386.0	2386.0	2332.0	2332.0	2279.0	2279.0	2279.0	2286.0	2286.0	2267.0	2267.0	2267.0	2304.0	2304.0	2241.0	2241.0	2241.0	2251.0	2251.0	2167.0	2167.0	2167.0	2231.0	2231.0	2210.0	2210.0	2210.0	2129.0	2129.0	2108.0	2108.0	2108.0	2095.0	2095.0	2075.0	2075.0	2075.0	2061.0	2061.0	2112.0	2112.0	2112.0	2076.0	2076.0	2022.0	2022.0	2022.0	2054.0	2054.0	2076.0	2076.0	2076.0	1995.0	1995.0	2040.0	2040.0	2040.0	1998.0	1998.0	1962.0	1962.0	1962.0	1968.0	1968.0	1945.0	1945.0	1945.0	1938.0	1938.0	1951.0	1951.0	1936.0	1936.0	1936.0	1910.0	1910.0	1934.0	1934.0	1934.0	1976.0	1976.0	1900.0	1900.0	1900.0	1955.0	1955.0	1947.0	1947.0	1947.0	1876.0	1876.0	1945.0	1945.0	1945.0	1913.0	1913.0	1938.0	1938.0	1938.0	1890.0	1890.0	1922.0	1922.0	1922.0	1930.0	1930.0	1904.0	1904.0	1904.0	1884.0	1884.0	1917.0	1917.0	1917.0	1862.0	1862.0	1856.0	1856.0	1856.0	1871.0	1871.0	1858.0	1858.0	1858.0	1912.0	1912.0	1828.0	1828.0	1828.0	