1834.0	1855.0	1855.0	1871.0	1871.0	1871.0	1880.0	1880.0	1826.0	1826.0	1826.0	1858.0	1858.0	1857.0	1857.0	1857.0	1865.0	1865.0	1819.0	1819.0	1819.0	1831.0	1831.0	1870.0	1870.0	1870.0	1858.0	1858.0	1846.0	1846.0	1846.0	1837.0	1837.0	1852.0	1852.0	1852.0	1862.0	1862.0	1820.0	1820.0	1820.0	1864.0	1864.0	1869.0	1869.0	1869.0	1862.0	1862.0	1862.0	1862.0	1862.0	1852.0	1852.0	1832.0	1832.0	1832.0	1834.0	1834.0	1838.0	1838.0	1838.0	1823.0	1823.0	1810.0	1810.0	1810.0	1852.0	1852.0	1817.0	1817.0	1817.0	1806.0	1806.0	1814.0	1814.0	1814.0	1835.0	1835.0	1816.0	1816.0	1816.0	1810.0	1810.0	1820.0	1820.0	1820.0	1842.0	1842.0	1810.0	1810.0	1810.0	1805.0	1805.0	1843.0	1843.0	1843.0	1811.0	1811.0	1834.0	1834.0	1834.0	1820.0	1820.0	1830.0	1830.0	1830.0	1817.0	1817.0	1831.0	1831.0	1831.0	1806.0	1806.0	1801.0	1801.0	1801.0	1836.0	1836.0	1821.0	1821.0	1821.0	1823.0	1823.0	1798.0	1798.0	1798.0	1830.0	1830.0	1805.0	1805.0	1805.0	1828.0	1828.0	1851.0	1851.0	1851.0	1834.0	1834.0	1810.0	1810.0	1810.0	1798.0	1798.0	1799.0	1799.0	1799.0	1786.0	1786.0	1802.0	1802.0	1802.0	1852.0	1852.0	1842.0	1842.0	1842.0	1846.0	1846.0	1835.0	1835.0	1835.0	1812.0	1812.0	1794.0	1794.0	1794.0	1849.0	1849.0	1801.0	1801.0	1801.0	1791.0	1791.0	1786.0	1786.0	1786.0	1832.0	1832.0	1832.0	1832.0	1832.0	1793.0	1793.0	1822.0	1822.0	1822.0	1807.0	1807.0	1815.0	1815.0	1815.0	1800.0	1800.0	1823.0	1823.0	1823.0	1802.0	1802.0	1816.0	1816.0	1816.0	1822.0	1822.0	1785.0	1785.0	1785.0	1796.0	1796.0	1832.0	1832.0	1777.0	1777.0	1777.0	1781.0	1781.0	1822.0	1822.0	1822.0	1806.0	1806.0	1799.0	1799.0	1799.0	1805.0	1805.0	1774.0	1774.0	1774.0	1827.0	1827.0	1823.0	1823.0	1823.0	1784.0	1784.0	1795.0	1795.0	1795.0	1807.0	1807.0	1819.0	1819.0	1819.0	1826.0	1826.0	1798.0	1798.0	1798.0	1832.0	1832.0	1820.0	1820.0	1820.0	1819.0	1819.0	1792.0	1792.0	1792.0	1829.0	1829.0	1843.0	1843.0	1843.0	1847.0	1847.0	1819.0	1819.0	1819.0	1844.0	1844.0	1839.0	1839.0	1839.0	1853.0	1853.0	1865.0	1865.0	1865.0	1914.0	1914.0	1918.0	1918.0	1918.0	1942.0	1942.0	1992.0	1992.0	1992.0	1963.0	1963.0	1990.0	1990.0	1990.0	1996.0	1996.0	2022.0	2022.0	2022.0	2055.0	2055.0	2070.0	2070.0	2070.0	2089.0	2089.0	2128.0	2128.0	2128.0	2171.0	2171.0	2153.0	2153.0	2153.0	2174.0	2174.0	2227.0	2227.0	2227.0	2203.0	2203.0	2245.0	2245.0	2245.0	2255.0	2255.0	2267.0	2267.0	2267.0	2298.0	2298.0	2306.0	2306.0	2306.0	2341.0	2341.0	2366.0	2366.0	2366.0	2339.0	2339.0	2387.0	2387.0	2387.0	2388.0	2388.0	2374.0	2374.0	2374.0	2388.0	2388.0	2420.0	2420.0	2420.0	2435.0	2435.0	2446.0	2446.0	2446.0	2406.0	2406.0	2460.0	2460.0	2460.0	2445.0	2445.0	2469.0	2469.0	2469.0	2454.0	2454.0	2457.0	2457.0	2457.0	2462.0	2462.0	2480.0	2480.0	2480.0	2494.0	2494.0	2506.0	2506.0	2506.0	2474.0	2474.0	2498.0	2498.0	2498.0	2484.0	2484.0	2510.0	2510.0	2510.0	2478.0	2478.0	2499.0	2499.0	2499.0	2500.0	2500.0	2506.0	2506.0	2506.0	2486.0	2486.0	2488.0	2488.0	2488.0	2501.0	2501.0	2491.0	2491.0	2474.0	2474.0	2474.0	2482.0	2482.0	2471.0	2471.0	2471.0	2470.0	2470.0	2483.0	2483.0	2483.0	2486.0	2486.0	2453.0	2453.0	2453.0	2451.0	2451.0	2474.0	2474.0	2474.0	2477.0	2477.0	2462.0	2462.0	2462.0	2445.0	2445.0	2429.0	2429.0	2429.0	2457.0	2457.0	2458.0	2458.0	2458.0	2443.0	2443.0	2413.0	2413.0	2413.0	2406.0	2406.0	2412.0	2412.0	2412.0	2437.0	2437.0	2397.0	2397.0	2397.0	2414.0	2414.0	2417.0	2417.0	2417.0	2375.0	2375.0	2375.0	2375.0	2375.0	2391.0	2391.0	2390.0	2390.0	2390.0	2386.0	2386.0	2339.0	2339.0	2339.0	2347.0	2347.0	2374.0	2374.0	2374.0	2327.0	2327.0	2315.0	2315.0	2315.0	2298.0	2298.0	2288.0	2288.0	2288.0	2299.0	2299.0	2317.0	2317.0	2317.0	2304.0	2304.0	2276.0	2276.0	2276.0	2253.0	2253.0	2265.0	2265.0	2265.0	2251.0	2251.0	2236.0	2236.0	2236.0	2255.0	2255.0	2249.0	2249.0	2249.0	2200.0	2200.0	2199.0	2199.0	2199.0	2175.0	2175.0	2171.0	2171.0	2171.0	2155.0	2155.0	2162.0	2162.0	2162.0	2141.0	2141.0	2162.0	2162.0	2162.0	2129.0	2129.0	2141.0	2141.0	2141.0	2142.0	2142.0	2127.0	2127.0	2127.0	2106.0	2106.0	2092.0	2092.0	2092.0	2084.0	2084.0	2066.0	2066.0	2066.0	2066.0	2066.0	2059.0	2059.0	2059.0	2082.0	2082.0	2038.0	2038.0	2038.0	2064.0	2064.0	2021.0	2021.0	2021.0	2046.0	2046.0	2042.0	2042.0	2042.0	2020.0	2020.0	2024.0	2024.0	2024.0	2004.0	2004.0	1996.0	1996.0	1996.0	2009.0	2009.0	2021.0	2021.0	2021.0	2028.0	2028.0	2006.0	2006.0	2006.0	2018.0	2018.0	2007.0	2007.0	2007.0	1977.0	1977.0	2013.0	2013.0	1991.0	1991.0	1991.0	1968.0	1968.0	1974.0	1974.0	1974.0	1985.0	1985.0	1961.0	1961.0	1961.0	2002.0	2002.0	1964.0	1964.0	1964.0	1981.0	1981.0	1978.0	1978.0	1978.0	1987.0	1987.0	1988.0	1988.0	1988.0	1962.0	1962.0	1989.0	1989.0	1989.0	1970.0	1970.0	1974.0	1974.0	1974.0	1951.0	1951.0	1938.0	1938.0	1938.0	1971.0	1971.0	1971.0	1971.0	1971.0	1945.0	1945.0	1943.0	1943.0	1943.0	1951.0	1951.0	1944.0	1944.0	1944.0	1976.0	1976.0	1972.0	1972.0	1972.0	1986.0	1986.0	1963.0	1963.0	1963.0	1979.0	1979.0	1959.0	1959.0	1959.0	1972.0	1972.0	1934.0	1934.0	1934.0	1968.0	1968.0	1970.0	1970.0	1970.0	1940.0	1940.0	1954.0	1954.0	1954.0	1978.0	1978.0	1922.0	1922.0	1922.0	1924.0	1924.0	1968.0	1968.0	1968.0	1932.0	1932.0	1952.0	1952.0	1952.0	1952.0	1952.0	1960.0	1960.0	1960.0	1941.0	1941.0	1941.0	1941.0	1941.0	1935.0	1935.0	1936.0	1936.0	1936.0	1935.0	1935.0	1910.0	1910.0	1910.0	1905.0	1905.0	1918.0	1918.0	1918.0	1896.0	1896.0	1895.0	1895.0	1895.0	1923.0	1923.0	1921.0	1921.0	1921.0	1922.0	1922.0	1903.0	1903.0	1903.0	1893.0	1893.0	1894.0	1894.0	1894.0	1903.0	1903.0	1913.0	1913.0	1913.0	1914.0	1914.0	1880.0	1880.0	1880.0	1926.0	1926.0	1885.0	1885.0	1885.0	1906.0	1906.0	1889.0	1889.0	1889.0	1909.0	1909.0	1930.0	1930.0	1930.0	1872.0	1872.0	1906.0	1906.0	1906.0	1908.0	1908.0	1912.0	1912.0	1912.0	1911.0	1911.0	1866.0	1866.0	1866.0	1897.0	1897.0	1899.0	1899.0	1899.0	1847.0	1847.0	1858.0	1858.0	1858.0	1846.0	1846.0	1863.0	1863.0	1863.0	1854.0	1854.0	1843.0	1843.0	1893.0	1893.0	1893.0	1877.0	1877.0	1864.0	1864.0	1864.0	1830.0	1830.0	1881.0	1881.0	1881.0	1840.0	1840.0	1869.0	1869.0	1869.0	1840.0	1840.0	1880.0	1880.0	1880.0	1886.0	1886.0	1840.0	1840.0	1840.0	1836.0	1836.0	1857.0	1857.0	1857.0	1837.0	1837.0	1814.0	1814.0	1814.0	1842.0	1842.0	1816.0	1816.0	1816.0	1823.0	1823.0	1859.0	1859.0	1859.0	1823.0	1823.0	1815.0	1815.0	1815.0	1844.0	1844.0	1839.0	1839.0	1839.0	1828.0	1828.0	1837.0	1837.0	1837.0	1822.0	1822.0	1847.0	1847.0	1847.0	1839.0	1839.0	1805.0	1805.0	1805.0	1817.0	1817.0	1834.0	1834.0	1834.0	1780.0	1780.0	1810.0	1810.0	1810.0	1842.0	1842.0	1842.0	1842.0	1842.0	1848.0	1848.0	1843.0	1843.0	1843.0	1847.0	1847.0	1834.0	1834.0	1834.0	1801.0	1801.0	1788.0	1788.0	1788.0	1826.0	1826.0	1814.0	1814.0	1814.0	1798.0	1798.0	1792.0	1792.0	1792.0	1837.0	1837.0	1784.0	1784.0	1784.0	1783.0	1783.0	1787.0	1787.0	1787.0	1793.0	1793.0	1825.0	1825.0	1825.0	1800.0	1800.0	1780.0	1780.0	1780.0	1829.0	1829.0	1815.0	1815.0	1815.0	1830.0	1830.0	1817.0	1817.0	1817.0	1826.0	1826.0	1796.0	1796.0	1796.0	1801.0	1801.0	1797.0	1797.0	1797.0	1776.0	1776.0	1816.0	1816.0	1816.0	1797.0	1797.0	1779.0	1779.0	1779.0	1817.0	1817.0	1795.0	1795.0	1795.0	1792.0	1792.0	1826.0	1826.0	1826.0	1776.0	1776.0	1795.0	1795.0	1795.0	1815.0	1815.0	1824.0	1824.0	1824.0	1798.0	1798.0	1779.0	1779.0	1779.0	1794.0	1794.0	1779.0	1779.0	1779.0	1778.0	1778.0	1798.0	1798.0	1798.0	1768.0	1768.0	1791.0	1791.0	1774.0	1774.0	1774.0	1768.0	1768.0	1763.0	1763.0	1763.0	1808.0	1808.0	1762.0	1762.0	1762.0	1783.0	1783.0	1766.0	1766.0	1766.0	1814.0	1814.0	1798.0	1798.0	1798.0	1780.0	1780.0	1811.0	1811.0	1811.0	1809.0	1809.0	1789.0	1789.0	1789.0	1772.0	1772.0	1799.0	1799.0	1799.0	1793.0	1793.0	1742.0	1742.0	1742.0	1766.0	1766.0	1810.0	1810.0	1810.0	1791.0	1791.0	1816.0	1816.0	1816.0	1806.0	1806.0	1765.0	1765.0	1765.0	1773.0	1773.0	1821.0	1821.0	1821.0	1806.0	1806.0	1803.0	1803.0	1803.0	1798.0	1798.0	1848.0	1848.0	1848.0	1805.0	1805.0	1815.0	1815.0	1815.0	1843.0	1843.0	1856.0	1856.0	1856.0	1860.0	1860.0	1898.0	1898.0	1898.0	1912.0	1912.0	1919.0	1919.0	1919.0	1948.0	1948.0	2010.0	2010.0	2010.0	1976.0	1976.0	2037.0	2037.0	2037.0	2016.0	2016.0	2034.0	2034.0	2034.0	2103.0	2103.0	2091.0	2091.0	2091.0	2135.0	2135.0	2139.0	2139.0	2139.0	2194.0	2194.0	2219.0	2219.0	2219.0	2221.0	2221.0	2231.0	2231.0	2231.0	2244.0	2244.0	2267.0	2267.0	2267.0	2306.0	2306.0	2303.0	2303.0	2303.0	2324.0	2324.0	2338.0	2338.0	2338.0	2368.0	2368.0	2390.0	2390.0	2390.0	2384.0	2384.0	2395.0	2395.0	2395.0	2421.0	2421.0	2402.0	2402.0	2402.0	2407.0	2407.0	2456.0	2456.0	2456.0	2439.0	2439.0	2470.0	2470.0	2470.0	2452.0	2452.0	2480.0	2480.0	2480.0	2467.0	2467.0	2508.0	2508.0	2508.0	2502.0	2502.0	2522.0	2522.0	2522.0	2523.0	2523.0	2525.0	2525.0	2525.0	2508.0	2508.0	2516.0	2516.0	2516.0	2534.0	2534.0	2520.0	2520.0	2520.0	2510.0	2510.0	2553.0	2553.0	2553.0	2525.0	2525.0	2549.0	2549.0	2547.0	2547.0	2547.0	2557.0	2557.0	2533.0	2533.0	2533.0	2539.0	2539.0	2528.0	2528.0	2528.0	2505.0	2505.0	2508.0	2508.0	2508.0	2513.0	2513.0	2507.0	2507.0	2507.0	2510.0	2510.0	2526.0	2526.0	2526.0	2520.0	2520.0	2521.0	2521.0	2521.0	2470.0	2470.0	2489.0	2489.0	2489.0	2513.0	2513.0	2486.0	2486.0	2486.0	2466.0	2466.0	2492.0	2492.0	2492.0	2438.0	2438.0	2451.0	2451.0	2451.0	2470.0	2470.0	2439.0	2439.0	2439.0	2450.0	2450.0	2421.0	2421.0	2421.0	2416.0	2416.0	2428.0	2428.0	2428.0	2426.0	2426.0	2419.0	2419.0	2419.0	2420.0	2420.0	2399.0	2399.0	2399.0	2405.0	2405.0	2383.0	2383.0	2383.0	2413.0	2413.0	2365.0	2365.0	2365.0	2371.0	2371.0	2355.0	2355.0	2355.0	2354.0	2354.0	2374.0	2374.0	2374.0	2340.0	2340.0	2334.0	2334.0	2334.0	2334.0	2334.0	2310.0	2310.0	2310.0	2308.0	2308.0	2287.0	2287.0	2287.0	2282.0	2282.0	2299.0	2299.0	2299.0	2256.0	2256.0	2301.0	2301.0	2301.0	2273.0	2273.0	2260.0	2260.0	2260.0	2230.0	2230.0	2231.0	2231.0	2231.0	2215.0	2215.0	2214.0	2214.0	2214.0	2210.0	2210.0	2202.0	2202.0	2202.0	2193.0	2193.0	2167.0	2167.0	2167.0	2149.0	2149.0	2163.0	2163.0	2163.0	2144.0	2144.0	2148.0	2148.0	2148.0	2130.0	2130.0	2119.0	2119.0	2119.0	2104.0	2104.0	2115.0	2115.0	2115.0	2112.0	2112.0	2097.0	2097.0	2097.0	2124.0	2124.0	2062.0	2062.0	2062.0	2095.0	2095.0	2087.0	2087.0	2087.0	2070.0	2070.0	2039.0	2039.0	2039.0	2031.0	2031.0	2018.0	2018.0	2018.0	2014.0	2014.0	2035.0	2035.0	2035.0	1999.0	1999.0	2035.0	2035.0	1999.0	1999.0	1999.0	2027.0	2027.0	1994.0	1994.0	1994.0	2031.0	2031.0	2008.0	2008.0	2008.0	2013.0	2013.0	1992.0	1992.0	1992.0	1971.0	1971.0	1972.0	1972.0	1972.0	2005.0	2005.0	1993.0	1993.0	1993.0	1953.0	1953.0	1985.0	1985.0	1985.0	1958.0	1958.0	1990.0	1990.0	1990.0	1999.0	1999.0	1988.0	1988.0	1988.0	1955.0	1955.0	1994.0	1994.0	1994.0	1962.0	1962.0	1980.0	1980.0	1980.0	1992.0	1992.0	1936.0	1936.0	1936.0	1960.0	1960.0	1982.0	1982.0	1982.0	1938.0	1938.0	1971.0	1971.0	1971.0	1967.0	1967.0	1949.0	1949.0	1949.0	1975.0	1975.0	1969.0	1969.0	1969.0	1956.0	1956.0	1934.0	1934.0	1934.0	1963.0	1963.0	1935.0	1935.0	1935.0	1924.0	1924.0	1946.0	1946.0	1946.0	1964.0	1964.0	1960.0	1960.0	1960.0	1927.0	1927.0	1915.0	1915.0	1915.0	1941.0	1941.0	1927.0	1927.0	1927.0	1934.0	1934.0	1913.0	1913.0	1913.0	1919.0	1919.0	1902.0	1902.0	1902.0	1954.0	1954.0	1895.0	1895.0	1895.0	1944.0	1944.0	1909.0	1909.0	1909.0	1916.0	1916.0	1911.0	1911.0	1911.0	1947.0	1947.0	1903.0	1903.0	1903.0	1926.0	1926.0	1932.0	1932.0	1932.0	1893.0	1893.0	1916.0	1916.0	1916.0	1917.0	1917.0	1894.0	1894.0	1894.0	1890.0	1890.0	1912.0	1912.0	1912.0	1884.0	1884.0	1911.0	1911.0	1911.0	1875.0	1875.0	1913.0	1913.0	1913.0	1904.0	1904.0	1875.0	1875.0	1875.0	1905.0	1905.0	1895.0	1895.0	1895.0	1876.0	1876.0	1914.0	1914.0	1914.0	1916.0	1916.0	1889.0	1889.0	1889.0	1895.0	1895.0	1900.0	1900.0	1900.0	1913.0	1913.0	1893.0	1893.0	1893.0	1860.0	1860.0	1883.0	1883.0	1894.0	1894.0	1894.0	1893.0	1893.0	1842.0	1842.0	1842.0	1855.0	1855.0	1882.0	1882.0	1882.0	1844.0	1844.0	1880.0	1880.0	1880.0	1843.0	1843.0	1882.0	1882.0	1882.0	1871.0	1871.0	1838.0	1838.0	1838.0	1881.0	1881.0	1865.0	1865.0	1865.0	1824.0	1824.0	1822.0	1822.0	1822.0	1846.0	1846.0	1857.0	1857.0	1857.0	1825.0	1825.0	1825.0	1825.0	1825.0	1842.0	1842.0	1825.0	1825.0	1825.0	1838.0	1838.0	1815.0	1815.0	1815.0	1823.0	1823.0	1825.0	1825.0	1825.0	1816.0	1816.0	1842.0	1842.0	1842.0	1823.0	1823.0	1858.0	1858.0	1858.0	1855.0	1855.0	1809.0	1809.0	1809.0	1822.0	1822.0	1798.0	1798.0	1798.0	1818.0	1818.0	1793.0	1793.0	1793.0	1798.0	1798.0	1819.0	1819.0	1819.0	1831.0	1831.0	1796.0	1796.0	1796.0	1829.0	1829.0	1816.0	1816.0	1816.0	1825.0	1825.0	1826.0	1826.0	1826.0	1800.0	1800.0	1787.0	1787.0	1787.0	1796.0	1796.0	1806.0	1806.0	1806.0	1821.0	1821.0	1797.0	1797.0	1797.0	1833.0	1833.0	1819.0	1819.0	1819.0	1796.0	1796.0	1815.0	1815.0	1815.0	1798.0	1798.0	1814.0	1814.0	1814.0	1827.0	1827.0	1783.0	1783.0	1783.0	1801.0	1801.0	1797.0	1797.0	1797.0	1827.0	1827.0	1774.0	1774.0	1774.0	1819.0	1819.0	1811.0	1811.0	1811.0	1777.0	1777.0	1777.0	1777.0	1777.0	1790.0	1790.0	1774.0	1774.0	1774.0	1804.0	1804.0	1776.0	1776.0	1776.0	1791.0	1791.0	1793.0	1793.0	1793.0	1797.0	1797.0	1804.0	1804.0	1804.0	1778.0	1778.0	1782.0	1782.0	1782.0	1778.0	1778.0	1784.0	1784.0	1784.0	1801.0	1801.0	1768.0	1768.0	1768.0	1780.0	1780.0	1764.0	1764.0	1764.0	1808.0	1808.0	1798.0	1798.0	1770.0	1770.0	1770.0	1772.0	1772.0	1816.0	1816.0	1816.0	1755.0	1755.0	1764.0	1764.0	1764.0	1805.0	1805.0	1805.0	1805.0	1805.0	1765.0	1765.0	1803.0	1803.0	1803.0	1767.0	1767.0	1778.0	1778.0	1778.0	1793.0	1793.0	1769.0	1769.0	1769.0	1760.0	1760.0	1804.0	1804.0	1804.0	1753.0	1753.0	1802.0	1802.0	1802.0	1789.0	1789.0	1788.0	1788.0	1788.0	1759.0	1759.0	1803.0	1803.0	1803.0	1800.0	1800.0	1788.0	1788.0	1788.0	1781.0	1781.0	1792.0	1792.0	1792.0	1810.0	1810.0	1805.0	1805.0	1805.0	1769.0	1769.0	1774.0	1774.0	1774.0	1755.0	1755.0	1771.0	1771.0	1771.0	1786.0	1786.0	1805.0	1805.0	1805.0	1770.0	1770.0	1813.0	1813.0	1813.0	1800.0	1800.0	1784.0	1784.0	1784.0	1805.0	1805.0	1822.0	1822.0	1822.0	1830.0	1830.0	1828.0	1828.0	1828.0	1840.0	1840.0	1889.0	1889.0	1889.0	1893.0	1893.0	1922.0	1922.0	1922.0	1913.0	1913.0	1939.0	1939.0	1939.0	1939.0	1939.0	1967.0	1967.0	1967.0	1978.0	1978.0	2003.0	2003.0	2003.0	2032.0	2032.0	2068.0	2068.0	2068.0	2119.0	2119.0	2115.0	2115.0	2115.0	2113.0	2113.0	2163.0	2163.0	2163.0	2197.0	2197.0	2221.0	2221.0	2221.0	2205.0	2205.0	2238.0	2238.0	2238.0	2272.0	2272.0	2282.0	2282.0	2282.0	2279.0	2279.0	2300.0	2300.0	2300.0	2313.0	2313.0	2340.0	2340.0	2340.0	2364.0	2364.0	2391.0	2391.0	2391.0	2380.0	2380.0	2407.0	2407.0	2407.0	2433.0	2433.0	2406.0	2406.0	2406.0	2455.0	2455.0	2454.0	2454.0	2454.0	2457.0	2457.0	2476.0	2476.0	2476.0	2464.0	2464.0	2493.0	2493.0	2493.0	2495.0	2495.0	2484.0	2484.0	2494.0	2494.0	2494.0	2510.0	2510.0	2483.0	2483.0	2483.0	2499.0	2499.0	2527.0	2527.0	2527.0	2499.0	2499.0	2531.0	2531.0	2531.0	2515.0	2515.0	2503.0	2503.0	2503.0	2530.0	2530.0	2505.0	2505.0	2505.0	2506.0	2506.0	2510.0	2510.0	2510.0	2519.0	2519.0	2548.0	2548.0	2548.0	2508.0	2508.0	2504.0	2504.0	2504.0	2506.0	2506.0	2530.0	2530.0	2530.0	2491.0	2491.0	2483.0	2483.0	2483.0	2487.0	2487.0	2528.0	2528.0	