1540.0	1540.0	1540.0	1613.0	1613.0	1601.0	1601.0	1601.0	1626.0	1626.0	1558.0	1558.0	1558.0	1569.0	1569.0	1599.0	1599.0	1599.0	1552.0	1552.0	1563.0	1563.0	1563.0	1568.0	1568.0	1612.0	1612.0	1612.0	1533.0	1533.0	1528.0	1528.0	1528.0	1575.0	1575.0	1537.0	1537.0	1537.0	1599.0	1599.0	1624.0	1624.0	1624.0	1614.0	1614.0	1562.0	1562.0	1562.0	1609.0	1609.0	1551.0	1551.0	1551.0	1567.0	1567.0	1660.0	1660.0	1660.0	1572.0	1572.0	1639.0	1639.0	1639.0	1634.0	1634.0	1647.0	1647.0	1647.0	1711.0	1711.0	1735.0	1735.0	1735.0	1759.0	1759.0	1701.0	1701.0	1701.0	1734.0	1734.0	1777.0	1777.0	1777.0	1841.0	1841.0	1899.0	1899.0	1899.0	1937.0	1937.0	1893.0	1893.0	1893.0	1987.0	1987.0	1951.0	1951.0	1951.0	1983.0	1983.0	2090.0	2090.0	2090.0	2041.0	2041.0	2069.0	2069.0	2069.0	2146.0	2146.0	2213.0	2213.0	2213.0	2146.0	2146.0	2174.0	2174.0	2174.0	2203.0	2203.0	2227.0	2227.0	2227.0	2338.0	2338.0	2333.0	2333.0	2333.0	2369.0	2369.0	2324.0	2324.0	2324.0	2369.0	2369.0	2425.0	2425.0	2425.0	2365.0	2365.0	2412.0	2412.0	2412.0	2488.0	2488.0	2431.0	2431.0	2431.0	2467.0	2467.0	2481.0	2481.0	2481.0	2437.0	2437.0	2462.0	2462.0	2462.0	2488.0	2488.0	2480.0	2480.0	2480.0	2579.0	2579.0	2580.0	2580.0	2580.0	2511.0	2511.0	2529.0	2529.0	2529.0	2531.0	2531.0	2555.0	2555.0	2555.0	2583.0	2583.0	2612.0	2612.0	2612.0	2613.0	2613.0	2586.0	2586.0	2567.0	2567.0	2567.0	2548.0	2548.0	2541.0	2541.0	2541.0	2540.0	2540.0	2523.0	2523.0	2523.0	2590.0	2590.0	2526.0	2526.0	2526.0	2546.0	2546.0	2531.0	2531.0	2531.0	2525.0	2525.0	2613.0	2613.0	2613.0	2585.0	2585.0	2608.0	2608.0	2608.0	2586.0	2586.0	2577.0	2577.0	2577.0	2498.0	2498.0	2523.0	2523.0	2523.0	2489.0	2489.0	2489.0	2489.0	2489.0	2540.0	2540.0	2534.0	2534.0	2534.0	2532.0	2532.0	2521.0	2521.0	2521.0	2551.0	2551.0	2516.0	2516.0	2516.0	2446.0	2446.0	2461.0	2461.0	2461.0	2440.0	2440.0	2444.0	2444.0	2444.0	2454.0	2454.0	2471.0	2471.0	2471.0	2482.0	2482.0	2399.0	2399.0	2399.0	2380.0	2380.0	2446.0	2446.0	2446.0	2340.0	2340.0	2378.0	2378.0	2378.0	2354.0	2354.0	2398.0	2398.0	2398.0	2350.0	2350.0	2383.0	2383.0	2383.0	2355.0	2355.0	2315.0	2315.0	2315.0	2244.0	2244.0	2223.0	2223.0	2223.0	2212.0	2212.0	2289.0	2289.0	2289.0	2272.0	2272.0	2209.0	2209.0	2209.0	2168.0	2168.0	2220.0	2220.0	2220.0	2140.0	2140.0	2112.0	2112.0	2112.0	2084.0	2084.0	2157.0	2157.0	2157.0	2063.0	2063.0	2116.0	2116.0	2116.0	2111.0	2111.0	2092.0	2092.0	2092.0	2019.0	2019.0	2087.0	2087.0	2087.0	2089.0	2089.0	1991.0	1991.0	1991.0	1991.0	1991.0	1970.0	1970.0	1970.0	1972.0	1972.0	2030.0	2030.0	2030.0	2036.0	2036.0	1978.0	1978.0	1978.0	1997.0	1997.0	2017.0	2017.0	2017.0	1969.0	1969.0	1996.0	1996.0	1996.0	1988.0	1988.0	1994.0	1994.0	1994.0	1903.0	1903.0	1911.0	1911.0	1911.0	1888.0	1888.0	1912.0	1912.0	1912.0	1968.0	1968.0	1972.0	1972.0	1972.0	1883.0	1883.0	1867.0	1867.0	1903.0	1903.0	1903.0	1887.0	1887.0	1874.0	1874.0	1874.0	1866.0	1866.0	1858.0	1858.0	1858.0	1919.0	1919.0	1941.0	1941.0	1941.0	1942.0	1942.0	1932.0	1932.0	1932.0	1850.0	1850.0	1910.0	1910.0	1910.0	1901.0	1901.0	1934.0	1934.0	1934.0	1828.0	1828.0	1839.0	1839.0	1839.0	1919.0	1919.0	1834.0	1834.0	1834.0	1911.0	1911.0	1889.0	1889.0	1889.0	1820.0	1820.0	1908.0	1908.0	1908.0	1820.0	1820.0	1839.0	1839.0	1839.0	1833.0	1833.0	1805.0	1805.0	1805.0	1801.0	1801.0	1815.0	1815.0	1815.0	1845.0	1845.0	1792.0	1792.0	1792.0	1885.0	1885.0	1862.0	1862.0	1862.0	1795.0	1795.0	1836.0	1836.0	1836.0	1788.0	1788.0	1869.0	1869.0	1869.0	1776.0	1776.0	1862.0	1862.0	1862.0	1777.0	1777.0	1788.0	1788.0	1788.0	1851.0	1851.0	1760.0	1760.0	1760.0	1822.0	1822.0	1746.0	1746.0	1746.0	1758.0	1758.0	1744.0	1744.0	1744.0	1813.0	1813.0	1782.0	1782.0	1782.0	1821.0	1821.0	1782.0	1782.0	1782.0	1729.0	1729.0	1767.0	1767.0	1767.0	1748.0	1748.0	1766.0	1766.0	1766.0	1780.0	1780.0	1751.0	1751.0	1751.0	1753.0	1753.0	1708.0	1708.0	1708.0	1721.0	1721.0	1786.0	1786.0	1786.0	1751.0	1751.0	1759.0	1759.0	1759.0	1728.0	1728.0	1768.0	1768.0	1768.0	1679.0	1679.0	1754.0	1754.0	1754.0	1668.0	1668.0	1675.0	1675.0	1675.0	1689.0	1689.0	1710.0	1710.0	1710.0	1746.0	1746.0	1660.0	1660.0	1660.0	1691.0	1691.0	1673.0	1673.0	1673.0	1657.0	1657.0	1671.0	1671.0	1671.0	1643.0	1643.0	1655.0	1655.0	1655.0	1631.0	1631.0	1641.0	1641.0	1641.0	1670.0	1670.0	1629.0	1629.0	1666.0	1666.0	1666.0	1632.0	1632.0	1682.0	1682.0	1682.0	1623.0	1623.0	1702.0	1702.0	1702.0	1678.0	1678.0	1692.0	1692.0	1692.0	1607.0	1607.0	1609.0	1609.0	1609.0	1668.0	1668.0	1682.0	1682.0	1682.0	1651.0	1651.0	1602.0	1602.0	1602.0	1675.0	1675.0	1609.0	1609.0	1609.0	1625.0	1625.0	1583.0	1583.0	1583.0	1633.0	1633.0	1589.0	1589.0	1589.0	1589.0	1589.0	1579.0	1579.0	1579.0	1637.0	1637.0	1642.0	1642.0	1642.0	1585.0	1585.0	1662.0	1662.0	1662.0	1607.0	1607.0	1622.0	1622.0	1622.0	1600.0	1600.0	1609.0	1609.0	1609.0	1569.0	1569.0	1632.0	1632.0	1632.0	1591.0	1591.0	1646.0	1646.0	1646.0	1575.0	1575.0	1601.0	1601.0	1601.0	1632.0	1632.0	1547.0	1547.0	1547.0	1586.0	1586.0	1552.0	1552.0	1552.0	1621.0	1621.0	1546.0	1546.0	1546.0	1559.0	1559.0	1542.0	1542.0	1542.0	1541.0	1541.0	1587.0	1587.0	1587.0	1625.0	1625.0	1571.0	1571.0	1571.0	1564.0	1564.0	1580.0	1580.0	1580.0	1556.0	1556.0	1540.0	1540.0	1540.0	1532.0	1532.0	1575.0	1575.0	1575.0	1531.0	1531.0	1538.0	1538.0	1538.0	1578.0	1578.0	1529.0	1529.0	1529.0	1617.0	1617.0	1524.0	1524.0	1524.0	1557.0	1557.0	1526.0	1526.0	1526.0	1528.0	1528.0	1554.0	1554.0	1554.0	1552.0	1552.0	1607.0	1607.0	1607.0	1530.0	1530.0	1546.0	1546.0	1546.0	1579.0	1579.0	1602.0	1602.0	1602.0	1600.0	1600.0	1592.0	1592.0	1592.0	1588.0	1588.0	1543.0	1543.0	1543.0	1528.0	1528.0	1564.0	1564.0	1564.0	1576.0	1576.0	1551.0	1551.0	1551.0	1577.0	1577.0	1532.0	1532.0	1532.0	1535.0	1535.0	1559.0	1559.0	1559.0	1543.0	1543.0	1604.0	1604.0	1613.0	1613.0	1613.0	1584.0	1584.0	1648.0	1648.0	1648.0	1647.0	1647.0	1639.0	1639.0	1639.0	1607.0	1607.0	1627.0	1627.0	1627.0	1646.0	1646.0	1675.0	1675.0	1675.0	1719.0	1719.0	1722.0	1722.0	1722.0	1827.0	1827.0	1777.0	1777.0	1777.0	1791.0	1791.0	1890.0	1890.0	1890.0	1876.0	1876.0	1964.0	1964.0	1964.0	1905.0	1905.0	1963.0	1963.0	1963.0	1961.0	1961.0	2057.0	2057.0	2057.0	2023.0	2023.0	2126.0	2126.0	2126.0	2144.0	2144.0	2090.0	2090.0	2090.0	2195.0	2195.0	2237.0	2237.0	2237.0	2249.0	2249.0	2260.0	2260.0	2260.0	2240.0	2240.0	2278.0	2278.0	2278.0	2257.0	2257.0	2343.0	2343.0	2343.0	2329.0	2329.0	2397.0	2397.0	2397.0	2329.0	2329.0	2406.0	2406.0	2406.0	2435.0	2435.0	2373.0	2373.0	2373.0	2469.0	2469.0	2460.0	2460.0	2460.0	2401.0	2401.0	2450.0	2450.0	2450.0	2503.0	2503.0	2495.0	2495.0	2495.0	2421.0	2421.0	2422.0	2422.0	2422.0	2448.0	2448.0	2443.0	2443.0	2443.0	2433.0	2433.0	2529.0	2529.0	2529.0	2535.0	2535.0	2456.0	2456.0	2456.0	2495.0	2495.0	2446.0	2446.0	2446.0	2479.0	2479.0	2474.0	2474.0	2474.0	2439.0	2439.0	2522.0	2522.0	2522.0	2432.0	2432.0	2522.0	2522.0	2522.0	2527.0	2527.0	2491.0	2491.0	2491.0	2439.0	2439.0	2491.0	2491.0	2491.0	2478.0	2478.0	2419.0	2419.0	2419.0	2494.0	2494.0	2399.0	2399.0	2399.0	2430.0	2430.0	2418.0	2418.0	2418.0	2380.0	2380.0	2396.0	2396.0	2396.0	2412.0	2412.0	2382.0	2382.0	2382.0	2438.0	2438.0	2408.0	2408.0	2408.0	2401.0	2401.0	2332.0	2332.0	2332.0	2346.0	2346.0	2323.0	2323.0	2353.0	2353.0	2353.0	2294.0	2294.0	2361.0	2361.0	2361.0	2333.0	2333.0	2280.0	2280.0	2280.0	2345.0	2345.0	2329.0	2329.0	2329.0	2330.0	2330.0	2239.0	2239.0	2239.0	2259.0	2259.0	2193.0	2193.0	2193.0	2224.0	2224.0	2211.0	2211.0	2211.0	2179.0	2179.0	2203.0	2203.0	2203.0	2218.0	2218.0	2158.0	2158.0	2158.0	2136.0	2136.0	2090.0	2090.0	2090.0	2094.0	2094.0	2048.0	2048.0	2048.0	2113.0	2113.0	2074.0	2074.0	2074.0	2092.0	2092.0	2014.0	2014.0	2014.0	2029.0	2029.0	2003.0	2003.0	2003.0	1961.0	1961.0	1955.0	1955.0	1955.0	1939.0	1939.0	1969.0	1969.0	1969.0	1993.0	1993.0	1968.0	1968.0	1968.0	1902.0	1902.0	1909.0	1909.0	1909.0	1905.0	1905.0	1883.0	1883.0	1883.0	1881.0	1881.0	1854.0	1854.0	1854.0	1909.0	1909.0	1893.0	1893.0	1893.0	1838.0	1838.0	1828.0	1828.0	1828.0	1800.0	1800.0	1802.0	1802.0	1802.0	1878.0	1878.0	1798.0	1798.0	1798.0	1776.0	1776.0	1823.0	1823.0	1823.0	1852.0	1852.0	1760.0	1760.0	1760.0	1766.0	1766.0	1784.0	1784.0	1784.0	1835.0	1835.0	1753.0	1753.0	1753.0	1816.0	1816.0	1765.0	1765.0	1765.0	1797.0	1797.0	1735.0	1735.0	1735.0	1735.0	1735.0	1821.0	1821.0	1821.0	1746.0	1746.0	1740.0	1740.0	1740.0	1763.0	1763.0	1766.0	1766.0	1766.0	1798.0	1798.0	1727.0	1727.0	1727.0	1807.0	1807.0	1800.0	1800.0	1800.0	1791.0	1791.0	1749.0	1749.0	1749.0	1772.0	1772.0	1704.0	1704.0	1704.0	1785.0	1785.0	1790.0	1790.0	1790.0	1794.0	1794.0	1692.0	1692.0	1692.0	1723.0	1723.0	1707.0	1707.0	1707.0	1736.0	1736.0	1745.0	1745.0	1766.0	1766.0	1766.0	1757.0	1757.0	1676.0	1676.0	1676.0	1762.0	1762.0	1759.0	1759.0	1759.0	1738.0	1738.0	1711.0	1711.0	1711.0	1704.0	1704.0	1675.0	1675.0	1675.0	1652.0	1652.0	1665.0	1665.0	1665.0	1721.0	1721.0	1705.0	1705.0	1705.0	1643.0	1643.0	1729.0	1729.0	1729.0	1642.0	1642.0	1636.0	1636.0	1636.0	1635.0	1635.0	1635.0	1635.0	1635.0	1627.0	1627.0	1629.0	1629.0	1629.0	1625.0	1625.0	1674.0	1674.0	1674.0	1621.0	1621.0	1703.0	1703.0	1703.0	1672.0	1672.0	1661.0	1661.0	1661.0	1604.0	1604.0	1614.0	1614.0	1614.0	1682.0	1682.0	1678.0	1678.0	1678.0	1584.0	1584.0	1580.0	1580.0	1580.0	1583.0	1583.0	1571.0	1571.0	1571.0	1590.0	1590.0	1577.0	1577.0	1577.0	1612.0	1612.0	1559.0	1559.0	1559.0	1540.0	1540.0	1549.0	1549.0	1549.0	1628.0	1628.0	1539.0	1539.0	1539.0	1537.0	1537.0	1620.0	1620.0	1620.0	1617.0	1617.0	1588.0	1588.0	1588.0	1616.0	1616.0	1536.0	1536.0	1536.0	1527.0	1527.0	1564.0	1564.0	1564.0	1500.0	1500.0	1502.0	1502.0	1502.0	1580.0	1580.0	1555.0	1555.0	1555.0	1549.0	1549.0	1548.0	1548.0	1548.0	1516.0	1516.0	1479.0	1479.0	1479.0	1504.0	1504.0	1452.0	1452.0	1452.0	1411.0	1411.0	1400.0	1400.0	1400.0	1393.0	1393.0	1321.0	1321.0	1321.0	1359.0	1359.0	1320.0	1320.0	1320.0	1267.0	1267.0	1272.0	1272.0	1272.0	1262.0	1262.0	1201.0	1201.0	1201.0	1162.0	1162.0	1143.0	1143.0	1143.0	1180.0	1180.0	1164.0	1164.0	1164.0	1154.0	1154.0	1080.0	1080.0	1080.0	1072.0	1072.0	1100.0	1100.0	1100.0	1127.0	1127.0	1066.0	1066.0	1066.0	1127.0	1127.0	1092.0	1092.0	1092.0	1092.0	1092.0	1070.0	1070.0	1084.0	1084.0	1084.0	1063.0	1063.0	1097.0	1097.0	1097.0	1128.0	1128.0	1071.0	1071.0	1071.0	1086.0	1086.0	1086.0	1086.0	1086.0	1149.0	1149.0	1082.0	1082.0	1082.0	1117.0	1117.0	1113.0	1113.0	1113.0	1098.0	1098.0	1136.0	1136.0	1136.0	1147.0	1147.0	1144.0	1144.0	1144.0	1128.0	1128.0	1116.0	1116.0	1116.0	1178.0	1178.0	1119.0	1119.0	1119.0	1164.0	1164.0	1174.0	1174.0	1174.0	1134.0	1134.0	1194.0	1194.0	1194.0	1189.0	1189.0	1208.0	1208.0	1208.0	1158.0	1158.0	1159.0	1159.0	1159.0	1212.0	1212.0	1216.0	1216.0	1216.0	1167.0	1167.0	1176.0	1176.0	1176.0	1227.0	1227.0	1182.0	1182.0	1182.0	1236.0	1236.0	1214.0	1214.0	1214.0	1186.0	1186.0	1246.0	1246.0	1246.0	1217.0	1217.0	1196.0	1196.0	1196.0	1254.0	1254.0	1205.0	1205.0	1205.0	1224.0	1224.0	1263.0	1263.0	1263.0	1211.0	1211.0	1272.0	1272.0	1272.0	1211.0	1211.0	1239.0	1239.0	1239.0	1219.0	1219.0	1230.0	1230.0	1230.0	1295.0	1295.0	1296.0	1296.0	1296.0	1310.0	1310.0	1255.0	1255.0	1255.0	1316.0	1316.0	1334.0	1334.0	1334.0	1321.0	1321.0	1306.0	1306.0	1306.0	1345.0	1345.0	1390.0	1390.0	1390.0	1394.0	1394.0	1392.0	1392.0	1392.0	1403.0	1403.0	1456.0	1456.0	1456.0	1515.0	1515.0	1532.0	1532.0	1532.0	1504.0	1504.0	1564.0	1564.0	1564.0	1632.0	1632.0	1637.0	1637.0	1637.0	1657.0	1657.0	1723.0	1723.0	1723.0	1760.0	1760.0	1749.0	1749.0	1749.0	1823.0	1823.0	1846.0	1846.0	1846.0	1886.0	1886.0	1866.0	1866.0	1866.0	1885.0	1885.0	1907.0	1907.0	1933.0	1933.0	1933.0	2032.0	2032.0	1997.0	1997.0	1997.0	2079.0	2079.0	2105.0	2105.0	2105.0	2052.0	2052.0	2086.0	2086.0	2086.0	2141.0	2141.0	2120.0	2120.0	2120.0	2211.0	2211.0	2151.0	2151.0	2151.0	2218.0	2218.0	2188.0	2188.0	2188.0	2258.0	2258.0	2228.0	2228.0	2228.0	2238.0	2238.0	2265.0	2265.0	2265.0	2278.0	2278.0	2312.0	2312.0	2312.0	2318.0	2318.0	2273.0	2273.0	2273.0	2322.0	2322.0	2287.0	2287.0	2287.0	2313.0	2313.0	2382.0	2382.0	2382.0	2316.0	2316.0	2340.0	2340.0	2340.0	2318.0	2318.0	2314.0	2314.0	2314.0	2313.0	2313.0	2323.0	2323.0	2323.0	2336.0	2336.0	2407.0	2407.0	2407.0	2350.0	2350.0	2347.0	2347.0	2347.0	2320.0	2320.0	2356.0	2356.0	2356.0	2318.0	2318.0	2324.0	2324.0	2324.0	2358.0	2358.0	2390.0	2390.0	2390.0	2331.0	2331.0	2343.0	2343.0	2343.0	2334.0	2334.0	2303.0	2303.0	2303.0	2311.0	2311.0	2325.0	2325.0	2325.0	2296.0	2296.0	2274.0	2274.0	2274.0	2267.0	2267.0	2311.0	2311.0	2311.0	2288.0	2288.0	2251.0	2251.0	2251.0	2277.0	2277.0	2310.0	2310.0	2310.0	2267.0	2267.0	2284.0	2284.0	2284.0	2209.0	2209.0	2221.0	2221.0	2221.0	2256.0	2256.0	2257.0	2257.0	2257.0	2236.0	2236.0	2164.0	2164.0	2164.0	2183.0	2183.0	2202.0	2202.0	2202.0	2200.0	2200.0	2195.0	2195.0	2195.0	2125.0	2125.0	2102.0	2102.0	2102.0	2087.0	2087.0	2139.0	2139.0	2139.0	2127.0	2127.0	2078.0	2078.0	2078.0	2058.0	2058.0	2017.0	2017.0	2017.0	2021.0	2021.0	2050.0	2050.0	2050.0	2038.0	2038.0	1976.0	1976.0	1976.0	2011.0	2011.0	1946.0	1946.0	2011.0	2011.0	2011.0	1939.0	1939.0	1994.0	1994.0	1994.0	1960.0	1960.0	1968.0	1968.0	1968.0	1965.0	1965.0	1891.0	1891.0	1891.0	1939.0	1939.0	1878.0	1878.0	1878.0	1875.0	1875.0	1884.0	1884.0	1884.0	1885.0	1885.0	1867.0	1867.0	1867.0	1891.0	1891.0	1839.0	1839.0	1839.0	1913.0	1913.0	1858.0	1858.0	1858.0	1832.0	1832.0	1832.0	1832.0	1832.0	1838.0	1838.0	1841.0	1841.0	1841.0	1839.0	1839.0	1891.0	1891.0	1891.0	1833.0	1833.0	1891.0	1891.0	1891.0	1833.0	1833.0	1846.0	1846.0	1846.0	1855.0	1855.0	1883.0	1883.0	1883.0	1828.0	1828.0	1875.0	1875.0	1875.0	1829.0	1829.0	1883.0	1883.0	1883.0	1802.0	1802.0	1805.0	1805.0	1805.0	1878.0	1878.0	1825.0	1825.0	1825.0	1884.0	1884.0	1862.0	1862.0	1862.0	1795.0	1795.0	1794.0	1794.0	1794.0	1843.0	1843.0	1789.0	1789.0	1789.0	1865.0	1865.0	1806.0	1806.0	1806.0	1794.0	1794.0	1796.0	1796.0	1796.0	1784.0	1784.0	1867.0	1867.0	1867.0	1848.0	1848.0	1800.0	1800.0	1800.0	1843.0	1843.0	1792.0	1792.0	1792.0	1829.0	1829.0	1830.0	1830.0	1830.0	1773.0	1773.0	1788.0	1788.0	1788.0	1785.0	1785.0	1844.0	1844.0	1844.0	1796.0	1796.0	1833.0	1833.0	1833.0	1788.0	1788.0	1787.0	1787.0	1787.0	1811.0	1811.0	1759.0	1759.0	1759.0	1781.0	1781.0	1797.0	1797.0	1797.0	1809.0	1809.0	1757.0	1757.0	1757.0	1766.0	1766.0	1814.0	1814.0	1814.0	1764.0	1764.0	1752.0	1752.0	1752.0	1813.0	1813.0	1740.0	1740.0	1740.0	1807.0	1807.0	1753.0	1753.0	1753.0	1800.0	1800.0	1722.0	1722.0	1722.0	1758.0	1758.0	1760.0	1760.0	1760.0	1750.0	1750.0	1724.0	1724.0	1770.0	1770.0	1770.0	1746.0	1746.0	1761.0	1761.0	1761.0	1755.0	1755.0	1760.0	1760.0	1760.0	1712.0	1712.0	1699.0	1699.0	1699.0	1689.0	1689.0	1720.0	1720.0	1720.0	1737.0	1737.0	1713.0	1713.0	1713.0	1674.0	1674.0	1740.0	1740.0	1740.0	1678.0	1678.0	1734.0	1734.0	1734.0	1728.0	1728.0	1678.0	1678.0	1678.0	1684.0	1684.0	1719.0	1719.0	1719.0	1686.0	1686.0	1714.0	1714.0	1714.0	1714.0	1714.0	1651.0	1651.0	1651.0	1712.0	1712.0	1642.0	1642.0	1642.0	1653.0	1653.0	1635.0	1635.0	1635.0	1635.0	1635.0	1672.0	1672.0	1672.0	1688.0	1688.0	