1787.0	1787.0	1787.0	1826.0	1826.0	1830.0	1830.0	1830.0	1804.0	1804.0	1804.0	1804.0	1804.0	1770.0	1770.0	1795.0	1795.0	1795.0	1768.0	1768.0	1768.0	1768.0	1768.0	1829.0	1829.0	1764.0	1764.0	1836.0	1836.0	1836.0	1821.0	1821.0	1793.0	1793.0	1793.0	1816.0	1816.0	1764.0	1764.0	1764.0	1811.0	1811.0	1836.0	1836.0	1836.0	1758.0	1758.0	1826.0	1826.0	1826.0	1819.0	1819.0	1757.0	1757.0	1757.0	1756.0	1756.0	1737.0	1737.0	1737.0	1788.0	1788.0	1806.0	1806.0	1806.0	1741.0	1741.0	1767.0	1767.0	1767.0	1737.0	1737.0	1735.0	1735.0	1735.0	1804.0	1804.0	1795.0	1795.0	1795.0	1811.0	1811.0	1788.0	1788.0	1788.0	1799.0	1799.0	1759.0	1759.0	1759.0	1750.0	1750.0	1819.0	1819.0	1819.0	1750.0	1750.0	1767.0	1767.0	1767.0	1755.0	1755.0	1827.0	1827.0	1827.0	1751.0	1751.0	1743.0	1743.0	1743.0	1746.0	1746.0	1822.0	1822.0	1822.0	1743.0	1743.0	1746.0	1746.0	1746.0	1793.0	1793.0	1751.0	1751.0	1751.0	1758.0	1758.0	1747.0	1747.0	1747.0	1827.0	1827.0	1818.0	1818.0	1818.0	1807.0	1807.0	1773.0	1773.0	1773.0	1776.0	1776.0	1747.0	1747.0	1747.0	1744.0	1744.0	1807.0	1807.0	1807.0	1746.0	1746.0	1765.0	1765.0	1765.0	1817.0	1817.0	1744.0	1744.0	1744.0	1781.0	1781.0	1788.0	1788.0	1788.0	1770.0	1770.0	1743.0	1743.0	1743.0	1830.0	1830.0	1795.0	1795.0	1795.0	1752.0	1752.0	1748.0	1748.0	1748.0	1751.0	1751.0	1819.0	1819.0	1819.0	1770.0	1770.0	1762.0	1762.0	1762.0	1782.0	1782.0	1770.0	1770.0	1770.0	1818.0	1818.0	1777.0	1777.0	1777.0	1755.0	1755.0	1759.0	1759.0	1759.0	1742.0	1742.0	1788.0	1788.0	1788.0	1743.0	1743.0	1762.0	1762.0	1762.0	1748.0	1748.0	1811.0	1811.0	1811.0	1780.0	1780.0	1795.0	1795.0	1795.0	1803.0	1803.0	1735.0	1735.0	1798.0	1798.0	1798.0	1786.0	1786.0	1803.0	1803.0	1803.0	1743.0	1743.0	1760.0	1760.0	1760.0	1762.0	1762.0	1795.0	1795.0	1795.0	1827.0	1827.0	1804.0	1804.0	1804.0	1794.0	1794.0	1821.0	1821.0	1821.0	1771.0	1771.0	1747.0	1747.0	1747.0	1765.0	1765.0	1779.0	1779.0	1779.0	1771.0	1771.0	1851.0	1851.0	1851.0	1787.0	1787.0	1787.0	1787.0	1787.0	1889.0	1889.0	1828.0	1828.0	1828.0	1840.0	1840.0	1849.0	1849.0	1849.0	1885.0	1885.0	1957.0	1957.0	1957.0	1943.0	1943.0	1990.0	1990.0	1990.0	1930.0	1930.0	2018.0	2018.0	2018.0	1971.0	1971.0	1987.0	1987.0	1987.0	2073.0	2073.0	2044.0	2044.0	2044.0	2087.0	2087.0	2050.0	2050.0	2050.0	2103.0	2103.0	2107.0	2107.0	2107.0	2140.0	2140.0	2165.0	2165.0	2165.0	2157.0	2157.0	2170.0	2170.0	2170.0	2165.0	2165.0	2179.0	2179.0	2179.0	2264.0	2264.0	2261.0	2261.0	2261.0	2217.0	2217.0	2237.0	2237.0	2237.0	2303.0	2303.0	2287.0	2287.0	2287.0	2318.0	2318.0	2285.0	2285.0	2285.0	2286.0	2286.0	2360.0	2360.0	2360.0	2289.0	2289.0	2308.0	2308.0	2308.0	2355.0	2355.0	2388.0	2388.0	2388.0	2378.0	2378.0	2372.0	2372.0	2372.0	2375.0	2375.0	2326.0	2326.0	2326.0	2381.0	2381.0	2348.0	2348.0	2348.0	2334.0	2334.0	2328.0	2328.0	2328.0	2379.0	2379.0	2418.0	2418.0	2418.0	2361.0	2361.0	2348.0	2348.0	2348.0	2383.0	2383.0	2336.0	2336.0	2336.0	2379.0	2379.0	2380.0	2380.0	2380.0	2388.0	2388.0	2336.0	2336.0	2336.0	2373.0	2373.0	2327.0	2327.0	2327.0	2367.0	2367.0	2358.0	2358.0	2358.0	2385.0	2385.0	2353.0	2353.0	2353.0	2311.0	2311.0	2351.0	2351.0	2332.0	2332.0	2332.0	2320.0	2320.0	2311.0	2311.0	2311.0	2309.0	2309.0	2296.0	2296.0	2296.0	2304.0	2304.0	2353.0	2353.0	2353.0	2304.0	2304.0	2271.0	2271.0	2271.0	2310.0	2310.0	2260.0	2260.0	2260.0	2255.0	2255.0	2250.0	2250.0	2250.0	2275.0	2275.0	2256.0	2256.0	2256.0	2299.0	2299.0	2273.0	2273.0	2273.0	2286.0	2286.0	2244.0	2244.0	2244.0	2224.0	2224.0	2222.0	2222.0	2222.0	2195.0	2195.0	2238.0	2238.0	2238.0	2234.0	2234.0	2159.0	2159.0	2159.0	2215.0	2215.0	2210.0	2210.0	2210.0	2170.0	2170.0	2157.0	2157.0	2157.0	2203.0	2203.0	2117.0	2117.0	2117.0	2160.0	2160.0	2155.0	2155.0	2155.0	2109.0	2109.0	2118.0	2118.0	2118.0	2090.0	2090.0	2163.0	2163.0	2163.0	2145.0	2145.0	2134.0	2134.0	2134.0	2095.0	2095.0	2100.0	2100.0	2100.0	2048.0	2048.0	2041.0	2041.0	2041.0	2079.0	2079.0	2051.0	2051.0	2051.0	2077.0	2077.0	2096.0	2096.0	2096.0	2031.0	2031.0	2063.0	2063.0	2063.0	2079.0	2079.0	2040.0	2040.0	2040.0	2005.0	2005.0	2034.0	2034.0	2034.0	1990.0	1990.0	2014.0	2014.0	2014.0	2049.0	2049.0	2058.0	2058.0	2058.0	1988.0	1988.0	1991.0	1991.0	1991.0	2052.0	2052.0	2044.0	2044.0	2044.0	1998.0	1998.0	2042.0	2042.0	2042.0	2001.0	2001.0	2046.0	2046.0	2046.0	1971.0	1971.0	1990.0	1990.0	1990.0	2016.0	2016.0	2043.0	2043.0	2043.0	2032.0	2032.0	2014.0	2014.0	2014.0	1963.0	1963.0	1963.0	1963.0	1963.0	2029.0	2029.0	2032.0	2032.0	2032.0	1973.0	1973.0	1979.0	1979.0	1979.0	2012.0	2012.0	1959.0	1959.0	1959.0	1940.0	1940.0	1989.0	1989.0	1934.0	1934.0	1934.0	1963.0	1963.0	2014.0	2014.0	2014.0	1985.0	1985.0	1939.0	1939.0	1939.0	2014.0	2014.0	2008.0	2008.0	2008.0	2012.0	2012.0	2003.0	2003.0	2003.0	2010.0	2010.0	1950.0	1950.0	1950.0	1926.0	1926.0	1935.0	1935.0	1935.0	1939.0	1939.0	1929.0	1929.0	1929.0	1927.0	1927.0	1977.0	1977.0	1977.0	1985.0	1985.0	1974.0	1974.0	1974.0	1990.0	1990.0	1915.0	1915.0	1915.0	1900.0	1900.0	1979.0	1979.0	1979.0	1967.0	1967.0	1901.0	1901.0	1901.0	1925.0	1925.0	1951.0	1951.0	1951.0	1947.0	1947.0	1910.0	1910.0	1910.0	1905.0	1905.0	1974.0	1974.0	1974.0	1919.0	1919.0	1962.0	1962.0	1962.0	1888.0	1888.0	1881.0	1881.0	1881.0	1963.0	1963.0	1872.0	1872.0	1872.0	1944.0	1944.0	1892.0	1892.0	1892.0	1892.0	1892.0	1944.0	1944.0	1944.0	1861.0	1861.0	1866.0	1866.0	1866.0	1917.0	1917.0	1894.0	1894.0	1894.0	1928.0	1928.0	1873.0	1873.0	1873.0	1895.0	1895.0	1905.0	1905.0	1905.0	1870.0	1870.0	1843.0	1843.0	1843.0	1847.0	1847.0	1857.0	1857.0	1857.0	1877.0	1877.0	1895.0	1895.0	1895.0	1862.0	1862.0	1865.0	1865.0	1865.0	1868.0	1868.0	1890.0	1890.0	1890.0	1827.0	1827.0	1856.0	1856.0	1856.0	1900.0	1900.0	1848.0	1848.0	1848.0	1855.0	1855.0	1893.0	1893.0	1893.0	1813.0	1813.0	1864.0	1864.0	1864.0	1870.0	1870.0	1859.0	1859.0	1859.0	1872.0	1872.0	1843.0	1843.0	1843.0	1824.0	1824.0	1847.0	1847.0	1847.0	1807.0	1807.0	1879.0	1879.0	1879.0	1795.0	1795.0	1820.0	1820.0	1820.0	1862.0	1862.0	1856.0	1856.0	1856.0	1827.0	1827.0	1821.0	1821.0	1821.0	1813.0	1813.0	1825.0	1825.0	1860.0	1860.0	1860.0	1827.0	1827.0	1832.0	1832.0	1832.0	1773.0	1773.0	1787.0	1787.0	1787.0	1778.0	1778.0	1798.0	1798.0	1798.0	1854.0	1854.0	1796.0	1796.0	1796.0	1846.0	1846.0	1828.0	1828.0	1828.0	1813.0	1813.0	1781.0	1781.0	1781.0	1781.0	1781.0	1777.0	1777.0	1777.0	1790.0	1790.0	1854.0	1854.0	1854.0	1789.0	1789.0	1771.0	1771.0	1771.0	1839.0	1839.0	1776.0	1776.0	1776.0	1851.0	1851.0	1780.0	1780.0	1780.0	1789.0	1789.0	1840.0	1840.0	1840.0	1761.0	1761.0	1785.0	1785.0	1785.0	1771.0	1771.0	1847.0	1847.0	1847.0	1813.0	1813.0	1841.0	1841.0	1841.0	1789.0	1789.0	1851.0	1851.0	1851.0	1781.0	1781.0	1805.0	1805.0	1805.0	1785.0	1785.0	1792.0	1792.0	1792.0	1775.0	1775.0	1781.0	1781.0	1781.0	1850.0	1850.0	1783.0	1783.0	1783.0	1806.0	1806.0	1770.0	1770.0	1770.0	1800.0	1800.0	1848.0	1848.0	1848.0	1835.0	1835.0	1845.0	1845.0	1845.0	1829.0	1829.0	1778.0	1778.0	1778.0	1763.0	1763.0	1836.0	1836.0	1836.0	1779.0	1779.0	1816.0	1816.0	1816.0	1837.0	1837.0	1766.0	1766.0	1766.0	1780.0	1780.0	1772.0	1772.0	1772.0	1765.0	1765.0	1809.0	1809.0	1809.0	1755.0	1755.0	1828.0	1828.0	1828.0	1811.0	1811.0	1837.0	1837.0	1837.0	1755.0	1755.0	1811.0	1811.0	1811.0	1751.0	1751.0	1773.0	1773.0	1773.0	1812.0	1812.0	1844.0	1844.0	1844.0	1789.0	1789.0	1801.0	1801.0	1801.0	1751.0	1751.0	1748.0	1748.0	1748.0	1777.0	1777.0	1806.0	1806.0	1806.0	1811.0	1811.0	1775.0	1775.0	1775.0	1824.0	1824.0	1761.0	1761.0	1761.0	1775.0	1775.0	1830.0	1830.0	1798.0	1798.0	1798.0	1810.0	1810.0	1849.0	1849.0	1849.0	1846.0	1846.0	1776.0	1776.0	1776.0	1802.0	1802.0	1821.0	1821.0	1821.0	1806.0	1806.0	1841.0	1841.0	1841.0	1891.0	1891.0	1837.0	1837.0	1837.0	1856.0	1856.0	1874.0	1874.0	1874.0	1919.0	1919.0	1926.0	1926.0	1926.0	1962.0	1962.0	1921.0	1921.0	1921.0	1931.0	1931.0	1959.0	1959.0	1959.0	1971.0	1971.0	2059.0	2059.0	2059.0	2035.0	2035.0	2072.0	2072.0	2072.0	2028.0	2028.0	2115.0	2115.0	2115.0	2142.0	2142.0	2086.0	2086.0	2086.0	2108.0	2108.0	2192.0	2192.0	2192.0	2142.0	2142.0	2145.0	2145.0	2145.0	2174.0	2174.0	2208.0	2208.0	2208.0	2227.0	2227.0	2219.0	2219.0	2219.0	2225.0	2225.0	2245.0	2245.0	2245.0	2225.0	2225.0	2288.0	2288.0	2288.0	2253.0	2253.0	2260.0	2260.0	2260.0	2270.0	2270.0	2296.0	2296.0	2296.0	2292.0	2292.0	2315.0	2315.0	2315.0	2303.0	2303.0	2353.0	2353.0	2353.0	2390.0	2390.0	2394.0	2394.0	2394.0	2393.0	2393.0	2403.0	2403.0	2403.0	2387.0	2387.0	2403.0	2403.0	2403.0	2360.0	2360.0	2383.0	2383.0	2383.0	2353.0	2353.0	2348.0	2348.0	2348.0	2389.0	2389.0	2383.0	2383.0	2383.0	2372.0	2372.0	2388.0	2388.0	2388.0	2334.0	2334.0	2341.0	2341.0	2341.0	2403.0	2403.0	2331.0	2331.0	2331.0	2386.0	2386.0	2382.0	2382.0	2382.0	2351.0	2351.0	2330.0	2330.0	2330.0	2358.0	2358.0	2308.0	2308.0	2308.0	2361.0	2361.0	2356.0	2356.0	2356.0	2327.0	2327.0	2330.0	2330.0	2330.0	2360.0	2360.0	2292.0	2292.0	2292.0	2359.0	2359.0	2327.0	2327.0	2327.0	2350.0	2350.0	2276.0	2276.0	2287.0	2287.0	2287.0	2276.0	2276.0	2285.0	2285.0	2285.0	2294.0	2294.0	2331.0	2331.0	2331.0	2266.0	2266.0	2248.0	2248.0	2248.0	2282.0	2282.0	2250.0	2250.0	2250.0	2298.0	2298.0	2213.0	2213.0	2213.0	2228.0	2228.0	2251.0	2251.0	2251.0	2274.0	2274.0	2265.0	2265.0	2265.0	2185.0	2185.0	2169.0	2169.0	2169.0	2165.0	2165.0	2165.0	2165.0	2165.0	2209.0	2209.0	2218.0	2218.0	2218.0	2190.0	2190.0	2143.0	2143.0	2143.0	2177.0	2177.0	2146.0	2146.0	2146.0	2138.0	2138.0	2154.0	2154.0	2154.0	2107.0	2107.0	2139.0	2139.0	2139.0	2065.0	2065.0	2144.0	2144.0	2144.0	2067.0	2067.0	2128.0	2128.0	2128.0	2102.0	2102.0	2046.0	2046.0	2046.0	2111.0	2111.0	2099.0	2099.0	2099.0	2082.0	2082.0	2086.0	2086.0	2086.0	2012.0	2012.0	2081.0	2081.0	2081.0	2082.0	2082.0	2004.0	2004.0	2004.0	2004.0	2004.0	2055.0	2055.0	2055.0	2070.0	2070.0	2022.0	2022.0	2022.0	1999.0	1999.0	2030.0	2030.0	2030.0	1990.0	1990.0	1981.0	1981.0	1981.0	2056.0	2056.0	2019.0	2019.0	2019.0	1970.0	1970.0	2044.0	2044.0	2044.0	1995.0	1995.0	2028.0	2028.0	2028.0	2004.0	2004.0	1976.0	1976.0	1976.0	2045.0	2045.0	2024.0	2024.0	2024.0	2025.0	2025.0	2024.0	2024.0	2024.0	1991.0	1991.0	2022.0	2022.0	2022.0	2033.0	2033.0	1998.0	1998.0	1998.0	1981.0	1981.0	1951.0	1951.0	1951.0	1965.0	1965.0	1967.0	1967.0	1967.0	1955.0	1955.0	2011.0	2011.0	2011.0	1974.0	1974.0	1951.0	1951.0	1951.0	1961.0	1961.0	1983.0	1983.0	1983.0	2024.0	2024.0	2014.0	2014.0	2014.0	1976.0	1976.0	1947.0	1947.0	1947.0	1941.0	1941.0	2010.0	2010.0	1960.0	1960.0	1960.0	2011.0	2011.0	2015.0	2015.0	2015.0	1942.0	1942.0	1967.0	1967.0	1967.0	1933.0	1933.0	2008.0	2008.0	2008.0	1976.0	1976.0	2005.0	2005.0	2005.0	1967.0	1967.0	1931.0	1931.0	1931.0	1959.0	1959.0	1949.0	1949.0	1949.0	1927.0	1927.0	1931.0	1931.0	1931.0	1985.0	1985.0	1945.0	1945.0	1945.0	1990.0	1990.0	1914.0	1914.0	1914.0	1900.0	1900.0	1899.0	1899.0	1899.0	1940.0	1940.0	1939.0	1939.0	1939.0	1900.0	1900.0	1959.0	1959.0	1959.0	1904.0	1904.0	1959.0	1959.0	1959.0	1948.0	1948.0	1914.0	1914.0	1914.0	1885.0	1885.0	1888.0	1888.0	1888.0	1915.0	1915.0	1910.0	1910.0	1910.0	1900.0	1900.0	1883.0	1883.0	1883.0	1887.0	1887.0	1921.0	1921.0	1921.0	1909.0	1909.0	1890.0	1890.0	1890.0	1911.0	1911.0	1916.0	1916.0	1916.0	1898.0	1898.0	1850.0	1850.0	1850.0	1870.0	1870.0	1911.0	1911.0	1911.0	1840.0	1840.0	1900.0	1900.0	1900.0	1833.0	1833.0	1855.0	1855.0	1855.0	1839.0	1839.0	1867.0	1867.0	1867.0	1900.0	1900.0	1903.0	1903.0	1903.0	1893.0	1893.0	1874.0	1874.0	1874.0	1847.0	1847.0	1874.0	1874.0	1874.0	1833.0	1833.0	1863.0	1863.0	1863.0	1882.0	1882.0	1822.0	1822.0	1822.0	1813.0	1813.0	1825.0	1825.0	1825.0	1890.0	1890.0	1834.0	1834.0	1834.0	1818.0	1818.0	1819.0	1819.0	1819.0	1853.0	1853.0	1859.0	1859.0	1859.0	1839.0	1839.0	1885.0	1885.0	1885.0	1853.0	1853.0	1805.0	1805.0	1805.0	1871.0	1871.0	1871.0	1871.0	1871.0	1805.0	1805.0	1830.0	1830.0	1830.0	1819.0	1819.0	1854.0	1854.0	1854.0	1866.0	1866.0	1875.0	1875.0	1849.0	1849.0	1849.0	1834.0	1834.0	1801.0	1801.0	1801.0	1798.0	1798.0	1839.0	1839.0	1839.0	1820.0	1820.0	1817.0	1817.0	1817.0	1843.0	1843.0	1846.0	1846.0	1846.0	1810.0	1810.0	1870.0	1870.0	1870.0	1841.0	1841.0	1793.0	1793.0	1793.0	1798.0	1798.0	1805.0	1805.0	1805.0	1820.0	1820.0	1802.0	1802.0	1802.0	1871.0	1871.0	1820.0	1820.0	1820.0	1793.0	1793.0	1853.0	1853.0	1853.0	1792.0	1792.0	1846.0	1846.0	1846.0	1850.0	1850.0	1838.0	1838.0	1838.0	1815.0	1815.0	1797.0	1797.0	1797.0	1790.0	1790.0	1819.0	1819.0	1819.0	1846.0	1846.0	1784.0	1784.0	1784.0	1842.0	1842.0	1789.0	1789.0	1789.0	1783.0	1783.0	1846.0	1846.0	1846.0	1794.0	1794.0	1784.0	1784.0	1784.0	1787.0	1787.0	1782.0	1782.0	1782.0	1833.0	1833.0	1817.0	1817.0	1817.0	1779.0	1779.0	1820.0	1820.0	1820.0	1783.0	1783.0	1846.0	1846.0	1846.0	1771.0	1771.0	1859.0	1859.0	1859.0	1836.0	1836.0	1802.0	1802.0	1802.0	1845.0	1845.0	1825.0	1825.0	1825.0	1789.0	1789.0	1788.0	1788.0	1788.0	1769.0	1769.0	1832.0	1832.0	1832.0	1799.0	1799.0	1802.0	1802.0	1802.0	1766.0	1766.0	1815.0	1815.0	1815.0	1844.0	1844.0	1839.0	1839.0	1839.0	1809.0	1809.0	1788.0	1788.0	1788.0	1789.0	1789.0	1779.0	1779.0	1779.0	1820.0	1820.0	1831.0	1831.0	1831.0	1839.0	1839.0	1863.0	1863.0	1863.0	1839.0	1839.0	1870.0	1870.0	1870.0	1880.0	1880.0	1803.0	1803.0	1803.0	1903.0	1903.0	1894.0	1894.0	1894.0	1855.0	1855.0	1845.0	1845.0	1845.0	1887.0	1887.0	1917.0	1917.0	1917.0	1971.0	1971.0	1979.0	1979.0	1997.0	1997.0	1997.0	1938.0	1938.0	1945.0	1945.0	1945.0	1971.0	1971.0	2063.0	2063.0	2063.0	2080.0	2080.0	2032.0	2032.0	2032.0	2081.0	2081.0	2103.0	2103.0	2103.0	2135.0	2135.0	2133.0	2133.0	2133.0	2120.0	2120.0	2133.0	2133.0	2133.0	2165.0	2165.0	2242.0	2242.0	2242.0	2185.0	2185.0	2217.0	2217.0	2217.0	2212.0	2212.0	2212.0	2212.0	2212.0	2278.0	2278.0	2244.0	2244.0	2244.0	2297.0	2297.0	2346.0	2346.0	2346.0	2290.0	2290.0	2312.0	2312.0	2312.0	2377.0	2377.0	2385.0	2385.0	2385.0	2326.0	2326.0	2374.0	2374.0	2374.0	2409.0	2409.0	2428.0	2428.0	2428.0	2353.0	2353.0	2359.0	2359.0	2359.0	2359.0	2359.0	2385.0	2385.0	2385.0	2439.0	2439.0	2388.0	2388.0	2388.0	2412.0	2412.0	2379.0	2379.0	2379.0	2414.0	2414.0	2398.0	2398.0	2398.0	2396.0	2396.0	2391.0	2391.0	2391.0	2440.0	2440.0	2393.0	2393.0	2393.0	2398.0	2398.0	2408.0	2408.0	2408.0	2469.0	2469.0	2471.0	2471.0	2471.0	2459.0	2459.0	2390.0	2390.0	2390.0	2462.0	2462.0	2457.0	2457.0	2457.0	2467.0	2467.0	2457.0	2457.0	2457.0	2441.0	2441.0	2418.0	2418.0	2418.0	2460.0	2460.0	2444.0	2444.0	2444.0	2443.0	2443.0	2423.0	2423.0	2423.0	2374.0	2374.0	2412.0	2412.0	2412.0	2439.0	2439.0	2355.0	2355.0	2355.0	2398.0	2398.0	2350.0	2350.0	2350.0	2427.0	2427.0	2367.0	2367.0	2367.0	2337.0	2337.0	2342.0	2342.0	2342.0	2400.0	2400.0	2334.0	2334.0	2334.0	2311.0	2311.0	2309.0	2309.0	2309.0	2323.0	2323.0	2384.0	2384.0	2384.0	2358.0	2358.0	2302.0	2302.0	2302.0	2287.0	2287.0	2343.0	2343.0	2343.0	2313.0	2313.0	2323.0	2323.0	2330.0	2330.0	2330.0	2244.0	2244.0	2288.0	2288.0	2288.0	2301.0	2301.0	2242.0	2242.0	2242.0	2291.0	2291.0	2283.0	2283.0	2283.0	2224.0	2224.0	2203.0	2203.0	2203.0	2208.0	2208.0	2263.0	2263.0	2263.0	2183.0	2183.0	2248.0	2248.0	2248.0	