2690.0	2711.0	2711.0	2711.0	2689.0	2689.0	2721.0	2721.0	2721.0	2703.0	2703.0	2647.0	2647.0	2647.0	2697.0	2697.0	2678.0	2678.0	2678.0	2643.0	2643.0	2649.0	2649.0	2649.0	2659.0	2659.0	2668.0	2668.0	2668.0	2617.0	2617.0	2622.0	2622.0	2622.0	2610.0	2610.0	2611.0	2611.0	2611.0	2584.0	2584.0	2633.0	2633.0	2633.0	2579.0	2579.0	2547.0	2547.0	2547.0	2549.0	2549.0	2578.0	2578.0	2578.0	2517.0	2517.0	2561.0	2561.0	2561.0	2506.0	2506.0	2484.0	2484.0	2484.0	2480.0	2480.0	2478.0	2478.0	2478.0	2494.0	2494.0	2502.0	2502.0	2502.0	2437.0	2437.0	2431.0	2431.0	2431.0	2432.0	2432.0	2469.0	2469.0	2469.0	2428.0	2428.0	2392.0	2392.0	2392.0	2374.0	2374.0	2408.0	2408.0	2408.0	2361.0	2361.0	2352.0	2352.0	2352.0	2366.0	2366.0	2334.0	2334.0	2334.0	2347.0	2347.0	2288.0	2288.0	2288.0	2282.0	2282.0	2308.0	2308.0	2308.0	2251.0	2251.0	2244.0	2244.0	2244.0	2283.0	2283.0	2211.0	2211.0	2211.0	2223.0	2223.0	2250.0	2250.0	2250.0	2175.0	2175.0	2184.0	2184.0	2184.0	2193.0	2193.0	2135.0	2135.0	2135.0	2150.0	2150.0	2134.0	2134.0	2134.0	2121.0	2121.0	2114.0	2114.0	2128.0	2128.0	2128.0	2123.0	2123.0	2082.0	2082.0	2082.0	2096.0	2096.0	2065.0	2065.0	2065.0	2076.0	2076.0	2109.0	2109.0	2109.0	2104.0	2104.0	2037.0	2037.0	2037.0	2051.0	2051.0	2040.0	2040.0	2040.0	2026.0	2026.0	2038.0	2038.0	2038.0	2048.0	2048.0	2060.0	2060.0	2060.0	2008.0	2008.0	2066.0	2066.0	2066.0	2043.0	2043.0	2001.0	2001.0	2001.0	2045.0	2045.0	2017.0	2017.0	2017.0	1986.0	1986.0	1987.0	1987.0	1987.0	2029.0	2029.0	2024.0	2024.0	2024.0	2024.0	2024.0	2048.0	2048.0	2048.0	2051.0	2051.0	1979.0	1979.0	1979.0	2016.0	2016.0	1993.0	1993.0	1993.0	1972.0	1972.0	2003.0	2003.0	2003.0	1976.0	1976.0	2027.0	2027.0	2027.0	2011.0	2011.0	2025.0	2025.0	2025.0	1973.0	1973.0	1997.0	1997.0	1997.0	2001.0	2001.0	2003.0	2003.0	2003.0	2020.0	2020.0	2032.0	2032.0	2032.0	2009.0	2009.0	1976.0	1976.0	1976.0	2006.0	2006.0	1964.0	1964.0	1964.0	1950.0	1950.0	1995.0	1995.0	1995.0	1982.0	1982.0	1974.0	1974.0	1974.0	1974.0	1974.0	1995.0	1995.0	1995.0	1926.0	1926.0	1965.0	1965.0	1965.0	1936.0	1936.0	1992.0	1992.0	1992.0	1920.0	1920.0	1934.0	1934.0	1934.0	1970.0	1970.0	1967.0	1967.0	1967.0	1925.0	1925.0	1915.0	1915.0	1915.0	1962.0	1962.0	1912.0	1912.0	1912.0	1966.0	1966.0	1908.0	1908.0	1908.0	1947.0	1947.0	1937.0	1937.0	1937.0	1900.0	1900.0	1946.0	1946.0	1946.0	1887.0	1887.0	1910.0	1910.0	1910.0	1881.0	1881.0	1922.0	1922.0	1922.0	1866.0	1866.0	1888.0	1888.0	1888.0	1857.0	1857.0	1892.0	1892.0	1892.0	1879.0	1879.0	1891.0	1891.0	1891.0	1842.0	1842.0	1883.0	1883.0	1870.0	1870.0	1870.0	1885.0	1885.0	1872.0	1872.0	1872.0	1875.0	1875.0	1849.0	1849.0	1849.0	1844.0	1844.0	1817.0	1817.0	1817.0	1863.0	1863.0	1820.0	1820.0	1820.0	1812.0	1812.0	1796.0	1796.0	1796.0	1840.0	1840.0	1826.0	1826.0	1826.0	1846.0	1846.0	1822.0	1822.0	1822.0	1811.0	1811.0	1782.0	1782.0	1782.0	1786.0	1786.0	1807.0	1807.0	1807.0	1786.0	1786.0	1788.0	1788.0	1788.0	1770.0	1770.0	1800.0	1800.0	1800.0	1787.0	1787.0	1778.0	1778.0	1778.0	1811.0	1811.0	1779.0	1779.0	1779.0	1762.0	1762.0	1744.0	1744.0	1744.0	1772.0	1772.0	1764.0	1764.0	1764.0	1759.0	1759.0	1759.0	1759.0	1759.0	1771.0	1771.0	1756.0	1756.0	1756.0	1789.0	1789.0	1715.0	1715.0	1715.0	1729.0	1729.0	1712.0	1712.0	1712.0	1743.0	1743.0	1763.0	1763.0	1763.0	1768.0	1768.0	1706.0	1706.0	1706.0	1700.0	1700.0	1772.0	1772.0	1772.0	1717.0	1717.0	1712.0	1712.0	1712.0	1719.0	1719.0	1688.0	1688.0	1688.0	1707.0	1707.0	1687.0	1687.0	1687.0	1714.0	1714.0	1712.0	1712.0	1712.0	1691.0	1691.0	1713.0	1713.0	1713.0	1678.0	1678.0	1724.0	1724.0	1724.0	1721.0	1721.0	1717.0	1717.0	1717.0	1716.0	1716.0	1700.0	1700.0	1700.0	1720.0	1720.0	1727.0	1727.0	1727.0	1687.0	1687.0	1738.0	1738.0	1738.0	1697.0	1697.0	1709.0	1709.0	1709.0	1743.0	1743.0	1741.0	1741.0	1741.0	1737.0	1737.0	1758.0	1758.0	1758.0	1757.0	1757.0	1782.0	1782.0	1782.0	1849.0	1849.0	1824.0	1824.0	1824.0	1890.0	1890.0	1926.0	1926.0	1926.0	1912.0	1912.0	1915.0	1915.0	1915.0	1941.0	1941.0	2010.0	2010.0	2008.0	2008.0	2008.0	2055.0	2055.0	2039.0	2039.0	2039.0	2114.0	2114.0	2135.0	2135.0	2135.0	2175.0	2175.0	2181.0	2181.0	2181.0	2190.0	2190.0	2270.0	2270.0	2270.0	2242.0	2242.0	2312.0	2312.0	2312.0	2317.0	2317.0	2327.0	2327.0	2327.0	2346.0	2346.0	2431.0	2431.0	2431.0	2450.0	2450.0	2452.0	2452.0	2452.0	2447.0	2447.0	2459.0	2459.0	2459.0	2547.0	2547.0	2515.0	2515.0	2515.0	2517.0	2517.0	2538.0	2538.0	2538.0	2592.0	2592.0	2558.0	2558.0	2558.0	2577.0	2577.0	2590.0	2590.0	2590.0	2621.0	2621.0	2601.0	2601.0	2601.0	2659.0	2659.0	2649.0	2649.0	2649.0	2645.0	2645.0	2646.0	2646.0	2646.0	2685.0	2685.0	2663.0	2663.0	2663.0	2715.0	2715.0	2659.0	2659.0	2659.0	2716.0	2716.0	2695.0	2695.0	2695.0	2693.0	2693.0	2693.0	2693.0	2693.0	2698.0	2698.0	2718.0	2718.0	2718.0	2681.0	2681.0	2676.0	2676.0	2676.0	2727.0	2727.0	2696.0	2696.0	2696.0	2689.0	2689.0	2726.0	2726.0	2726.0	2725.0	2725.0	2718.0	2718.0	2718.0	2726.0	2726.0	2669.0	2669.0	2669.0	2672.0	2672.0	2683.0	2683.0	2683.0	2660.0	2660.0	2712.0	2712.0	2712.0	2679.0	2679.0	2661.0	2661.0	2661.0	2699.0	2699.0	2656.0	2656.0	2656.0	2649.0	2649.0	2656.0	2656.0	2656.0	2628.0	2628.0	2647.0	2647.0	2647.0	2615.0	2615.0	2606.0	2606.0	2606.0	2612.0	2612.0	2583.0	2583.0	2583.0	2611.0	2611.0	2576.0	2576.0	2576.0	2589.0	2589.0	2565.0	2565.0	2565.0	2590.0	2590.0	2564.0	2564.0	2564.0	2523.0	2523.0	2528.0	2528.0	2528.0	2515.0	2515.0	2513.0	2513.0	2513.0	2496.0	2496.0	2526.0	2526.0	2474.0	2474.0	2474.0	2493.0	2493.0	2479.0	2479.0	2479.0	2476.0	2476.0	2471.0	2471.0	2471.0	2408.0	2408.0	2415.0	2415.0	2415.0	2392.0	2392.0	2406.0	2406.0	2406.0	2410.0	2410.0	2362.0	2362.0	2362.0	2396.0	2396.0	2369.0	2369.0	2369.0	2339.0	2339.0	2305.0	2305.0	2305.0	2303.0	2303.0	2289.0	2289.0	2289.0	2261.0	2261.0	2261.0	2261.0	2261.0	2280.0	2280.0	2233.0	2233.0	2233.0	2241.0	2241.0	2258.0	2258.0	2258.0	2197.0	2197.0	2177.0	2177.0	2177.0	2149.0	2149.0	2196.0	2196.0	2196.0	2148.0	2148.0	2164.0	2164.0	2164.0	2166.0	2166.0	2109.0	2109.0	2109.0	2134.0	2134.0	2099.0	2099.0	2099.0	2081.0	2081.0	2095.0	2095.0	2095.0	2053.0	2053.0	2050.0	2050.0	2050.0	2073.0	2073.0	2018.0	2018.0	2018.0	2064.0	2064.0	2037.0	2037.0	2037.0	2008.0	2008.0	2025.0	2025.0	2025.0	1992.0	1992.0	1998.0	1998.0	1998.0	2025.0	2025.0	1971.0	1971.0	1971.0	1958.0	1958.0	1967.0	1967.0	1967.0	1956.0	1956.0	1970.0	1970.0	1970.0	1950.0	1950.0	1920.0	1920.0	1920.0	1942.0	1942.0	1982.0	1982.0	1982.0	1977.0	1977.0	1973.0	1973.0	1973.0	1935.0	1935.0	1928.0	1928.0	1928.0	1929.0	1929.0	1930.0	1930.0	1930.0	1966.0	1966.0	1921.0	1921.0	1921.0	1919.0	1919.0	1966.0	1966.0	1966.0	1976.0	1976.0	1908.0	1908.0	1908.0	1902.0	1902.0	1965.0	1965.0	1965.0	1902.0	1902.0	1901.0	1901.0	1901.0	1929.0	1929.0	1912.0	1912.0	1912.0	1955.0	1955.0	1916.0	1916.0	1916.0	1916.0	1916.0	1916.0	1916.0	1916.0	1911.0	1911.0	1887.0	1887.0	1887.0	1903.0	1903.0	1905.0	1905.0	1905.0	1921.0	1921.0	1932.0	1932.0	1929.0	1929.0	1929.0	1891.0	1891.0	1898.0	1898.0	1898.0	1908.0	1908.0	1886.0	1886.0	1886.0	1878.0	1878.0	1931.0	1931.0	1931.0	1932.0	1932.0	1885.0	1885.0	1885.0	1890.0	1890.0	1911.0	1911.0	1911.0	1864.0	1864.0	1865.0	1865.0	1865.0	1867.0	1867.0	1883.0	1883.0	1883.0	1844.0	1844.0	1902.0	1902.0	1902.0	1877.0	1877.0	1844.0	1844.0	1844.0	1893.0	1893.0	1834.0	1834.0	1834.0	1830.0	1830.0	1831.0	1831.0	1831.0	1823.0	1823.0	1883.0	1883.0	1883.0	1863.0	1863.0	1836.0	1836.0	1836.0	1873.0	1873.0	1874.0	1874.0	1874.0	1804.0	1804.0	1793.0	1793.0	1793.0	1790.0	1790.0	1849.0	1849.0	1849.0	1836.0	1836.0	1839.0	1839.0	1839.0	1836.0	1836.0	1845.0	1845.0	1845.0	1817.0	1817.0	1801.0	1801.0	1801.0	1764.0	1764.0	1757.0	1757.0	1757.0	1778.0	1778.0	1776.0	1776.0	1776.0	1781.0	1781.0	1788.0	1788.0	1788.0	1756.0	1756.0	1743.0	1743.0	1743.0	1750.0	1750.0	1791.0	1791.0	1791.0	1771.0	1771.0	1792.0	1792.0	1792.0	1779.0	1779.0	1763.0	1763.0	1763.0	1775.0	1775.0	1732.0	1732.0	1732.0	1729.0	1729.0	1766.0	1766.0	1766.0	1758.0	1758.0	1762.0	1762.0	1762.0	1695.0	1695.0	1683.0	1683.0	1683.0	1686.0	1686.0	1732.0	1732.0	1732.0	1693.0	1693.0	1727.0	1727.0	1727.0	1718.0	1718.0	1675.0	1675.0	1675.0	1719.0	1719.0	1715.0	1715.0	1715.0	1699.0	1699.0	1688.0	1688.0	1688.0	1716.0	1716.0	1704.0	1704.0	1704.0	1717.0	1717.0	1697.0	1697.0	1697.0	1688.0	1688.0	1715.0	1715.0	1715.0	1643.0	1643.0	1699.0	1699.0	1699.0	1656.0	1656.0	1702.0	1702.0	1639.0	1639.0	1639.0	1681.0	1681.0	1689.0	1689.0	1689.0	1636.0	1636.0	1649.0	1649.0	1649.0	1668.0	1668.0	1638.0	1638.0	1638.0	1682.0	1682.0	1693.0	1693.0	1693.0	1635.0	1635.0	1677.0	1677.0	1677.0	1660.0	1660.0	1622.0	1622.0	1622.0	1622.0	1622.0	1635.0	1635.0	1635.0	1638.0	1638.0	1641.0	1641.0	1641.0	1665.0	1665.0	1612.0	1612.0	1612.0	1667.0	1667.0	1669.0	1669.0	1669.0	1662.0	1662.0	1620.0	1620.0	1620.0	1668.0	1668.0	1650.0	1650.0	1650.0	1630.0	1630.0	1620.0	1620.0	1620.0	1619.0	1619.0	1673.0	1673.0	1673.0	1696.0	1696.0	1651.0	1651.0	1651.0	1668.0	1668.0	1681.0	1681.0	1681.0	1745.0	1745.0	1707.0	1707.0	1707.0	1730.0	1730.0	1779.0	1779.0	1779.0	1769.0	1769.0	1810.0	1810.0	1810.0	1819.0	1819.0	1865.0	1865.0	1865.0	1887.0	1887.0	1905.0	1905.0	1905.0	1919.0	1919.0	1973.0	1973.0	1973.0	2017.0	2017.0	2021.0	2021.0	2021.0	2083.0	2083.0	2105.0	2105.0	2105.0	2112.0	2112.0	2122.0	2122.0	2122.0	2154.0	2154.0	2198.0	2198.0	2198.0	2264.0	2264.0	2251.0	2251.0	2251.0	2320.0	2320.0	2286.0	2286.0	2286.0	2362.0	2362.0	2335.0	2335.0	2335.0	2395.0	2395.0	2419.0	2419.0	2419.0	2402.0	2402.0	2453.0	2453.0	2453.0	2456.0	2456.0	2497.0	2497.0	2497.0	2519.0	2519.0	2548.0	2548.0	2548.0	2539.0	2539.0	2554.0	2554.0	2554.0	2549.0	2549.0	2549.0	2549.0	2549.0	2578.0	2578.0	2618.0	2618.0	2618.0	2633.0	2633.0	2648.0	2648.0	2648.0	2611.0	2611.0	2629.0	2629.0	2629.0	2608.0	2608.0	2669.0	2669.0	2669.0	2643.0	2643.0	2660.0	2660.0	2639.0	2639.0	2639.0	2650.0	2650.0	2639.0	2639.0	2639.0	2650.0	2650.0	2692.0	2692.0	2692.0	2652.0	2652.0	2700.0	2700.0	2700.0	2672.0	2672.0	2658.0	2658.0	2658.0	2671.0	2671.0	2661.0	2661.0	2661.0	2664.0	2664.0	2684.0	2684.0	2684.0	2670.0	2670.0	2630.0	2630.0	2630.0	2688.0	2688.0	2659.0	2659.0	2659.0	2628.0	2628.0	2628.0	2628.0	2628.0	2656.0	2656.0	2646.0	2646.0	2646.0	2643.0	2643.0	2604.0	2604.0	2604.0	2584.0	2584.0	2623.0	2623.0	2623.0	2579.0	2579.0	2628.0	2628.0	2628.0	2599.0	2599.0	2572.0	2572.0	2572.0	2544.0	2544.0	2581.0	2581.0	2581.0	2568.0	2568.0	2524.0	2524.0	2524.0	2509.0	2509.0	2552.0	2552.0	2552.0	2484.0	2484.0	2518.0	2518.0	2518.0	2500.0	2500.0	2512.0	2512.0	2512.0	2455.0	2455.0	2489.0	2489.0	2489.0	2486.0	2486.0	2447.0	2447.0	2447.0	2447.0	2447.0	2422.0	2422.0	2422.0	2395.0	2395.0	2413.0	2413.0	2413.0	2387.0	2387.0	2345.0	2345.0	2345.0	2412.0	2412.0	2348.0	2348.0	2348.0	2355.0	2355.0	2289.0	2289.0	2289.0	2309.0	2309.0	2287.0	2287.0	2287.0	2310.0	2310.0	2252.0	2252.0	2252.0	2254.0	2254.0	2242.0	2242.0	2242.0	2262.0	2262.0	2210.0	2210.0	2210.0	2205.0	2205.0	2228.0	2228.0	2228.0	2203.0	2203.0	2193.0	2193.0	2193.0	2168.0	2168.0	2152.0	2152.0	2152.0	2143.0	2143.0	2085.0	2085.0	2085.0	2101.0	2101.0	2067.0	2067.0	2067.0	2111.0	2111.0	2081.0	2081.0	2081.0	2094.0	2094.0	2029.0	2029.0	2029.0	2019.0	2019.0	2043.0	2043.0	2043.0	2050.0	2050.0	1980.0	1980.0	1980.0	1995.0	1995.0	2021.0	2021.0	2021.0	1981.0	1981.0	2007.0	2007.0	1956.0	1956.0	1956.0	2016.0	2016.0	1987.0	1987.0	1987.0	1979.0	1979.0	1947.0	1947.0	1947.0	1982.0	1982.0	1942.0	1942.0	1942.0	1939.0	1939.0	1921.0	1921.0	1921.0	1972.0	1972.0	1954.0	1954.0	1954.0	1967.0	1967.0	1955.0	1955.0	1955.0	1936.0	1936.0	1963.0	1963.0	1963.0	1956.0	1956.0	1924.0	1924.0	1924.0	1917.0	1917.0	1915.0	1915.0	1915.0	1919.0	1919.0	1950.0	1950.0	1950.0	1966.0	1966.0	1925.0	1925.0	1925.0	1920.0	1920.0	1924.0	1924.0	1924.0	1922.0	1922.0	1907.0	1907.0	1907.0	1954.0	1954.0	1944.0	1944.0	1944.0	1915.0	1915.0	1956.0	1956.0	1956.0	1955.0	1955.0	1961.0	1961.0	1961.0	1913.0	1913.0	1910.0	1910.0	1910.0	1901.0	1901.0	1909.0	1909.0	1909.0	1962.0	1962.0	1907.0	1907.0	1907.0	1918.0	1918.0	1936.0	1936.0	1936.0	1895.0	1895.0	1932.0	1932.0	1932.0	1900.0	1900.0	1916.0	1916.0	1916.0	1900.0	1900.0	1932.0	1932.0	1932.0	1942.0	1942.0	1914.0	1914.0	1914.0	1906.0	1906.0	1891.0	1891.0	1891.0	1907.0	1907.0	1890.0	1890.0	1890.0	1907.0	1907.0	1893.0	1893.0	1893.0	1880.0	1880.0	1927.0	1927.0	1927.0	1903.0	1903.0	1906.0	1906.0	1906.0	1928.0	1928.0	1898.0	1898.0	1898.0	1896.0	1896.0	1870.0	1870.0	1870.0	1862.0	1862.0	1883.0	1883.0	1883.0	1907.0	1907.0	1896.0	1896.0	1896.0	1896.0	1896.0	1897.0	1897.0	1897.0	1879.0	1879.0	1877.0	1877.0	1877.0	1892.0	1892.0	1844.0	1844.0	1844.0	1840.0	1840.0	1832.0	1832.0	1832.0	1872.0	1872.0	1878.0	1878.0	1878.0	1842.0	1842.0	1812.0	1812.0	1812.0	1837.0	1837.0	1796.0	1796.0	1815.0	1815.0	1815.0	1817.0	1817.0	1796.0	1796.0	1796.0	1838.0	1838.0	1776.0	1776.0	1776.0	1816.0	1816.0	1825.0	1825.0	1825.0	1785.0	1785.0	1755.0	1755.0	1755.0	1816.0	1816.0	1799.0	1799.0	1799.0	1793.0	1793.0	1757.0	1757.0	1757.0	1757.0	1757.0	1790.0	1790.0	1790.0	1803.0	1803.0	1789.0	1789.0	1789.0	1751.0	1751.0	1763.0	1763.0	1763.0	1735.0	1735.0	1723.0	1723.0	1723.0	1739.0	1739.0	1717.0	1717.0	1717.0	1735.0	1735.0	1725.0	1725.0	1725.0	1701.0	1701.0	1717.0	1717.0	1717.0	1708.0	1708.0	1730.0	1730.0	1730.0	1692.0	1692.0	1725.0	1725.0	1725.0	1721.0	1721.0	1753.0	1753.0	1753.0	1718.0	1718.0	1708.0	1708.0	1708.0	1714.0	1714.0	1672.0	1672.0	1672.0	1699.0	1699.0	1686.0	1686.0	1686.0	1732.0	1732.0	1664.0	1664.0	1664.0	1711.0	1711.0	1678.0	1678.0	1678.0	1667.0	1667.0	1661.0	1661.0	1661.0	1676.0	1676.0	1673.0	1673.0	1673.0	1682.0	1682.0	1673.0	1673.0	1673.0	1657.0	1657.0	1654.0	1654.0	1654.0	1681.0	1681.0	1663.0	1663.0	1663.0	1666.0	1666.0	1688.0	1688.0	1688.0	1694.0	1694.0	1672.0	1672.0	1672.0	1681.0	1681.0	1635.0	1635.0	1635.0	1698.0	1698.0	1672.0	1672.0	1672.0	1692.0	1692.0	1674.0	1674.0	1674.0	1667.0	1667.0	1663.0	1663.0	1663.0	1629.0	1629.0	1649.0	1649.0	1649.0	1639.0	1639.0	1656.0	1656.0	1656.0	1626.0	1626.0	1629.0	1629.0	1629.0	1688.0	1688.0	1644.0	1644.0	1644.0	1694.0	1694.0	1688.0	1688.0	1688.0	1704.0	1704.0	1690.0	1690.0	1690.0	1654.0	1654.0	1669.0	1669.0	1669.0	1736.0	1736.0	1705.0	1705.0	1705.0	1748.0	1748.0	1766.0	1766.0	1735.0	1735.0	1735.0	1776.0	1776.0	1782.0	1782.0	1782.0	1804.0	1804.0	1839.0	1839.0	1839.0	1893.0	1893.0	1919.0	1919.0	1919.0	1897.0	1897.0	1932.0	1932.0	1932.0	1967.0	1967.0	2032.0	2032.0	2032.0	2002.0	2002.0	2083.0	2083.0	2083.0	2078.0	2078.0	2102.0	2102.0	2102.0	2125.0	2125.0	2192.0	2192.0	2192.0	2226.0	2226.0	2208.0	2208.0	2208.0	2240.0	2240.0	2246.0	2246.0	2246.0	2319.0	2319.0	2329.0	2329.0	2329.0	2348.0	2348.0	2379.0	2379.0	2379.0	2365.0	2365.0	2381.0	2381.0	2381.0	2439.0	2439.0	2422.0	2422.0	2422.0	2440.0	2440.0	2491.0	2491.0	2491.0	2466.0	2466.0	2505.0	2505.0	2505.0	2547.0	2547.0	2542.0	2542.0	2542.0	2561.0	2561.0	2578.0	2578.0	2578.0	2564.0	2564.0	2561.0	2561.0	2561.0	2555.0	2555.0	2620.0	2620.0	2620.0	2591.0	2591.0	2611.0	2611.0	2611.0	2595.0	2595.0	2624.0	2624.0	2624.0	2629.0	