1820.0	1820.0	1820.0	1816.0	1816.0	1839.0	1839.0	1839.0	1771.0	1771.0	1811.0	1811.0	1811.0	1777.0	1777.0	1778.0	1778.0	1778.0	1824.0	1824.0	1807.0	1807.0	1807.0	1781.0	1781.0	1812.0	1812.0	1812.0	1766.0	1766.0	1766.0	1766.0	1766.0	1784.0	1784.0	1794.0	1794.0	1794.0	1754.0	1754.0	1799.0	1799.0	1799.0	1762.0	1762.0	1747.0	1747.0	1747.0	1760.0	1760.0	1763.0	1763.0	1763.0	1755.0	1755.0	1751.0	1751.0	1751.0	1801.0	1801.0	1777.0	1777.0	1777.0	1761.0	1761.0	1798.0	1798.0	1785.0	1785.0	1785.0	1754.0	1754.0	1768.0	1768.0	1768.0	1735.0	1735.0	1781.0	1781.0	1781.0	1743.0	1743.0	1774.0	1774.0	1774.0	1771.0	1771.0	1732.0	1732.0	1732.0	1775.0	1775.0	1722.0	1722.0	1722.0	1731.0	1731.0	1767.0	1767.0	1767.0	1747.0	1747.0	1718.0	1718.0	1718.0	1721.0	1721.0	1755.0	1755.0	1755.0	1737.0	1737.0	1729.0	1729.0	1729.0	1762.0	1762.0	1711.0	1711.0	1711.0	1721.0	1721.0	1712.0	1712.0	1712.0	1712.0	1712.0	1762.0	1762.0	1762.0	1713.0	1713.0	1745.0	1745.0	1745.0	1699.0	1699.0	1712.0	1712.0	1712.0	1751.0	1751.0	1706.0	1706.0	1706.0	1708.0	1708.0	1706.0	1706.0	1706.0	1703.0	1703.0	1722.0	1722.0	1722.0	1716.0	1716.0	1705.0	1705.0	1705.0	1760.0	1760.0	1720.0	1720.0	1720.0	1704.0	1704.0	1712.0	1712.0	1712.0	1701.0	1701.0	1753.0	1753.0	1753.0	1742.0	1742.0	1748.0	1748.0	1748.0	1721.0	1721.0	1767.0	1767.0	1767.0	1704.0	1704.0	1713.0	1713.0	1713.0	1724.0	1724.0	1753.0	1753.0	1753.0	1715.0	1715.0	1729.0	1729.0	1729.0	1773.0	1773.0	1733.0	1733.0	1733.0	1763.0	1763.0	1730.0	1730.0	1730.0	1706.0	1706.0	1710.0	1710.0	1710.0	1697.0	1697.0	1742.0	1742.0	1742.0	1713.0	1713.0	1744.0	1744.0	1744.0	1747.0	1747.0	1762.0	1762.0	1762.0	1756.0	1756.0	1738.0	1738.0	1738.0	1738.0	1738.0	1727.0	1727.0	1727.0	1698.0	1698.0	1750.0	1750.0	1750.0	1693.0	1693.0	1745.0	1745.0	1745.0	1732.0	1732.0	1747.0	1747.0	1747.0	1710.0	1710.0	1697.0	1697.0	1697.0	1725.0	1725.0	1739.0	1739.0	1739.0	1691.0	1691.0	1729.0	1729.0	1734.0	1734.0	1734.0	1737.0	1737.0	1742.0	1742.0	1742.0	1739.0	1739.0	1727.0	1727.0	1727.0	1740.0	1740.0	1679.0	1679.0	1679.0	1688.0	1688.0	1681.0	1681.0	1681.0	1734.0	1734.0	1699.0	1699.0	1699.0	1715.0	1715.0	1710.0	1710.0	1710.0	1698.0	1698.0	1725.0	1725.0	1725.0	1702.0	1702.0	1692.0	1692.0	1692.0	1703.0	1703.0	1711.0	1711.0	1711.0	1675.0	1675.0	1678.0	1678.0	1678.0	1702.0	1702.0	1689.0	1689.0	1689.0	1719.0	1719.0	1679.0	1679.0	1679.0	1722.0	1722.0	1709.0	1709.0	1709.0	1732.0	1732.0	1726.0	1726.0	1726.0	1730.0	1730.0	1745.0	1745.0	1745.0	1794.0	1794.0	1801.0	1801.0	1801.0	1804.0	1804.0	1817.0	1817.0	1817.0	1825.0	1825.0	1903.0	1903.0	1903.0	1871.0	1871.0	1940.0	1940.0	1940.0	1957.0	1957.0	1970.0	1970.0	1970.0	1984.0	1984.0	1976.0	1976.0	1976.0	2040.0	2040.0	2026.0	2026.0	2026.0	2038.0	2038.0	2069.0	2069.0	2069.0	2079.0	2079.0	2138.0	2138.0	2138.0	2106.0	2106.0	2183.0	2183.0	2183.0	2171.0	2171.0	2169.0	2169.0	2169.0	2218.0	2218.0	2206.0	2206.0	2206.0	2262.0	2262.0	2230.0	2230.0	2230.0	2278.0	2278.0	2258.0	2258.0	2258.0	2266.0	2266.0	2274.0	2274.0	2274.0	2308.0	2308.0	2339.0	2339.0	2339.0	2302.0	2302.0	2373.0	2373.0	2373.0	2372.0	2372.0	2364.0	2364.0	2364.0	2378.0	2378.0	2390.0	2390.0	2390.0	2386.0	2386.0	2417.0	2417.0	2417.0	2404.0	2404.0	2396.0	2396.0	2396.0	2441.0	2441.0	2462.0	2462.0	2462.0	2448.0	2448.0	2419.0	2419.0	2419.0	2449.0	2449.0	2466.0	2466.0	2466.0	2472.0	2472.0	2467.0	2467.0	2451.0	2451.0	2451.0	2492.0	2492.0	2481.0	2481.0	2481.0	2475.0	2475.0	2509.0	2509.0	2509.0	2534.0	2534.0	2500.0	2500.0	2500.0	2552.0	2552.0	2526.0	2526.0	2526.0	2550.0	2550.0	2537.0	2537.0	2537.0	2505.0	2505.0	2563.0	2563.0	2563.0	2545.0	2545.0	2571.0	2571.0	2571.0	2545.0	2545.0	2566.0	2566.0	2566.0	2558.0	2558.0	2536.0	2536.0	2536.0	2559.0	2559.0	2600.0	2600.0	2600.0	2558.0	2558.0	2595.0	2595.0	2595.0	2588.0	2588.0	2568.0	2568.0	2568.0	2575.0	2575.0	2608.0	2608.0	2608.0	2600.0	2600.0	2627.0	2627.0	2627.0	2573.0	2573.0	2620.0	2620.0	2620.0	2629.0	2629.0	2606.0	2606.0	2606.0	2598.0	2598.0	2588.0	2588.0	2588.0	2595.0	2595.0	2628.0	2628.0	2628.0	2629.0	2629.0	2597.0	2597.0	2597.0	2601.0	2601.0	2624.0	2624.0	2624.0	2605.0	2605.0	2598.0	2598.0	2598.0	2600.0	2600.0	2603.0	2603.0	2603.0	2632.0	2632.0	2598.0	2598.0	2598.0	2629.0	2629.0	2585.0	2585.0	2585.0	2580.0	2580.0	2603.0	2603.0	2603.0	2603.0	2603.0	2620.0	2620.0	2620.0	2593.0	2593.0	2594.0	2594.0	2594.0	2594.0	2594.0	2611.0	2611.0	2611.0	2605.0	2605.0	2588.0	2588.0	2588.0	2582.0	2582.0	2559.0	2559.0	2559.0	2574.0	2574.0	2528.0	2528.0	2528.0	2584.0	2584.0	2545.0	2545.0	2545.0	2519.0	2519.0	2535.0	2535.0	2535.0	2501.0	2501.0	2516.0	2516.0	2516.0	2515.0	2515.0	2492.0	2492.0	2492.0	2532.0	2532.0	2468.0	2468.0	2468.0	2454.0	2454.0	2436.0	2436.0	2436.0	2441.0	2441.0	2429.0	2429.0	2429.0	2454.0	2454.0	2450.0	2450.0	2450.0	2448.0	2448.0	2399.0	2399.0	2399.0	2425.0	2425.0	2411.0	2411.0	2385.0	2385.0	2385.0	2401.0	2401.0	2369.0	2369.0	2369.0	2330.0	2330.0	2333.0	2333.0	2333.0	2343.0	2343.0	2321.0	2321.0	2321.0	2329.0	2329.0	2311.0	2311.0	2311.0	2318.0	2318.0	2302.0	2302.0	2302.0	2261.0	2261.0	2273.0	2273.0	2273.0	2272.0	2272.0	2294.0	2294.0	2294.0	2254.0	2254.0	2285.0	2285.0	2285.0	2267.0	2267.0	2241.0	2241.0	2241.0	2270.0	2270.0	2242.0	2242.0	2242.0	2215.0	2215.0	2206.0	2206.0	2206.0	2245.0	2245.0	2216.0	2216.0	2216.0	2223.0	2223.0	2192.0	2192.0	2192.0	2203.0	2203.0	2241.0	2241.0	2241.0	2177.0	2177.0	2177.0	2177.0	2177.0	2195.0	2195.0	2179.0	2179.0	2179.0	2217.0	2217.0	2191.0	2191.0	2191.0	2182.0	2182.0	2195.0	2195.0	2195.0	2183.0	2183.0	2150.0	2150.0	2150.0	2173.0	2173.0	2183.0	2183.0	2183.0	2151.0	2151.0	2179.0	2179.0	2179.0	2153.0	2153.0	2160.0	2160.0	2160.0	2104.0	2104.0	2138.0	2138.0	2138.0	2136.0	2136.0	2095.0	2095.0	2095.0	2091.0	2091.0	2137.0	2137.0	2137.0	2115.0	2115.0	2122.0	2122.0	2122.0	2080.0	2080.0	2117.0	2117.0	2117.0	2100.0	2100.0	2086.0	2086.0	2086.0	2076.0	2076.0	2097.0	2097.0	2097.0	2080.0	2080.0	2047.0	2047.0	2047.0	2083.0	2083.0	2083.0	2083.0	2083.0	2041.0	2041.0	2075.0	2075.0	2075.0	2041.0	2041.0	2053.0	2053.0	2053.0	2045.0	2045.0	2016.0	2016.0	2016.0	2025.0	2025.0	2067.0	2067.0	2067.0	2041.0	2041.0	2011.0	2011.0	2011.0	1999.0	1999.0	2043.0	2043.0	2043.0	2035.0	2035.0	1989.0	1989.0	1989.0	2028.0	2028.0	2026.0	2026.0	2026.0	2023.0	2023.0	2001.0	2001.0	2031.0	2031.0	2031.0	1977.0	1977.0	1983.0	1983.0	1983.0	1963.0	1963.0	1952.0	1952.0	1952.0	1958.0	1958.0	2001.0	2001.0	2001.0	1962.0	1962.0	1993.0	1993.0	1993.0	1947.0	1947.0	1989.0	1989.0	1989.0	1955.0	1955.0	1937.0	1937.0	1937.0	1934.0	1934.0	1915.0	1915.0	1915.0	1933.0	1933.0	1907.0	1907.0	1907.0	1924.0	1924.0	1916.0	1916.0	1916.0	1935.0	1935.0	1903.0	1903.0	1903.0	1912.0	1912.0	1924.0	1924.0	1924.0	1917.0	1917.0	1911.0	1911.0	1911.0	1908.0	1908.0	1882.0	1882.0	1882.0	1933.0	1933.0	1919.0	1919.0	1919.0	1915.0	1915.0	1891.0	1891.0	1891.0	1875.0	1875.0	1853.0	1853.0	1853.0	1874.0	1874.0	1876.0	1876.0	1876.0	1868.0	1868.0	1858.0	1858.0	1858.0	1896.0	1896.0	1882.0	1882.0	1882.0	1852.0	1852.0	1894.0	1894.0	1894.0	1852.0	1852.0	1834.0	1834.0	1834.0	1854.0	1854.0	1830.0	1830.0	1830.0	1873.0	1873.0	1840.0	1840.0	1840.0	1878.0	1878.0	1848.0	1848.0	1848.0	1819.0	1819.0	1837.0	1837.0	1837.0	1857.0	1857.0	1851.0	1851.0	1851.0	1821.0	1821.0	1819.0	1819.0	1819.0	1843.0	1843.0	1852.0	1852.0	1852.0	1806.0	1806.0	1839.0	1839.0	1839.0	1799.0	1799.0	1855.0	1855.0	1855.0	1846.0	1846.0	1833.0	1833.0	1833.0	1851.0	1851.0	1844.0	1844.0	1844.0	1807.0	1807.0	1793.0	1793.0	1793.0	1845.0	1845.0	1798.0	1798.0	1798.0	1793.0	1793.0	1820.0	1820.0	1820.0	1822.0	1822.0	1806.0	1806.0	1806.0	1826.0	1826.0	1777.0	1777.0	1777.0	1775.0	1775.0	1807.0	1807.0	1807.0	1810.0	1810.0	1825.0	1825.0	1825.0	1811.0	1811.0	1819.0	1819.0	1817.0	1817.0	1817.0	1776.0	1776.0	1767.0	1767.0	1767.0	1792.0	1792.0	1780.0	1780.0	1780.0	1815.0	1815.0	1773.0	1773.0	1773.0	1783.0	1783.0	1787.0	1787.0	1787.0	1769.0	1769.0	1807.0	1807.0	1807.0	1786.0	1786.0	1797.0	1797.0	1797.0	1793.0	1793.0	1792.0	1792.0	1792.0	1756.0	1756.0	1750.0	1750.0	1750.0	1770.0	1770.0	1770.0	1770.0	1770.0	1793.0	1793.0	1747.0	1747.0	1747.0	1779.0	1779.0	1758.0	1758.0	1758.0	1792.0	1792.0	1765.0	1765.0	1765.0	1734.0	1734.0	1743.0	1743.0	1743.0	1752.0	1752.0	1782.0	1782.0	1782.0	1746.0	1746.0	1738.0	1738.0	1738.0	1775.0	1775.0	1778.0	1778.0	1778.0	1774.0	1774.0	1781.0	1781.0	1781.0	1737.0	1737.0	1716.0	1716.0	1716.0	1719.0	1719.0	1719.0	1719.0	1719.0	1777.0	1777.0	1726.0	1726.0	1726.0	1714.0	1714.0	1725.0	1725.0	1725.0	1738.0	1738.0	1719.0	1719.0	1719.0	1735.0	1735.0	1774.0	1774.0	1774.0	1728.0	1728.0	1744.0	1744.0	1744.0	1736.0	1736.0	1721.0	1721.0	1721.0	1756.0	1756.0	1768.0	1768.0	1768.0	1727.0	1727.0	1727.0	1727.0	1727.0	1740.0	1740.0	1780.0	1780.0	1780.0	1758.0	1758.0	1735.0	1735.0	1735.0	1718.0	1718.0	1769.0	1769.0	1769.0	1773.0	1773.0	1703.0	1703.0	1703.0	1751.0	1751.0	1766.0	1766.0	1766.0	1710.0	1710.0	1708.0	1708.0	1708.0	1718.0	1718.0	1708.0	1708.0	1708.0	1721.0	1721.0	1766.0	1766.0	1766.0	1707.0	1707.0	1707.0	1707.0	1707.0	1720.0	1720.0	1764.0	1764.0	1764.0	1726.0	1726.0	1751.0	1751.0	1751.0	1717.0	1717.0	1747.0	1747.0	1747.0	1755.0	1755.0	1740.0	1740.0	1740.0	1706.0	1706.0	1736.0	1736.0	1721.0	1721.0	1721.0	1723.0	1723.0	1745.0	1745.0	1745.0	1706.0	1706.0	1763.0	1763.0	1763.0	1747.0	1747.0	1721.0	1721.0	1721.0	1694.0	1694.0	1707.0	1707.0	1707.0	1738.0	1738.0	1755.0	1755.0	1755.0	1754.0	1754.0	1710.0	1710.0	1710.0	1693.0	1693.0	1707.0	1707.0	1707.0	1695.0	1695.0	1733.0	1733.0	1733.0	1691.0	1691.0	1722.0	1722.0	1722.0	1704.0	1704.0	1728.0	1728.0	1728.0	1702.0	1702.0	1670.0	1670.0	1670.0	1690.0	1690.0	1694.0	1694.0	1694.0	1698.0	1698.0	1710.0	1710.0	1710.0	1664.0	1664.0	1714.0	1714.0	1714.0	1734.0	1734.0	1722.0	1722.0	1722.0	1692.0	1692.0	1696.0	1696.0	1696.0	1722.0	1722.0	1664.0	1664.0	1664.0	1675.0	1675.0	1673.0	1673.0	1673.0	1717.0	1717.0	1677.0	1677.0	1677.0	1678.0	1678.0	1743.0	1743.0	1743.0	1700.0	1700.0	1722.0	1722.0	1722.0	1759.0	1759.0	1773.0	1773.0	1773.0	1729.0	1729.0	1794.0	1794.0	1794.0	1785.0	1785.0	1783.0	1783.0	1783.0	1821.0	1821.0	1813.0	1813.0	1813.0	1871.0	1871.0	1891.0	1891.0	1891.0	1895.0	1895.0	1901.0	1901.0	1901.0	1919.0	1919.0	1969.0	1969.0	1969.0	1982.0	1982.0	1996.0	1996.0	1996.0	2043.0	2043.0	2073.0	2073.0	2073.0	2053.0	2053.0	2057.0	2057.0	2057.0	2105.0	2105.0	2124.0	2124.0	2124.0	2105.0	2105.0	2147.0	2147.0	2147.0	2189.0	2189.0	2172.0	2172.0	2172.0	2197.0	2197.0	2185.0	2185.0	2185.0	2197.0	2197.0	2228.0	2228.0	2228.0	2216.0	2216.0	2283.0	2283.0	2283.0	2266.0	2266.0	2251.0	2251.0	2251.0	2265.0	2265.0	2323.0	2323.0	2323.0	2336.0	2336.0	2304.0	2304.0	2308.0	2308.0	2308.0	2324.0	2324.0	2355.0	2355.0	2355.0	2359.0	2359.0	2381.0	2381.0	2381.0	2368.0	2368.0	2371.0	2371.0	2371.0	2403.0	2403.0	2391.0	2391.0	2391.0	2430.0	2430.0	2444.0	2444.0	2444.0	2450.0	2450.0	2442.0	2442.0	2442.0	2413.0	2413.0	2476.0	2476.0	2476.0	2450.0	2450.0	2472.0	2472.0	2472.0	2476.0	2476.0	2454.0	2454.0	2454.0	2499.0	2499.0	2519.0	2519.0	2519.0	2500.0	2500.0	2503.0	2503.0	2503.0	2519.0	2519.0	2512.0	2512.0	2512.0	2533.0	2533.0	2524.0	2524.0	2524.0	2544.0	2544.0	2523.0	2523.0	2523.0	2518.0	2518.0	2549.0	2549.0	2549.0	2520.0	2520.0	2522.0	2522.0	2522.0	2542.0	2542.0	2516.0	2516.0	2516.0	2520.0	2520.0	2561.0	2561.0	2561.0	2567.0	2567.0	2529.0	2529.0	2529.0	2538.0	2538.0	2572.0	2572.0	2572.0	2544.0	2544.0	2577.0	2577.0	2577.0	2575.0	2575.0	2546.0	2546.0	2546.0	2574.0	2574.0	2565.0	2565.0	2565.0	2580.0	2580.0	2559.0	2559.0	2559.0	2558.0	2558.0	2595.0	2595.0	2595.0	2552.0	2552.0	2589.0	2589.0	2589.0	2588.0	2588.0	2572.0	2572.0	2572.0	2590.0	2590.0	2597.0	2597.0	2597.0	2580.0	2580.0	2573.0	2573.0	2573.0	2579.0	2579.0	2559.0	2559.0	2559.0	2583.0	2583.0	2530.0	2530.0	2530.0	2576.0	2576.0	2557.0	2557.0	2557.0	2583.0	2583.0	2540.0	2540.0	2540.0	2530.0	2530.0	2561.0	2561.0	2561.0	2555.0	2555.0	2515.0	2515.0	2515.0	2513.0	2513.0	2553.0	2553.0	2553.0	2528.0	2528.0	2518.0	2518.0	2518.0	2503.0	2503.0	2490.0	2490.0	2490.0	2521.0	2521.0	2482.0	2482.0	2482.0	2478.0	2478.0	2511.0	2511.0	2511.0	2494.0	2494.0	2489.0	2489.0	2459.0	2459.0	2459.0	2464.0	2464.0	2428.0	2428.0	2428.0	2465.0	2465.0	2407.0	2407.0	2407.0	2401.0	2401.0	2431.0	2431.0	2431.0	2394.0	2394.0	2379.0	2379.0	2379.0	2395.0	2395.0	2406.0	2406.0	2406.0	2350.0	2350.0	2369.0	2369.0	2369.0	2319.0	2319.0	2363.0	2363.0	2363.0	2328.0	2328.0	2339.0	2339.0	2339.0	2283.0	2283.0	2302.0	2302.0	2302.0	2299.0	2299.0	2279.0	2279.0	2279.0	2288.0	2288.0	2242.0	2242.0	2242.0	2259.0	2259.0	2235.0	2235.0	2235.0	2224.0	2224.0	2212.0	2212.0	2212.0	2213.0	2213.0	2194.0	2194.0	2194.0	2215.0	2215.0	2193.0	2193.0	2193.0	2187.0	2187.0	2187.0	2187.0	2187.0	2181.0	2181.0	2175.0	2175.0	2175.0	2154.0	2154.0	2168.0	2168.0	2168.0	2155.0	2155.0	2196.0	2196.0	2196.0	2144.0	2144.0	2179.0	2179.0	2179.0	2151.0	2151.0	2135.0	2135.0	2135.0	2171.0	2171.0	2127.0	2127.0	2127.0	2155.0	2155.0	2142.0	2142.0	2142.0	2101.0	2101.0	2105.0	2105.0	2105.0	2147.0	2147.0	2125.0	2125.0	2125.0	2138.0	2138.0	2116.0	2116.0	2116.0	2126.0	2126.0	2111.0	2111.0	2111.0	2070.0	2070.0	2117.0	2117.0	2117.0	2067.0	2067.0	2053.0	2053.0	2053.0	2048.0	2048.0	2099.0	2099.0	2099.0	2086.0	2086.0	2063.0	2063.0	2063.0	2052.0	2052.0	2029.0	2029.0	2029.0	2080.0	2080.0	2019.0	2019.0	2019.0	2047.0	2047.0	2047.0	2047.0	2047.0	2050.0	2050.0	2067.0	2067.0	2067.0	2032.0	2032.0	2016.0	2016.0	2016.0	2013.0	2013.0	2051.0	2051.0	2051.0	1992.0	1992.0	2027.0	2027.0	2027.0	2003.0	2003.0	1985.0	1985.0	1985.0	1977.0	1977.0	1991.0	1991.0	2004.0	2004.0	2004.0	2006.0	2006.0	1973.0	1973.0	1973.0	1958.0	1958.0	1980.0	1980.0	1980.0	1996.0	1996.0	2002.0	2002.0	2002.0	1987.0	1987.0	1965.0	1965.0	1965.0	1938.0	1938.0	1939.0	1939.0	1939.0	1926.0	1926.0	1927.0	1927.0	1927.0	1915.0	1915.0	1919.0	1919.0	1919.0	1915.0	1915.0	1931.0	1931.0	1931.0	1917.0	1917.0	1894.0	1894.0	1894.0	1943.0	1943.0	1932.0	1932.0	1932.0	1946.0	1946.0	1894.0	1894.0	1894.0	1894.0	1894.0	1900.0	1900.0	1900.0	1937.0	1937.0	1907.0	1907.0	1907.0	1911.0	1911.0	1888.0	1888.0	1888.0	1913.0	1913.0	1904.0	1904.0	1904.0	1922.0	1922.0	1901.0	1901.0	1901.0	1859.0	1859.0	1846.0	1846.0	1846.0	1895.0	1895.0	1858.0	1858.0	1858.0	1852.0	1852.0	1835.0	1835.0	1835.0	1891.0	1891.0	1891.0	1891.0	1891.0	1861.0	1861.0	1838.0	1838.0	1838.0	1853.0	1853.0	1832.0	1832.0	1832.0	1861.0	1861.0	1883.0	1883.0	1883.0	1871.0	1871.0	1828.0	1828.0	1828.0	1869.0	1869.0	1831.0	1831.0	1831.0	1803.0	1803.0	1855.0	1855.0	1855.0	1824.0	1824.0	1839.0	1839.0	1839.0	1809.0	1809.0	1849.0	1849.0	1849.0	1809.0	1809.0	1853.0	1853.0	1853.0	1809.0	1809.0	1785.0	1785.0	1785.0	1791.0	1791.0	1835.0	1835.0	1835.0	1794.0	1794.0	1792.0	1792.0	1792.0	1819.0	1819.0	1772.0	1772.0	1772.0	1791.0	1791.0	1822.0	1822.0	1822.0	1774.0	1774.0	1809.0	1809.0	1809.0	1766.0	1766.0	1815.0	1815.0	1815.0	1773.0	1773.0	1797.0	1797.0	1797.0	1773.0	1773.0	1798.0	1798.0	1798.0	1787.0	1787.0	1791.0	1791.0	1791.0	1772.0	1772.0	