1866.0	1866.0	1866.0	1939.0	1939.0	1853.0	1853.0	1853.0	1876.0	1876.0	1886.0	1886.0	1909.0	1909.0	1909.0	1911.0	1911.0	1917.0	1917.0	1917.0	1825.0	1825.0	1828.0	1828.0	1828.0	1855.0	1855.0	1845.0	1845.0	1845.0	1860.0	1860.0	1797.0	1797.0	1797.0	1859.0	1859.0	1795.0	1795.0	1795.0	1867.0	1867.0	1853.0	1853.0	1853.0	1861.0	1861.0	1800.0	1800.0	1800.0	1772.0	1772.0	1782.0	1782.0	1782.0	1770.0	1770.0	1770.0	1770.0	1770.0	1763.0	1763.0	1752.0	1752.0	1752.0	1812.0	1812.0	1742.0	1742.0	1742.0	1784.0	1784.0	1792.0	1792.0	1792.0	1744.0	1744.0	1775.0	1775.0	1775.0	1774.0	1774.0	1750.0	1750.0	1750.0	1719.0	1719.0	1687.0	1687.0	1687.0	1683.0	1683.0	1679.0	1679.0	1679.0	1721.0	1721.0	1717.0	1717.0	1717.0	1737.0	1737.0	1723.0	1723.0	1723.0	1694.0	1694.0	1680.0	1680.0	1680.0	1724.0	1724.0	1737.0	1737.0	1737.0	1704.0	1704.0	1725.0	1725.0	1725.0	1723.0	1723.0	1730.0	1730.0	1730.0	1704.0	1704.0	1635.0	1635.0	1635.0	1641.0	1641.0	1623.0	1623.0	1623.0	1697.0	1697.0	1694.0	1694.0	1694.0	1656.0	1656.0	1683.0	1683.0	1683.0	1681.0	1681.0	1663.0	1663.0	1663.0	1656.0	1656.0	1682.0	1682.0	1682.0	1599.0	1599.0	1599.0	1599.0	1599.0	1594.0	1594.0	1591.0	1591.0	1591.0	1624.0	1624.0	1602.0	1602.0	1602.0	1672.0	1672.0	1656.0	1656.0	1656.0	1647.0	1647.0	1609.0	1609.0	1609.0	1640.0	1640.0	1630.0	1630.0	1630.0	1634.0	1634.0	1583.0	1583.0	1583.0	1590.0	1590.0	1602.0	1602.0	1602.0	1632.0	1632.0	1576.0	1576.0	1576.0	1640.0	1640.0	1586.0	1586.0	1586.0	1628.0	1628.0	1587.0	1587.0	1587.0	1611.0	1611.0	1634.0	1634.0	1634.0	1570.0	1570.0	1624.0	1624.0	1556.0	1556.0	1556.0	1615.0	1615.0	1550.0	1550.0	1550.0	1573.0	1573.0	1559.0	1559.0	1559.0	1544.0	1544.0	1616.0	1616.0	1616.0	1617.0	1617.0	1536.0	1536.0	1536.0	1534.0	1534.0	1580.0	1580.0	1580.0	1526.0	1526.0	1549.0	1549.0	1549.0	1609.0	1609.0	1522.0	1522.0	1522.0	1531.0	1531.0	1550.0	1550.0	1550.0	1518.0	1518.0	1516.0	1516.0	1516.0	1535.0	1535.0	1527.0	1527.0	1527.0	1580.0	1580.0	1591.0	1591.0	1591.0	1560.0	1560.0	1547.0	1547.0	1547.0	1563.0	1563.0	1591.0	1591.0	1591.0	1599.0	1599.0	1587.0	1587.0	1587.0	1537.0	1537.0	1599.0	1599.0	1599.0	1583.0	1583.0	1516.0	1516.0	1516.0	1499.0	1499.0	1528.0	1528.0	1528.0	1588.0	1588.0	1498.0	1498.0	1498.0	1506.0	1506.0	1537.0	1537.0	1537.0	1498.0	1498.0	1563.0	1563.0	1563.0	1579.0	1579.0	1512.0	1512.0	1512.0	1516.0	1516.0	1577.0	1577.0	1577.0	1542.0	1542.0	1577.0	1577.0	1577.0	1580.0	1580.0	1506.0	1506.0	1506.0	1575.0	1575.0	1567.0	1567.0	1567.0	1528.0	1528.0	1513.0	1513.0	1513.0	1526.0	1526.0	1553.0	1553.0	1553.0	1575.0	1575.0	1576.0	1576.0	1576.0	1588.0	1588.0	1547.0	1547.0	1547.0	1499.0	1499.0	1563.0	1563.0	1563.0	1511.0	1511.0	1580.0	1580.0	1580.0	1568.0	1568.0	1564.0	1564.0	1564.0	1497.0	1497.0	1550.0	1550.0	1550.0	1502.0	1502.0	1511.0	1511.0	1511.0	1553.0	1553.0	1582.0	1582.0	1582.0	1549.0	1549.0	1514.0	1514.0	1514.0	1531.0	1531.0	1515.0	1515.0	1515.0	1572.0	1572.0	1523.0	1523.0	1523.0	1576.0	1576.0	1513.0	1513.0	1513.0	1519.0	1519.0	1572.0	1572.0	1495.0	1495.0	1495.0	1528.0	1528.0	1485.0	1485.0	1485.0	1473.0	1473.0	1490.0	1490.0	1490.0	1549.0	1549.0	1538.0	1538.0	1538.0	1464.0	1464.0	1525.0	1525.0	1525.0	1506.0	1506.0	1550.0	1550.0	1550.0	1472.0	1472.0	1469.0	1469.0	1469.0	1499.0	1499.0	1520.0	1520.0	1520.0	1529.0	1529.0	1513.0	1513.0	1513.0	1489.0	1489.0	1455.0	1455.0	1455.0	1470.0	1470.0	1459.0	1459.0	1459.0	1516.0	1516.0	1498.0	1498.0	1498.0	1483.0	1483.0	1488.0	1488.0	1488.0	1438.0	1438.0	1438.0	1438.0	1438.0	1515.0	1515.0	1512.0	1512.0	1512.0	1481.0	1481.0	1527.0	1527.0	1527.0	1520.0	1520.0	1492.0	1492.0	1492.0	1472.0	1472.0	1500.0	1500.0	1500.0	1577.0	1577.0	1510.0	1510.0	1510.0	1593.0	1593.0	1637.0	1637.0	1637.0	1611.0	1611.0	1658.0	1658.0	1658.0	1683.0	1683.0	1683.0	1683.0	1683.0	1767.0	1767.0	1739.0	1739.0	1739.0	1803.0	1803.0	1843.0	1843.0	1843.0	1911.0	1911.0	1867.0	1867.0	1867.0	1987.0	1987.0	1934.0	1934.0	1934.0	1966.0	1966.0	2071.0	2071.0	2071.0	2042.0	2042.0	2126.0	2126.0	2126.0	2110.0	2110.0	2119.0	2119.0	2119.0	2212.0	2212.0	2170.0	2170.0	2170.0	2271.0	2271.0	2298.0	2298.0	2298.0	2251.0	2251.0	2285.0	2285.0	2285.0	2385.0	2385.0	2398.0	2398.0	2398.0	2342.0	2342.0	2360.0	2360.0	2360.0	2458.0	2458.0	2408.0	2408.0	2408.0	2492.0	2492.0	2494.0	2494.0	2494.0	2462.0	2462.0	2494.0	2494.0	2494.0	2499.0	2499.0	2515.0	2515.0	2515.0	2583.0	2583.0	2547.0	2547.0	2547.0	2567.0	2567.0	2594.0	2594.0	2594.0	2577.0	2577.0	2651.0	2651.0	2651.0	2659.0	2659.0	2640.0	2640.0	2628.0	2628.0	2628.0	2675.0	2675.0	2661.0	2661.0	2661.0	2676.0	2676.0	2682.0	2682.0	2682.0	2718.0	2718.0	2704.0	2704.0	2704.0	2742.0	2742.0	2794.0	2794.0	2794.0	2740.0	2740.0	2786.0	2786.0	2786.0	2824.0	2824.0	2742.0	2742.0	2742.0	2778.0	2778.0	2759.0	2759.0	2759.0	2855.0	2855.0	2855.0	2855.0	2855.0	2859.0	2859.0	2842.0	2842.0	2842.0	2798.0	2798.0	2828.0	2828.0	2828.0	2816.0	2816.0	2893.0	2893.0	2893.0	2872.0	2872.0	2887.0	2887.0	2887.0	2888.0	2888.0	2904.0	2904.0	2904.0	2908.0	2908.0	2864.0	2864.0	2864.0	2906.0	2906.0	2909.0	2909.0	2909.0	2905.0	2905.0	2920.0	2920.0	2920.0	2906.0	2906.0	2881.0	2881.0	2881.0	2855.0	2855.0	2876.0	2876.0	2876.0	2872.0	2872.0	2858.0	2858.0	2858.0	2938.0	2938.0	2908.0	2908.0	2908.0	2900.0	2900.0	2874.0	2874.0	2874.0	2876.0	2876.0	2837.0	2837.0	2837.0	2873.0	2873.0	2854.0	2854.0	2854.0	2902.0	2902.0	2923.0	2923.0	2923.0	2923.0	2923.0	2865.0	2865.0	2865.0	2842.0	2842.0	2907.0	2907.0	2907.0	2908.0	2908.0	2896.0	2896.0	2896.0	2828.0	2828.0	2833.0	2833.0	2833.0	2802.0	2802.0	2876.0	2876.0	2876.0	2856.0	2856.0	2797.0	2797.0	2797.0	2821.0	2821.0	2768.0	2768.0	2768.0	2810.0	2810.0	2820.0	2820.0	2820.0	2815.0	2815.0	2773.0	2773.0	2773.0	2716.0	2716.0	2784.0	2784.0	2784.0	2708.0	2708.0	2703.0	2703.0	2703.0	2664.0	2664.0	2715.0	2715.0	2715.0	2633.0	2633.0	2674.0	2674.0	2674.0	2668.0	2668.0	2595.0	2595.0	2595.0	2601.0	2601.0	2540.0	2540.0	2540.0	2535.0	2535.0	2555.0	2555.0	2539.0	2539.0	2539.0	2502.0	2502.0	2466.0	2466.0	2466.0	2444.0	2444.0	2519.0	2519.0	2519.0	2425.0	2425.0	2421.0	2421.0	2421.0	2421.0	2421.0	2380.0	2380.0	2380.0	2405.0	2405.0	2350.0	2350.0	2350.0	2335.0	2335.0	2370.0	2370.0	2370.0	2310.0	2310.0	2307.0	2307.0	2307.0	2333.0	2333.0	2323.0	2323.0	2323.0	2276.0	2276.0	2337.0	2337.0	2337.0	2344.0	2344.0	2275.0	2275.0	2275.0	2299.0	2299.0	2235.0	2235.0	2235.0	2282.0	2282.0	2234.0	2234.0	2234.0	2269.0	2269.0	2263.0	2263.0	2263.0	2206.0	2206.0	2266.0	2266.0	2266.0	2226.0	2226.0	2215.0	2215.0	2215.0	2174.0	2174.0	2187.0	2187.0	2187.0	2202.0	2202.0	2243.0	2243.0	2243.0	2208.0	2208.0	2195.0	2195.0	2195.0	2141.0	2141.0	2212.0	2212.0	2212.0	2194.0	2194.0	2171.0	2171.0	2171.0	2149.0	2149.0	2103.0	2103.0	2103.0	2163.0	2163.0	2156.0	2156.0	2156.0	2147.0	2147.0	2098.0	2098.0	2098.0	2097.0	2097.0	2065.0	2065.0	2065.0	2095.0	2095.0	2086.0	2086.0	2086.0	2118.0	2118.0	2057.0	2057.0	2057.0	2115.0	2115.0	2078.0	2078.0	2078.0	2104.0	2104.0	2011.0	2011.0	2011.0	2010.0	2010.0	2048.0	2048.0	2048.0	1986.0	1986.0	1977.0	1977.0	1977.0	2029.0	2029.0	1966.0	1966.0	1966.0	1983.0	1983.0	2020.0	2020.0	2020.0	1993.0	1993.0	2032.0	2032.0	2032.0	1956.0	1956.0	1934.0	1934.0	1934.0	1944.0	1944.0	1977.0	1977.0	1977.0	1925.0	1925.0	1988.0	1988.0	1988.0	1972.0	1972.0	1916.0	1916.0	1916.0	1905.0	1905.0	1904.0	1904.0	1904.0	1907.0	1907.0	1928.0	1928.0	1928.0	1951.0	1951.0	1890.0	1890.0	1887.0	1887.0	1887.0	1930.0	1930.0	1866.0	1866.0	1866.0	1928.0	1928.0	1903.0	1903.0	1903.0	1838.0	1838.0	1873.0	1873.0	1873.0	1831.0	1831.0	1901.0	1901.0	1901.0	1831.0	1831.0	1813.0	1813.0	1813.0	1814.0	1814.0	1883.0	1883.0	1883.0	1791.0	1791.0	1872.0	1872.0	1872.0	1825.0	1825.0	1860.0	1860.0	1860.0	1867.0	1867.0	1828.0	1828.0	1828.0	1820.0	1820.0	1770.0	1770.0	1770.0	1812.0	1812.0	1786.0	1786.0	1786.0	1819.0	1819.0	1760.0	1760.0	1760.0	1764.0	1764.0	1739.0	1739.0	1739.0	1822.0	1822.0	1740.0	1740.0	1740.0	1804.0	1804.0	1758.0	1758.0	1758.0	1814.0	1814.0	1737.0	1737.0	1737.0	1794.0	1794.0	1782.0	1782.0	1782.0	1738.0	1738.0	1735.0	1735.0	1735.0	1750.0	1750.0	1759.0	1759.0	1759.0	1734.0	1734.0	1776.0	1776.0	1776.0	1708.0	1708.0	1728.0	1728.0	1728.0	1726.0	1726.0	1770.0	1770.0	1770.0	1682.0	1682.0	1687.0	1687.0	1687.0	1675.0	1675.0	1666.0	1666.0	1666.0	1688.0	1688.0	1666.0	1666.0	1666.0	1662.0	1662.0	1665.0	1665.0	1665.0	1669.0	1669.0	1664.0	1664.0	1664.0	1745.0	1745.0	1660.0	1660.0	1660.0	1699.0	1699.0	1720.0	1720.0	1720.0	1718.0	1718.0	1677.0	1677.0	1677.0	1649.0	1649.0	1713.0	1713.0	1713.0	1633.0	1633.0	1716.0	1716.0	1716.0	1663.0	1663.0	1696.0	1696.0	1696.0	1642.0	1642.0	1654.0	1654.0	1654.0	1707.0	1707.0	1677.0	1677.0	1677.0	1691.0	1691.0	1614.0	1614.0	1614.0	1688.0	1688.0	1649.0	1649.0	1649.0	1597.0	1597.0	1693.0	1693.0	1693.0	1607.0	1607.0	1680.0	1680.0	1680.0	1605.0	1605.0	1598.0	1598.0	1598.0	1613.0	1613.0	1601.0	1601.0	1675.0	1675.0	1675.0	1653.0	1653.0	1596.0	1596.0	1596.0	1650.0	1650.0	1592.0	1592.0	1592.0	1584.0	1584.0	1652.0	1652.0	1652.0	1579.0	1579.0	1587.0	1587.0	1587.0	1604.0	1604.0	1649.0	1649.0	1649.0	1607.0	1607.0	1643.0	1643.0	1643.0	1655.0	1655.0	1636.0	1636.0	1636.0	1590.0	1590.0	1619.0	1619.0	1619.0	1598.0	1598.0	1583.0	1583.0	1583.0	1644.0	1644.0	1568.0	1568.0	1568.0	1629.0	1629.0	1588.0	1588.0	1588.0	1554.0	1554.0	1557.0	1557.0	1557.0	1610.0	1610.0	1571.0	1571.0	1571.0	1568.0	1568.0	1630.0	1630.0	1630.0	1572.0	1572.0	1568.0	1568.0	1568.0	1548.0	1548.0	1613.0	1613.0	1613.0	1602.0	1602.0	1542.0	1542.0	1542.0	1589.0	1589.0	1614.0	1614.0	1614.0	1533.0	1533.0	1598.0	1598.0	1598.0	1531.0	1531.0	1543.0	1543.0	1543.0	1569.0	1569.0	1584.0	1584.0	1584.0	1563.0	1563.0	1530.0	1530.0	1530.0	1611.0	1611.0	1557.0	1557.0	1557.0	1588.0	1588.0	1571.0	1571.0	1571.0	1568.0	1568.0	1541.0	1541.0	1541.0	1600.0	1600.0	1526.0	1526.0	1526.0	1532.0	1532.0	1537.0	1537.0	1537.0	1542.0	1542.0	1517.0	1517.0	1517.0	1518.0	1518.0	1597.0	1597.0	1597.0	1514.0	1514.0	1581.0	1581.0	1581.0	1600.0	1600.0	1593.0	1593.0	1593.0	1571.0	1571.0	1580.0	1580.0	1580.0	1496.0	1496.0	1567.0	1567.0	1567.0	1498.0	1498.0	1555.0	1555.0	1555.0	1530.0	1530.0	1576.0	1576.0	1576.0	1562.0	1562.0	1568.0	1568.0	1568.0	1544.0	1544.0	1561.0	1561.0	1561.0	1481.0	1481.0	1509.0	1509.0	1509.0	1547.0	1547.0	1470.0	1470.0	1470.0	1544.0	1544.0	1469.0	1469.0	1496.0	1496.0	1496.0	1556.0	1556.0	1536.0	1536.0	1536.0	1455.0	1455.0	1536.0	1536.0	1536.0	1458.0	1458.0	1469.0	1469.0	1469.0	1514.0	1514.0	1481.0	1481.0	1481.0	1506.0	1506.0	1430.0	1430.0	1430.0	1487.0	1487.0	1427.0	1427.0	1427.0	1458.0	1458.0	1479.0	1479.0	1479.0	1436.0	1436.0	1423.0	1423.0	1423.0	1408.0	1408.0	1403.0	1403.0	1403.0	1416.0	1416.0	1435.0	1435.0	1435.0	1479.0	1479.0	1424.0	1424.0	1424.0	1443.0	1443.0	1422.0	1422.0	1422.0	1461.0	1461.0	1394.0	1394.0	1394.0	1397.0	1397.0	1430.0	1430.0	1430.0	1459.0	1459.0	1464.0	1464.0	1464.0	1499.0	1499.0	1458.0	1458.0	1458.0	1455.0	1455.0	1532.0	1532.0	1532.0	1538.0	1538.0	1582.0	1582.0	1582.0	1619.0	1619.0	1628.0	1628.0	1628.0	1665.0	1665.0	1625.0	1625.0	1625.0	1666.0	1666.0	1747.0	1747.0	1747.0	1783.0	1783.0	1833.0	1833.0	1833.0	1868.0	1868.0	1880.0	1880.0	1880.0	1927.0	1927.0	1930.0	1930.0	1930.0	2020.0	2020.0	2006.0	2006.0	2006.0	2012.0	2012.0	2104.0	2104.0	2104.0	2151.0	2151.0	2089.0	2089.0	2089.0	2144.0	2144.0	2237.0	2237.0	2237.0	2177.0	2177.0	2225.0	2225.0	2225.0	2238.0	2238.0	2270.0	2270.0	2270.0	2339.0	2339.0	2326.0	2326.0	2326.0	2391.0	2391.0	2437.0	2437.0	2437.0	2378.0	2378.0	2461.0	2461.0	2461.0	2448.0	2448.0	2421.0	2421.0	2421.0	2470.0	2470.0	2461.0	2461.0	2461.0	2525.0	2525.0	2487.0	2487.0	2487.0	2521.0	2521.0	2537.0	2537.0	2537.0	2563.0	2563.0	2569.0	2569.0	2569.0	2619.0	2619.0	2660.0	2660.0	2660.0	2628.0	2628.0	2691.0	2691.0	2654.0	2654.0	2654.0	2663.0	2663.0	2725.0	2725.0	2725.0	2721.0	2721.0	2733.0	2733.0	2733.0	2696.0	2696.0	2719.0	2719.0	2719.0	2702.0	2702.0	2782.0	2782.0	2782.0	2801.0	2801.0	2810.0	2810.0	2810.0	2775.0	2775.0	2826.0	2826.0	2826.0	2774.0	2774.0	2830.0	2830.0	2830.0	2811.0	2811.0	2831.0	2831.0	2831.0	2856.0	2856.0	2856.0	2856.0	2856.0	2792.0	2792.0	2879.0	2879.0	2879.0	2826.0	2826.0	2830.0	2830.0	2830.0	2844.0	2844.0	2855.0	2855.0	2855.0	2822.0	2822.0	2843.0	2843.0	2843.0	2907.0	2907.0	2851.0	2851.0	2851.0	2840.0	2840.0	2843.0	2843.0	2843.0	2863.0	2863.0	2857.0	2857.0	2857.0	2853.0	2853.0	2939.0	2939.0	2939.0	2862.0	2862.0	2934.0	2934.0	2934.0	2923.0	2923.0	2891.0	2891.0	2891.0	2922.0	2922.0	2935.0	2935.0	2935.0	2879.0	2879.0	2867.0	2867.0	2867.0	2923.0	2923.0	2852.0	2852.0	2852.0	2874.0	2874.0	2888.0	2888.0	2888.0	2935.0	2935.0	2881.0	2881.0	2881.0	2932.0	2932.0	2923.0	2923.0	2923.0	2905.0	2905.0	2866.0	2866.0	2866.0	2851.0	2851.0	2853.0	2853.0	2853.0	2863.0	2863.0	2861.0	2861.0	2861.0	2873.0	2873.0	2819.0	2819.0	2819.0	2886.0	2886.0	2839.0	2839.0	2839.0	2881.0	2881.0	2882.0	2882.0	2882.0	2828.0	2828.0	2806.0	2806.0	2806.0	2819.0	2819.0	2765.0	2765.0	2765.0	2817.0	2817.0	2777.0	2777.0	2777.0	2721.0	2721.0	2797.0	2797.0	2797.0	2735.0	2735.0	2701.0	2701.0	2701.0	2719.0	2719.0	2743.0	2743.0	2743.0	2662.0	2662.0	2688.0	2688.0	2688.0	2651.0	2651.0	2608.0	2608.0	2608.0	2587.0	2587.0	2627.0	2627.0	2627.0	2542.0	2542.0	2570.0	2570.0	2536.0	2536.0	2536.0	2522.0	2522.0	2500.0	2500.0	2500.0	2507.0	2507.0	2476.0	2476.0	2476.0	2502.0	2502.0	2434.0	2434.0	2434.0	2477.0	2477.0	2417.0	2417.0	2417.0	2367.0	2367.0	2390.0	2390.0	2390.0	2377.0	2377.0	2336.0	2336.0	2336.0	2360.0	2360.0	2336.0	2336.0	2336.0	2381.0	2381.0	2337.0	2337.0	2337.0	2299.0	2299.0	2320.0	2320.0	2320.0	2340.0	2340.0	2275.0	2275.0	2275.0	2243.0	2243.0	2256.0	2256.0	2256.0	2231.0	2231.0	2230.0	2230.0	2230.0	2294.0	2294.0	2294.0	2294.0	2294.0	2195.0	2195.0	2268.0	2268.0	2268.0	2188.0	2188.0	2268.0	2268.0	2268.0	2257.0	2257.0	2178.0	2178.0	2178.0	2242.0	2242.0	2198.0	2198.0	2198.0	2208.0	2208.0	2150.0	2150.0	2150.0	2166.0	2166.0	2207.0	2207.0	2207.0	2212.0	2212.0	2202.0	2202.0	2202.0	2120.0	2120.0	2118.0	2118.0	2118.0	2160.0	2160.0	2150.0	2150.0	2150.0	2092.0	2092.0	2089.0	2089.0	2089.0	2110.0	2110.0	2088.0	2088.0	2088.0	2064.0	2064.0	2053.0	2053.0	2053.0	2051.0	2051.0	2119.0	2119.0	2119.0	2039.0	2039.0	2041.0	2041.0	2041.0	2032.0	2032.0	2020.0	2020.0	2020.0	2014.0	2014.0	2032.0	2032.0	2032.0	2086.0	2086.0	2072.0	2072.0	2072.0	1984.0	1984.0	2048.0	2048.0	2048.0	1977.0	1977.0	1990.0	1990.0	1990.0	2041.0	2041.0	1992.0	1992.0	1992.0	1978.0	1978.0	1987.0	1987.0	1987.0	1943.0	1943.0	1922.0	1922.0	1922.0	2000.0	2000.0	1957.0	1957.0	1957.0	1975.0	1975.0	1917.0	1917.0	1917.0	1900.0	1900.0	1912.0	1912.0	1912.0	1906.0	1906.0	1911.0	1911.0	1911.0	1880.0	1880.0	1894.0	1894.0	1855.0	1855.0	1855.0	1846.0	1846.0	1920.0	1920.0	1920.0	1909.0	1909.0	1835.0	1835.0	1835.0	1918.0	1918.0	1846.0	1846.0	1846.0	1828.0	1828.0	1879.0	1879.0	1879.0	1812.0	1812.0	1818.0	1818.0	1818.0	1839.0	1839.0	1863.0	1863.0	1863.0	1875.0	1875.0	1815.0	1815.0	1815.0	1778.0	1778.0	1816.0	1816.0	1816.0	1849.0	1849.0	1761.0	1761.0	1761.0	