1694.0	1701.0	1701.0	1701.0	1635.0	1635.0	1688.0	1688.0	1688.0	1627.0	1627.0	1610.0	1610.0	1610.0	1685.0	1685.0	1663.0	1663.0	1663.0	1672.0	1672.0	1593.0	1593.0	1593.0	1680.0	1680.0	1587.0	1587.0	1587.0	1653.0	1653.0	1653.0	1653.0	1653.0	1596.0	1596.0	1633.0	1633.0	1633.0	1601.0	1601.0	1617.0	1617.0	1617.0	1586.0	1586.0	1566.0	1566.0	1566.0	1632.0	1632.0	1554.0	1554.0	1554.0	1637.0	1637.0	1577.0	1577.0	1577.0	1545.0	1545.0	1624.0	1624.0	1624.0	1598.0	1598.0	1532.0	1532.0	1532.0	1592.0	1592.0	1602.0	1602.0	1602.0	1610.0	1610.0	1596.0	1596.0	1596.0	1531.0	1531.0	1603.0	1603.0	1603.0	1515.0	1515.0	1523.0	1523.0	1523.0	1516.0	1516.0	1592.0	1592.0	1592.0	1533.0	1533.0	1508.0	1508.0	1508.0	1552.0	1552.0	1555.0	1555.0	1555.0	1526.0	1526.0	1603.0	1603.0	1603.0	1526.0	1526.0	1587.0	1587.0	1587.0	1556.0	1556.0	1646.0	1646.0	1646.0	1567.0	1567.0	1688.0	1688.0	1688.0	1634.0	1634.0	1720.0	1720.0	1720.0	1761.0	1761.0	1774.0	1774.0	1774.0	1832.0	1832.0	1785.0	1785.0	1785.0	1904.0	1904.0	1933.0	1933.0	1933.0	1898.0	1898.0	1949.0	1949.0	1949.0	2036.0	2036.0	2025.0	2025.0	2025.0	2131.0	2131.0	2076.0	2076.0	2076.0	2113.0	2113.0	2239.0	2239.0	2239.0	2181.0	2181.0	2305.0	2305.0	2305.0	2272.0	2272.0	2282.0	2282.0	2282.0	2319.0	2319.0	2330.0	2330.0	2330.0	2396.0	2396.0	2451.0	2451.0	2451.0	2472.0	2472.0	2495.0	2495.0	2495.0	2480.0	2480.0	2473.0	2473.0	2544.0	2544.0	2544.0	2583.0	2583.0	2524.0	2524.0	2524.0	2543.0	2543.0	2644.0	2644.0	2644.0	2628.0	2628.0	2587.0	2587.0	2587.0	2622.0	2622.0	2619.0	2619.0	2619.0	2683.0	2683.0	2666.0	2666.0	2666.0	2749.0	2749.0	2668.0	2668.0	2668.0	2760.0	2760.0	2755.0	2755.0	2755.0	2727.0	2727.0	2806.0	2806.0	2806.0	2735.0	2735.0	2829.0	2829.0	2829.0	2775.0	2775.0	2845.0	2845.0	2845.0	2840.0	2840.0	2806.0	2806.0	2806.0	2851.0	2851.0	2815.0	2815.0	2815.0	2866.0	2866.0	2862.0	2862.0	2862.0	2837.0	2837.0	2898.0	2898.0	2898.0	2920.0	2920.0	2945.0	2945.0	2945.0	2941.0	2941.0	2971.0	2971.0	2971.0	2926.0	2926.0	2904.0	2904.0	2904.0	2906.0	2906.0	2919.0	2919.0	2919.0	3014.0	3014.0	3001.0	3001.0	3001.0	2984.0	2984.0	3020.0	3020.0	3020.0	2967.0	2967.0	2970.0	2970.0	2970.0	3018.0	3018.0	2963.0	2963.0	2963.0	3009.0	3009.0	2971.0	2971.0	2971.0	3067.0	3067.0	2995.0	2995.0	2995.0	3027.0	3027.0	3066.0	3066.0	3066.0	3005.0	3005.0	3010.0	3010.0	3010.0	3007.0	3007.0	3094.0	3094.0	3094.0	3022.0	3022.0	3094.0	3094.0	3094.0	3007.0	3007.0	3100.0	3100.0	3100.0	3054.0	3054.0	3022.0	3022.0	3022.0	3109.0	3109.0	3080.0	3080.0	3080.0	3060.0	3060.0	3025.0	3025.0	3025.0	3042.0	3042.0	3103.0	3103.0	3103.0	3017.0	3017.0	3087.0	3087.0	3087.0	3069.0	3069.0	3017.0	3017.0	3017.0	3027.0	3027.0	3037.0	3037.0	3037.0	3037.0	3037.0	3047.0	3047.0	3047.0	3055.0	3055.0	3069.0	3069.0	3069.0	3020.0	3020.0	2991.0	2991.0	2991.0	3024.0	3024.0	2976.0	2976.0	2990.0	2990.0	2990.0	2973.0	2973.0	3012.0	3012.0	3012.0	2976.0	2976.0	3019.0	3019.0	3019.0	2934.0	2934.0	2905.0	2905.0	2905.0	2955.0	2955.0	2943.0	2943.0	2943.0	2931.0	2931.0	2930.0	2930.0	2930.0	2915.0	2915.0	2909.0	2909.0	2909.0	2895.0	2895.0	2882.0	2882.0	2882.0	2804.0	2804.0	2781.0	2781.0	2781.0	2808.0	2808.0	2765.0	2765.0	2765.0	2723.0	2723.0	2735.0	2735.0	2735.0	2717.0	2717.0	2723.0	2723.0	2723.0	2667.0	2667.0	2687.0	2687.0	2687.0	2692.0	2692.0	2655.0	2655.0	2655.0	2625.0	2625.0	2597.0	2597.0	2597.0	2674.0	2674.0	2662.0	2662.0	2662.0	2624.0	2624.0	2571.0	2571.0	2571.0	2558.0	2558.0	2539.0	2539.0	2539.0	2568.0	2568.0	2604.0	2604.0	2604.0	2560.0	2560.0	2509.0	2509.0	2509.0	2522.0	2522.0	2505.0	2505.0	2505.0	2569.0	2569.0	2520.0	2520.0	2520.0	2558.0	2558.0	2472.0	2472.0	2472.0	2466.0	2466.0	2472.0	2472.0	2472.0	2531.0	2531.0	2476.0	2476.0	2476.0	2491.0	2491.0	2495.0	2495.0	2495.0	2447.0	2447.0	2478.0	2478.0	2478.0	2462.0	2462.0	2464.0	2464.0	2464.0	2472.0	2472.0	2426.0	2426.0	2426.0	2394.0	2394.0	2391.0	2391.0	2391.0	2378.0	2378.0	2436.0	2436.0	2436.0	2398.0	2398.0	2429.0	2429.0	2429.0	2335.0	2335.0	2363.0	2363.0	2363.0	2396.0	2396.0	2396.0	2396.0	2396.0	2332.0	2332.0	2377.0	2377.0	2377.0	2346.0	2346.0	2361.0	2361.0	2361.0	2316.0	2316.0	2285.0	2285.0	2285.0	2316.0	2316.0	2324.0	2324.0	2324.0	2318.0	2318.0	2330.0	2330.0	2330.0	2312.0	2312.0	2269.0	2269.0	2269.0	2294.0	2294.0	2254.0	2254.0	2254.0	2254.0	2254.0	2228.0	2228.0	2218.0	2218.0	2218.0	2210.0	2210.0	2249.0	2249.0	2249.0	2264.0	2264.0	2175.0	2175.0	2175.0	2161.0	2161.0	2225.0	2225.0	2225.0	2151.0	2151.0	2187.0	2187.0	2187.0	2155.0	2155.0	2142.0	2142.0	2142.0	2136.0	2136.0	2200.0	2200.0	2200.0	2190.0	2190.0	2105.0	2105.0	2105.0	2185.0	2185.0	2185.0	2185.0	2185.0	2094.0	2094.0	2159.0	2159.0	2159.0	2163.0	2163.0	2141.0	2141.0	2141.0	2064.0	2064.0	2117.0	2117.0	2117.0	2050.0	2050.0	2123.0	2123.0	2123.0	2107.0	2107.0	2043.0	2043.0	2043.0	2030.0	2030.0	2021.0	2021.0	2021.0	2034.0	2034.0	2044.0	2044.0	2044.0	2058.0	2058.0	2055.0	2055.0	2055.0	2055.0	2055.0	1987.0	1987.0	1987.0	1983.0	1983.0	2024.0	2024.0	2024.0	2059.0	2059.0	2018.0	2018.0	2018.0	1999.0	1999.0	1966.0	1966.0	1966.0	1951.0	1951.0	1958.0	1958.0	1958.0	1976.0	1976.0	1946.0	1946.0	1946.0	2008.0	2008.0	1975.0	1975.0	1975.0	1950.0	1950.0	2006.0	2006.0	2006.0	1956.0	1956.0	1963.0	1963.0	1963.0	1978.0	1978.0	1898.0	1898.0	1898.0	1897.0	1897.0	1978.0	1978.0	1978.0	1925.0	1925.0	1899.0	1899.0	1899.0	1912.0	1912.0	1874.0	1874.0	1874.0	1876.0	1876.0	1865.0	1865.0	1865.0	1936.0	1936.0	1867.0	1867.0	1867.0	1881.0	1881.0	1878.0	1878.0	1878.0	1926.0	1926.0	1858.0	1858.0	1858.0	1892.0	1892.0	1866.0	1866.0	1866.0	1851.0	1851.0	1855.0	1855.0	1855.0	1918.0	1918.0	1894.0	1894.0	1894.0	1836.0	1836.0	1900.0	1900.0	1900.0	1822.0	1822.0	1818.0	1818.0	1818.0	1851.0	1851.0	1899.0	1899.0	1899.0	1810.0	1810.0	1872.0	1872.0	1870.0	1870.0	1870.0	1803.0	1803.0	1855.0	1855.0	1855.0	1820.0	1820.0	1821.0	1821.0	1821.0	1874.0	1874.0	1818.0	1818.0	1818.0	1867.0	1867.0	1856.0	1856.0	1856.0	1840.0	1840.0	1834.0	1834.0	1834.0	1793.0	1793.0	1800.0	1800.0	1800.0	1820.0	1820.0	1818.0	1818.0	1818.0	1860.0	1860.0	1786.0	1786.0	1786.0	1767.0	1767.0	1763.0	1763.0	1763.0	1816.0	1816.0	1848.0	1848.0	1848.0	1775.0	1775.0	1822.0	1822.0	1822.0	1840.0	1840.0	1769.0	1769.0	1769.0	1782.0	1782.0	1758.0	1758.0	1758.0	1803.0	1803.0	1845.0	1845.0	1845.0	1779.0	1779.0	1852.0	1852.0	1852.0	1768.0	1768.0	1805.0	1805.0	1805.0	1795.0	1795.0	1854.0	1854.0	1854.0	1808.0	1808.0	1817.0	1817.0	1817.0	1765.0	1765.0	1807.0	1807.0	1807.0	1761.0	1761.0	1849.0	1849.0	1849.0	1841.0	1841.0	1782.0	1782.0	1782.0	1841.0	1841.0	1828.0	1828.0	1828.0	1788.0	1788.0	1827.0	1827.0	1827.0	1792.0	1792.0	1774.0	1774.0	1774.0	1780.0	1780.0	1776.0	1776.0	1776.0	1827.0	1827.0	1819.0	1819.0	1819.0	1767.0	1767.0	1739.0	1739.0	1739.0	1802.0	1802.0	1754.0	1754.0	1754.0	1771.0	1771.0	1785.0	1785.0	1785.0	1721.0	1721.0	1785.0	1785.0	1785.0	1741.0	1741.0	1734.0	1734.0	1734.0	1803.0	1803.0	1719.0	1719.0	1719.0	1702.0	1702.0	1703.0	1703.0	1703.0	1722.0	1722.0	1716.0	1716.0	1716.0	1699.0	1699.0	1707.0	1707.0	1707.0	1702.0	1702.0	1704.0	1704.0	1704.0	1695.0	1695.0	1701.0	1701.0	1701.0	1697.0	1697.0	1702.0	1702.0	1702.0	1663.0	1663.0	1683.0	1683.0	1683.0	1665.0	1665.0	1679.0	1679.0	1691.0	1691.0	1691.0	1728.0	1728.0	1718.0	1718.0	1718.0	1681.0	1681.0	1630.0	1630.0	1630.0	1651.0	1651.0	1638.0	1638.0	1638.0	1682.0	1682.0	1627.0	1627.0	1627.0	1625.0	1625.0	1632.0	1632.0	1632.0	1633.0	1633.0	1615.0	1615.0	1615.0	1682.0	1682.0	1694.0	1694.0	1694.0	1718.0	1718.0	1699.0	1699.0	1699.0	1651.0	1651.0	1698.0	1698.0	1698.0	1753.0	1753.0	1692.0	1692.0	1692.0	1806.0	1806.0	1747.0	1747.0	1747.0	1767.0	1767.0	1865.0	1865.0	1865.0	1811.0	1811.0	1916.0	1916.0	1916.0	1957.0	1957.0	2002.0	2002.0	2002.0	1963.0	1963.0	2034.0	2034.0	2034.0	2024.0	2024.0	2054.0	2054.0	2054.0	2083.0	2083.0	2111.0	2111.0	2111.0	2184.0	2184.0	2151.0	2151.0	2151.0	2179.0	2179.0	2209.0	2209.0	2209.0	2247.0	2247.0	2306.0	2306.0	2306.0	2315.0	2315.0	2402.0	2402.0	2402.0	2340.0	2340.0	2427.0	2427.0	2427.0	2468.0	2468.0	2440.0	2440.0	2440.0	2453.0	2453.0	2467.0	2467.0	2467.0	2495.0	2495.0	2565.0	2565.0	2565.0	2592.0	2592.0	2532.0	2532.0	2532.0	2595.0	2595.0	2646.0	2646.0	2646.0	2611.0	2611.0	2642.0	2642.0	2642.0	2695.0	2695.0	2630.0	2630.0	2630.0	2728.0	2728.0	2682.0	2682.0	2682.0	2758.0	2758.0	2750.0	2750.0	2750.0	2722.0	2722.0	2772.0	2772.0	2772.0	2745.0	2745.0	2749.0	2749.0	2749.0	2774.0	2774.0	2807.0	2807.0	2807.0	2856.0	2856.0	2885.0	2885.0	2885.0	2887.0	2887.0	2879.0	2879.0	2879.0	2842.0	2842.0	2898.0	2898.0	2898.0	2950.0	2950.0	2923.0	2923.0	2923.0	2915.0	2915.0	2915.0	2915.0	2915.0	2947.0	2947.0	2936.0	2936.0	2936.0	2930.0	2930.0	3013.0	3013.0	3004.0	3004.0	3004.0	2978.0	2978.0	2983.0	2983.0	2983.0	2975.0	2975.0	3024.0	3024.0	3024.0	3041.0	3041.0	3004.0	3004.0	3004.0	3079.0	3079.0	2993.0	2993.0	2993.0	3078.0	3078.0	3024.0	3024.0	3024.0	3087.0	3087.0	3039.0	3039.0	3039.0	3083.0	3083.0	3033.0	3033.0	3033.0	3038.0	3038.0	3042.0	3042.0	3042.0	3069.0	3069.0	3088.0	3088.0	3088.0	3109.0	3109.0	3093.0	3093.0	3093.0	3124.0	3124.0	3044.0	3044.0	3044.0	3054.0	3054.0	3071.0	3071.0	3071.0	3058.0	3058.0	3099.0	3099.0	3099.0	3131.0	3131.0	3096.0	3096.0	3096.0	3060.0	3060.0	3060.0	3060.0	3060.0	3093.0	3093.0	3119.0	3119.0	3119.0	3059.0	3059.0	3116.0	3116.0	3116.0	3046.0	3046.0	3134.0	3134.0	3134.0	3050.0	3050.0	3064.0	3064.0	3064.0	3108.0	3108.0	3041.0	3041.0	3041.0	3014.0	3014.0	3100.0	3100.0	3100.0	3076.0	3076.0	2993.0	2993.0	2993.0	3064.0	3064.0	2979.0	2979.0	2979.0	2991.0	2991.0	3038.0	3038.0	3038.0	3003.0	3003.0	2949.0	2949.0	2949.0	3005.0	3005.0	2926.0	2926.0	2926.0	2907.0	2907.0	2940.0	2940.0	2940.0	2939.0	2939.0	2939.0	2939.0	2939.0	2896.0	2896.0	2861.0	2861.0	2861.0	2887.0	2887.0	2822.0	2822.0	2822.0	2782.0	2782.0	2857.0	2857.0	2857.0	2822.0	2822.0	2750.0	2750.0	2750.0	2750.0	2750.0	2756.0	2756.0	2756.0	2763.0	2763.0	2718.0	2718.0	2718.0	2707.0	2707.0	2714.0	2714.0	2714.0	2622.0	2622.0	2656.0	2656.0	2656.0	2642.0	2642.0	2572.0	2572.0	2572.0	2592.0	2592.0	2552.0	2552.0	2552.0	2522.0	2522.0	2580.0	2580.0	2580.0	2541.0	2541.0	2560.0	2560.0	2514.0	2514.0	2514.0	2468.0	2468.0	2454.0	2454.0	2454.0	2492.0	2492.0	2448.0	2448.0	2448.0	2476.0	2476.0	2470.0	2470.0	2470.0	2431.0	2431.0	2405.0	2405.0	2405.0	2461.0	2461.0	2397.0	2397.0	2397.0	2427.0	2427.0	2352.0	2352.0	2352.0	2413.0	2413.0	2339.0	2339.0	2339.0	2339.0	2339.0	2389.0	2389.0	2389.0	2410.0	2410.0	2327.0	2327.0	2327.0	2338.0	2338.0	2341.0	2341.0	2341.0	2354.0	2354.0	2324.0	2324.0	2324.0	2349.0	2349.0	2293.0	2293.0	2293.0	2304.0	2304.0	2252.0	2252.0	2252.0	2245.0	2245.0	2256.0	2256.0	2256.0	2309.0	2309.0	2212.0	2212.0	2212.0	2207.0	2207.0	2252.0	2252.0	2252.0	2196.0	2196.0	2184.0	2184.0	2184.0	2217.0	2217.0	2243.0	2243.0	2243.0	2212.0	2212.0	2173.0	2173.0	2173.0	2192.0	2192.0	2169.0	2169.0	2169.0	2214.0	2214.0	2187.0	2187.0	2187.0	2204.0	2204.0	2122.0	2122.0	2122.0	2185.0	2185.0	2147.0	2147.0	2147.0	2082.0	2082.0	2099.0	2099.0	2099.0	2144.0	2144.0	2131.0	2131.0	2131.0	2100.0	2100.0	2051.0	2051.0	2051.0	2046.0	2046.0	2074.0	2074.0	2074.0	2020.0	2020.0	2077.0	2077.0	2077.0	2089.0	2089.0	2002.0	2002.0	2002.0	2014.0	2014.0	1990.0	1990.0	1990.0	2068.0	2068.0	1967.0	1967.0	1967.0	2004.0	2004.0	2001.0	2001.0	2001.0	1963.0	1963.0	2022.0	2022.0	2022.0	1993.0	1993.0	2012.0	2012.0	2012.0	1951.0	1951.0	1938.0	1938.0	1938.0	2001.0	2001.0	1983.0	1983.0	1983.0	1920.0	1920.0	1923.0	1923.0	1923.0	1930.0	1930.0	1964.0	1964.0	1964.0	1925.0	1925.0	1978.0	1978.0	1978.0	1908.0	1908.0	1969.0	1969.0	1898.0	1898.0	1898.0	1964.0	1964.0	1876.0	1876.0	1876.0	1960.0	1960.0	1950.0	1950.0	1950.0	1891.0	1891.0	1944.0	1944.0	1944.0	1874.0	1874.0	1888.0	1888.0	1888.0	1857.0	1857.0	1914.0	1914.0	1914.0	1840.0	1840.0	1835.0	1835.0	1835.0	1866.0	1866.0	1914.0	1914.0	1914.0	1912.0	1912.0	1834.0	1834.0	1834.0	1851.0	1851.0	1851.0	1851.0	1851.0	1854.0	1854.0	1884.0	1884.0	1884.0	1856.0	1856.0	1850.0	1850.0	1850.0	1801.0	1801.0	1879.0	1879.0	1879.0	1872.0	1872.0	1833.0	1833.0	1833.0	1844.0	1844.0	1838.0	1838.0	1838.0	1817.0	1817.0	1808.0	1808.0	1808.0	1775.0	1775.0	1768.0	1768.0	1768.0	1845.0	1845.0	1795.0	1795.0	1795.0	1847.0	1847.0	1807.0	1807.0	1807.0	1795.0	1795.0	1840.0	1840.0	1840.0	1822.0	1822.0	1772.0	1772.0	1772.0	1812.0	1812.0	1811.0	1811.0	1811.0	1752.0	1752.0	1818.0	1818.0	1818.0	1748.0	1748.0	1779.0	1779.0	1779.0	1804.0	1804.0	1734.0	1734.0	1734.0	1738.0	1738.0	1762.0	1762.0	1762.0	1714.0	1714.0	1774.0	1774.0	1774.0	1742.0	1742.0	1782.0	1782.0	1782.0	1687.0	1687.0	1718.0	1718.0	1718.0	1689.0	1689.0	1742.0	1742.0	1742.0	1689.0	1689.0	1745.0	1745.0	1745.0	1685.0	1685.0	1753.0	1753.0	1753.0	1754.0	1754.0	1714.0	1714.0	1714.0	1701.0	1701.0	1664.0	1664.0	1664.0	1741.0	1741.0	1730.0	1730.0	1730.0	1660.0	1660.0	1672.0	1672.0	1672.0	1727.0	1727.0	1641.0	1641.0	1641.0	1655.0	1655.0	1662.0	1662.0	1662.0	1671.0	1671.0	1703.0	1703.0	1703.0	1667.0	1667.0	1640.0	1640.0	1640.0	1630.0	1630.0	1696.0	1696.0	1696.0	1658.0	1658.0	1704.0	1704.0	1692.0	1692.0	1692.0	1656.0	1656.0	1648.0	1648.0	1648.0	1623.0	1623.0	1638.0	1638.0	1638.0	1695.0	1695.0	1706.0	1706.0	1706.0	1684.0	1684.0	1703.0	1703.0	1703.0	1707.0	1707.0	1698.0	1698.0	1698.0	1688.0	1688.0	1635.0	1635.0	1635.0	1621.0	1621.0	1617.0	1617.0	1617.0	1634.0	1634.0	1623.0	1623.0	1623.0	1621.0	1621.0	1623.0	1623.0	1623.0	1694.0	1694.0	1617.0	1617.0	1617.0	1655.0	1655.0	1688.0	1688.0	1688.0	1611.0	1611.0	1634.0	1634.0	1634.0	1613.0	1613.0	1618.0	1618.0	1618.0	1682.0	1682.0	1609.0	1609.0	1609.0	1620.0	1620.0	1686.0	1686.0	1686.0	1674.0	1674.0	1594.0	1594.0	1594.0	1675.0	1675.0	1608.0	1608.0	1608.0	1584.0	1584.0	1670.0	1670.0	1670.0	1674.0	1674.0	1654.0	1654.0	1654.0	1593.0	1593.0	1643.0	1643.0	1643.0	1586.0	1586.0	1584.0	1584.0	1584.0	1579.0	1579.0	1614.0	1614.0	1614.0	1581.0	1581.0	1615.0	1615.0	1615.0	1629.0	1629.0	1594.0	1594.0	1594.0	1647.0	1647.0	1631.0	1631.0	1631.0	1563.0	1563.0	1643.0	1643.0	1643.0	1554.0	1554.0	1559.0	1559.0	1559.0	1583.0	1583.0	1633.0	1633.0	1633.0	1620.0	1620.0	1536.0	1536.0	1536.0	1558.0	1558.0	1520.0	1520.0	1520.0	1523.0	1523.0	1582.0	1582.0	1582.0	1596.0	1596.0	1510.0	1510.0	1510.0	1564.0	1564.0	1515.0	1515.0	1515.0	1569.0	1569.0	1525.0	1525.0	1525.0	1507.0	1507.0	1575.0	1575.0	1575.0	1528.0	1528.0	1548.0	1548.0	1548.0	1509.0	1509.0	1512.0	1512.0	1512.0	1578.0	1578.0	1544.0	1544.0	1544.0	1546.0	1546.0	1607.0	1607.0	1607.0	1573.0	1573.0	1582.0	1582.0	1628.0	1628.0	1628.0	1654.0	1654.0	1748.0	1748.0	1748.0	1718.0	1718.0	1720.0	1720.0	1720.0	1755.0	1755.0	1798.0	1798.0	1798.0	1814.0	1814.0	1905.0	1905.0	1905.0	1944.0	1944.0	1920.0	1920.0	1920.0	1979.0	1979.0	2036.0	2036.0	2036.0	2100.0	2100.0	2067.0	2067.0	2067.0	2163.0	2163.0	2187.0	2187.0	2187.0	2233.0	2233.0	2194.0	2194.0	2194.0	2246.0	2246.0	2259.0	2259.0	2259.0	2281.0	2281.0	2346.0	2346.0	2346.0	2386.0	2386.0	2362.0	2362.0	2362.0	2366.0	2366.0	2455.0	2455.0	2455.0	2412.0	2412.0	2460.0	2460.0	2460.0	2458.0	