1676.0	1676.0	1604.0	1604.0	1604.0	1510.0	1510.0	1454.0	1454.0	1454.0	1388.0	1388.0	1350.0	1350.0	1350.0	1338.0	1338.0	1303.0	1303.0	1303.0	1347.0	1347.0	1270.0	1270.0	1270.0	1257.0	1257.0	1321.0	1321.0	1321.0	1279.0	1279.0	1261.0	1261.0	1261.0	1254.0	1254.0	1249.0	1249.0	1249.0	1262.0	1262.0	1284.0	1284.0	1284.0	1304.0	1304.0	1266.0	1266.0	1266.0	1246.0	1246.0	1328.0	1328.0	1328.0	1315.0	1315.0	1326.0	1326.0	1326.0	1284.0	1284.0	1259.0	1259.0	1259.0	1291.0	1291.0	1333.0	1333.0	1333.0	1297.0	1297.0	1323.0	1323.0	1323.0	1287.0	1287.0	1298.0	1298.0	1298.0	1358.0	1358.0	1286.0	1286.0	1286.0	1345.0	1345.0	1290.0	1290.0	1290.0	1335.0	1335.0	1304.0	1304.0	1304.0	1328.0	1328.0	1351.0	1351.0	1351.0	1329.0	1329.0	1338.0	1338.0	1338.0	1317.0	1317.0	1391.0	1391.0	1391.0	1352.0	1352.0	1391.0	1391.0	1391.0	1355.0	1355.0	1340.0	1340.0	1340.0	1337.0	1337.0	1350.0	1350.0	1350.0	1408.0	1408.0	1374.0	1374.0	1374.0	1406.0	1406.0	1405.0	1405.0	1405.0	1345.0	1345.0	1364.0	1364.0	1364.0	1371.0	1371.0	1360.0	1360.0	1360.0	1338.0	1338.0	1382.0	1382.0	1382.0	1400.0	1400.0	1363.0	1363.0	1363.0	1377.0	1377.0	1418.0	1418.0	1418.0	1381.0	1381.0	1395.0	1395.0	1395.0	1418.0	1418.0	1396.0	1396.0	1396.0	1444.0	1444.0	1435.0	1435.0	1398.0	1398.0	1398.0	1416.0	1416.0	1400.0	1400.0	1400.0	1376.0	1376.0	1379.0	1379.0	1379.0	1419.0	1419.0	1454.0	1454.0	1454.0	1450.0	1450.0	1432.0	1432.0	1432.0	1462.0	1462.0	1408.0	1408.0	1408.0	1446.0	1446.0	1414.0	1414.0	1414.0	1422.0	1422.0	1442.0	1442.0	1442.0	1483.0	1483.0	1422.0	1422.0	1422.0	1435.0	1435.0	1428.0	1428.0	1428.0	1504.0	1504.0	1502.0	1502.0	1502.0	1459.0	1459.0	1467.0	1467.0	1467.0	1506.0	1506.0	1494.0	1494.0	1494.0	1449.0	1449.0	1465.0	1465.0	1465.0	1499.0	1499.0	1516.0	1516.0	1516.0	1483.0	1483.0	1505.0	1505.0	1505.0	1460.0	1460.0	1480.0	1480.0	1480.0	1461.0	1461.0	1531.0	1531.0	1531.0	1531.0	1531.0	1479.0	1479.0	1479.0	1501.0	1501.0	1520.0	1520.0	1520.0	1538.0	1538.0	1528.0	1528.0	1528.0	1499.0	1499.0	1494.0	1494.0	1494.0	1480.0	1480.0	1499.0	1499.0	1499.0	1561.0	1561.0	1544.0	1544.0	1544.0	1501.0	1501.0	1504.0	1504.0	1504.0	1543.0	1543.0	1540.0	1540.0	1540.0	1503.0	1503.0	1578.0	1578.0	1578.0	1560.0	1560.0	1520.0	1520.0	1520.0	1573.0	1573.0	1577.0	1577.0	1577.0	1585.0	1585.0	1561.0	1561.0	1561.0	1551.0	1551.0	1539.0	1539.0	1539.0	1598.0	1598.0	1535.0	1535.0	1535.0	1543.0	1543.0	1587.0	1587.0	1587.0	1595.0	1595.0	1547.0	1547.0	1547.0	1536.0	1536.0	1615.0	1615.0	1615.0	1568.0	1568.0	1598.0	1598.0	1598.0	1556.0	1556.0	1620.0	1620.0	1620.0	1598.0	1598.0	1619.0	1619.0	1619.0	1637.0	1637.0	1579.0	1579.0	1579.0	1648.0	1648.0	1655.0	1655.0	1655.0	1602.0	1602.0	1657.0	1657.0	1657.0	1666.0	1666.0	1663.0	1663.0	1694.0	1694.0	1694.0	1710.0	1710.0	1652.0	1652.0	1652.0	1660.0	1660.0	1742.0	1742.0	1742.0	1735.0	1735.0	1771.0	1771.0	1771.0	1720.0	1720.0	1802.0	1802.0	1802.0	1771.0	1771.0	1760.0	1760.0	1760.0	1779.0	1779.0	1826.0	1826.0	1826.0	1850.0	1850.0	1847.0	1847.0	1847.0	1864.0	1864.0	1871.0	1871.0	1871.0	1878.0	1878.0	1970.0	1970.0	1970.0	1907.0	1907.0	1981.0	1981.0	1981.0	2009.0	2009.0	1961.0	1961.0	1961.0	2035.0	2035.0	1988.0	1988.0	1988.0	2024.0	2024.0	2070.0	2070.0	2070.0	2078.0	2078.0	2097.0	2097.0	2097.0	2072.0	2072.0	2121.0	2121.0	2121.0	2111.0	2111.0	2127.0	2127.0	2127.0	2111.0	2111.0	2153.0	2153.0	2153.0	2181.0	2181.0	2167.0	2167.0	2167.0	2186.0	2186.0	2198.0	2198.0	2198.0	2158.0	2158.0	2137.0	2137.0	2137.0	2213.0	2213.0	2207.0	2207.0	2207.0	2155.0	2155.0	2151.0	2151.0	2151.0	2161.0	2161.0	2178.0	2178.0	2178.0	2212.0	2212.0	2154.0	2154.0	2154.0	2225.0	2225.0	2190.0	2190.0	2190.0	2230.0	2230.0	2216.0	2216.0	2216.0	2234.0	2234.0	2231.0	2231.0	2231.0	2174.0	2174.0	2170.0	2170.0	2170.0	2173.0	2173.0	2208.0	2208.0	2208.0	2177.0	2177.0	2253.0	2253.0	2253.0	2183.0	2183.0	2179.0	2179.0	2179.0	2211.0	2211.0	2206.0	2206.0	2206.0	2231.0	2231.0	2202.0	2202.0	2202.0	2179.0	2179.0	2215.0	2215.0	2215.0	2175.0	2175.0	2189.0	2189.0	2189.0	2243.0	2243.0	2217.0	2217.0	2217.0	2235.0	2235.0	2169.0	2169.0	2169.0	2222.0	2222.0	2154.0	2154.0	2154.0	2179.0	2179.0	2215.0	2215.0	2215.0	2183.0	2183.0	2189.0	2189.0	2195.0	2195.0	2195.0	2146.0	2146.0	2196.0	2196.0	2196.0	2131.0	2131.0	2151.0	2151.0	2151.0	2162.0	2162.0	2166.0	2166.0	2166.0	2110.0	2110.0	2145.0	2145.0	2145.0	2153.0	2153.0	2091.0	2091.0	2091.0	2128.0	2128.0	2138.0	2138.0	2138.0	2090.0	2090.0	2058.0	2058.0	2058.0	2119.0	2119.0	2078.0	2078.0	2078.0	2045.0	2045.0	2086.0	2086.0	2086.0	2098.0	2098.0	2024.0	2024.0	2024.0	2064.0	2064.0	2084.0	2084.0	2084.0	2026.0	2026.0	2059.0	2059.0	2059.0	2003.0	2003.0	2059.0	2059.0	2059.0	1994.0	1994.0	1979.0	1979.0	1979.0	2027.0	2027.0	1974.0	1974.0	1974.0	2045.0	2045.0	1973.0	1973.0	1973.0	2005.0	2005.0	1982.0	1982.0	1982.0	1969.0	1969.0	1977.0	1977.0	1977.0	1988.0	1988.0	2030.0	2030.0	2030.0	1964.0	1964.0	1955.0	1955.0	1955.0	2002.0	2002.0	1950.0	1950.0	1950.0	1970.0	1970.0	1958.0	1958.0	1958.0	1955.0	1955.0	1931.0	1931.0	1931.0	1939.0	1939.0	2016.0	2016.0	2016.0	1939.0	1939.0	1928.0	1928.0	1928.0	1972.0	1972.0	1996.0	1996.0	1996.0	1945.0	1945.0	1982.0	1982.0	1982.0	1960.0	1960.0	1977.0	1977.0	1977.0	1963.0	1963.0	1964.0	1964.0	1964.0	1911.0	1911.0	1941.0	1941.0	1941.0	1911.0	1911.0	1956.0	1956.0	1956.0	1900.0	1900.0	1947.0	1947.0	1947.0	1893.0	1893.0	1885.0	1885.0	1885.0	1912.0	1912.0	1899.0	1899.0	1899.0	1903.0	1903.0	1943.0	1943.0	1943.0	1906.0	1906.0	1883.0	1883.0	1883.0	1871.0	1871.0	1880.0	1880.0	1880.0	1859.0	1859.0	1887.0	1887.0	1887.0	1855.0	1855.0	1856.0	1856.0	1856.0	1911.0	1911.0	1876.0	1876.0	1915.0	1915.0	1915.0	1895.0	1895.0	1849.0	1849.0	1849.0	1916.0	1916.0	1894.0	1894.0	1894.0	1846.0	1846.0	1863.0	1863.0	1863.0	1866.0	1866.0	1832.0	1832.0	1832.0	1851.0	1851.0	1906.0	1906.0	1906.0	1832.0	1832.0	1842.0	1842.0	1842.0	1836.0	1836.0	1889.0	1889.0	1889.0	1868.0	1868.0	1885.0	1885.0	1885.0	1809.0	1809.0	1809.0	1809.0	1809.0	1837.0	1837.0	1843.0	1843.0	1843.0	1806.0	1806.0	1845.0	1845.0	1845.0	1793.0	1793.0	1836.0	1836.0	1836.0	1842.0	1842.0	1793.0	1793.0	1793.0	1787.0	1787.0	1771.0	1771.0	1771.0	1834.0	1834.0	1818.0	1818.0	1818.0	1791.0	1791.0	1773.0	1773.0	1773.0	1800.0	1800.0	1778.0	1778.0	1778.0	1766.0	1766.0	1842.0	1842.0	1842.0	1795.0	1795.0	1822.0	1822.0	1822.0	1775.0	1775.0	1835.0	1835.0	1835.0	1766.0	1766.0	1796.0	1796.0	1796.0	1789.0	1789.0	1751.0	1751.0	1751.0	1754.0	1754.0	1800.0	1800.0	1800.0	1779.0	1779.0	1770.0	1770.0	1770.0	1739.0	1739.0	1737.0	1737.0	1737.0	1763.0	1763.0	1785.0	1785.0	1785.0	1745.0	1745.0	1735.0	1735.0	1735.0	1725.0	1725.0	1783.0	1783.0	1783.0	1748.0	1748.0	1742.0	1742.0	1742.0	1787.0	1787.0	1776.0	1776.0	1776.0	1800.0	1800.0	1789.0	1789.0	1789.0	1743.0	1743.0	1726.0	1726.0	1726.0	1782.0	1782.0	1764.0	1764.0	1764.0	1784.0	1784.0	1724.0	1724.0	1724.0	1735.0	1735.0	1724.0	1724.0	1724.0	1733.0	1733.0	1733.0	1733.0	1733.0	1781.0	1781.0	1783.0	1783.0	1783.0	1722.0	1722.0	1729.0	1729.0	1729.0	1771.0	1771.0	1721.0	1721.0	1721.0	1706.0	1706.0	1770.0	1770.0	1770.0	1707.0	1707.0	1766.0	1766.0	1767.0	1767.0	1767.0	1707.0	1707.0	1708.0	1708.0	1708.0	1748.0	1748.0	1765.0	1765.0	1765.0	1707.0	1707.0	1697.0	1697.0	1697.0	1773.0	1773.0	1733.0	1733.0	1733.0	1703.0	1703.0	1763.0	1763.0	1763.0	1731.0	1731.0	1710.0	1710.0	1710.0	1761.0	1761.0	1739.0	1739.0	1739.0	1687.0	1687.0	1702.0	1702.0	1702.0	1773.0	1773.0	1723.0	1723.0	1723.0	1724.0	1724.0	1709.0	1709.0	1709.0	1720.0	1720.0	1719.0	1719.0	1719.0	1764.0	1764.0	1715.0	1715.0	1715.0	1719.0	1719.0	1718.0	1718.0	1718.0	1738.0	1738.0	1685.0	1685.0	1685.0	1702.0	1702.0	1673.0	1673.0	1673.0	1687.0	1687.0	1738.0	1738.0	1738.0	1735.0	1735.0	1750.0	1750.0	1750.0	1684.0	1684.0	1689.0	1689.0	1689.0	1682.0	1682.0	1684.0	1684.0	1684.0	1735.0	1735.0	1705.0	1705.0	1705.0	1757.0	1757.0	1745.0	1745.0	1745.0	1707.0	1707.0	1767.0	1767.0	1767.0	1688.0	1688.0	1764.0	1764.0	1764.0	1739.0	1739.0	1727.0	1727.0	1727.0	1714.0	1714.0	1707.0	1707.0	1707.0	1699.0	1699.0	1708.0	1708.0	1708.0	1765.0	1765.0	1730.0	1730.0	1730.0	1712.0	1712.0	1696.0	1696.0	1696.0	1730.0	1730.0	1737.0	1737.0	1737.0	1687.0	1687.0	1747.0	1747.0	1747.0	1729.0	1729.0	1714.0	1714.0	1714.0	1696.0	1696.0	1745.0	1745.0	1745.0	1697.0	1697.0	1689.0	1689.0	1689.0	1696.0	1696.0	1693.0	1693.0	1693.0	1694.0	1694.0	1745.0	1745.0	1745.0	1760.0	1760.0	1710.0	1710.0	1710.0	1744.0	1744.0	1722.0	1722.0	1722.0	1777.0	1777.0	1806.0	1806.0	1806.0	1784.0	1784.0	1830.0	1830.0	1830.0	1814.0	1814.0	1789.0	1789.0	1857.0	1857.0	1857.0	1868.0	1868.0	1870.0	1870.0	1870.0	1876.0	1876.0	1854.0	1854.0	1854.0	1926.0	1926.0	1946.0	1946.0	1946.0	1948.0	1948.0	1964.0	1964.0	1964.0	1987.0	1987.0	1938.0	1938.0	1938.0	2001.0	2001.0	2047.0	2047.0	2047.0	2028.0	2028.0	2012.0	2012.0	2012.0	2041.0	2041.0	2092.0	2092.0	2092.0	2124.0	2124.0	2141.0	2141.0	2141.0	2143.0	2143.0	2096.0	2096.0	2096.0	2109.0	2109.0	2136.0	2136.0	2136.0	2178.0	2178.0	2194.0	2194.0	2194.0	2166.0	2166.0	2185.0	2185.0	2185.0	2227.0	2227.0	2228.0	2228.0	2228.0	2260.0	2260.0	2253.0	2253.0	2253.0	2261.0	2261.0	2204.0	2204.0	2204.0	2202.0	2202.0	2257.0	2257.0	2257.0	2220.0	2220.0	2286.0	2286.0	2286.0	2204.0	2204.0	2210.0	2210.0	2210.0	2216.0	2216.0	2283.0	2283.0	2283.0	2231.0	2231.0	2220.0	2220.0	2220.0	2216.0	2216.0	2276.0	2276.0	2276.0	2282.0	2282.0	2235.0	2235.0	2235.0	2263.0	2263.0	2253.0	2253.0	2253.0	2246.0	2246.0	2223.0	2223.0	2223.0	2247.0	2247.0	2236.0	2236.0	2236.0	2224.0	2224.0	2285.0	2285.0	2285.0	2301.0	2301.0	2248.0	2248.0	2248.0	2282.0	2282.0	2281.0	2281.0	2281.0	2216.0	2216.0	2236.0	2236.0	2236.0	2255.0	2255.0	2219.0	2219.0	2219.0	2217.0	2217.0	2223.0	2223.0	2223.0	2243.0	2243.0	2277.0	2277.0	2277.0	2223.0	2223.0	2248.0	2248.0	2248.0	2275.0	2275.0	2229.0	2229.0	2229.0	2202.0	2202.0	2267.0	2267.0	2267.0	2259.0	2259.0	2243.0	2243.0	2243.0	2194.0	2194.0	2182.0	2182.0	2182.0	2202.0	2202.0	2165.0	2165.0	2165.0	2183.0	2183.0	2180.0	2180.0	2160.0	2160.0	2160.0	2173.0	2173.0	2198.0	2198.0	2198.0	2182.0	2182.0	2158.0	2158.0	2158.0	2179.0	2179.0	2164.0	2164.0	2164.0	2118.0	2118.0	2144.0	2144.0	2144.0	2150.0	2150.0	2081.0	2081.0	2081.0	2083.0	2083.0	2130.0	2130.0	2130.0	2142.0	2142.0	2078.0	2078.0	2078.0	2111.0	2111.0	2131.0	2131.0	2131.0	2071.0	2071.0	2071.0	2071.0	2071.0	2081.0	2081.0	2072.0	2072.0	2072.0	2044.0	2044.0	2101.0	2101.0	2101.0	2035.0	2035.0	2091.0	2091.0	2091.0	2072.0	2072.0	2035.0	2035.0	2035.0	2047.0	2047.0	2031.0	2031.0	2031.0	2094.0	2094.0	2075.0	2075.0	2075.0	2085.0	2085.0	2003.0	2003.0	2003.0	2086.0	2086.0	2016.0	2016.0	2016.0	2067.0	2067.0	1993.0	1993.0	1993.0	2040.0	2040.0	1991.0	1991.0	1991.0	2036.0	2036.0	2003.0	2003.0	2003.0	1989.0	1989.0	2002.0	2002.0	2002.0	2038.0	2038.0	1996.0	1996.0	1996.0	2028.0	2028.0	2019.0	2019.0	2019.0	1988.0	1988.0	2012.0	2012.0	2012.0	1978.0	1978.0	2000.0	2000.0	2000.0	1982.0	1982.0	2004.0	2004.0	2004.0	2023.0	2023.0	2018.0	2018.0	2018.0	2000.0	2000.0	1954.0	1954.0	1954.0	1939.0	1939.0	2017.0	2017.0	2017.0	1945.0	1945.0	1985.0	1985.0	1985.0	1948.0	1948.0	2009.0	2009.0	2009.0	1998.0	1998.0	2002.0	2002.0	2002.0	1937.0	1937.0	1928.0	1928.0	1928.0	1940.0	1940.0	2003.0	2003.0	2003.0	1985.0	1985.0	1920.0	1920.0	1920.0	1974.0	1974.0	1941.0	1941.0	1941.0	1961.0	1961.0	1983.0	1983.0	1983.0	1980.0	1980.0	1971.0	1971.0	1971.0	1904.0	1904.0	1938.0	1938.0	1938.0	1958.0	1958.0	1972.0	1972.0	1972.0	1897.0	1897.0	1958.0	1958.0	1905.0	1905.0	1905.0	1940.0	1940.0	1880.0	1880.0	1880.0	1914.0	1914.0	1955.0	1955.0	1955.0	1905.0	1905.0	1872.0	1872.0	1872.0	1899.0	1899.0	1940.0	1940.0	1940.0	1933.0	1933.0	1924.0	1924.0	1924.0	1912.0	1912.0	1852.0	1852.0	1852.0	1893.0	1893.0	1852.0	1852.0	1852.0	1915.0	1915.0	1874.0	1874.0	1874.0	1854.0	1854.0	1841.0	1841.0	1841.0	1834.0	1834.0	1830.0	1830.0	1830.0	1825.0	1825.0	1857.0	1857.0	1857.0	1850.0	1850.0	1836.0	1836.0	1836.0	1878.0	1878.0	1863.0	1863.0	1863.0	1809.0	1809.0	1852.0	1852.0	1852.0	1825.0	1825.0	1814.0	1814.0	1814.0	1805.0	1805.0	1854.0	1854.0	1854.0	1811.0	1811.0	1832.0	1832.0	1832.0	1817.0	1817.0	1824.0	1824.0	1824.0	1823.0	1823.0	1838.0	1838.0	1838.0	1797.0	1797.0	1841.0	1841.0	1841.0	1796.0	1796.0	1788.0	1788.0	1788.0	1846.0	1846.0	1847.0	1847.0	1847.0	1841.0	1841.0	1778.0	1778.0	1778.0	1811.0	1811.0	1774.0	1774.0	1774.0	1784.0	1784.0	1832.0	1832.0	1832.0	1771.0	1771.0	1793.0	1793.0	1793.0	1779.0	1779.0	1816.0	1816.0	1816.0	1761.0	1761.0	1829.0	1829.0	1829.0	1787.0	1787.0	1835.0	1835.0	1835.0	1766.0	1766.0	1787.0	1787.0	1787.0	1762.0	1762.0	1792.0	1792.0	1792.0	1809.0	1809.0	1826.0	1826.0	1826.0	1776.0	1776.0	1747.0	1747.0	1747.0	1751.0	1751.0	1766.0	1766.0	1766.0	1812.0	1812.0	1751.0	1751.0	1751.0	1762.0	1762.0	1769.0	1769.0	1769.0	1771.0	1771.0	1769.0	1769.0	1769.0	1812.0	1812.0	1820.0	1820.0	1820.0	1751.0	1751.0	1755.0	1755.0	1755.0	1763.0	1763.0	1801.0	1801.0	1779.0	1779.0	1779.0	1803.0	1803.0	1752.0	1752.0	1752.0	1779.0	1779.0	1758.0	1758.0	1758.0	1742.0	1742.0	1780.0	1780.0	1780.0	1747.0	1747.0	1796.0	1796.0	1796.0	1763.0	1763.0	1791.0	1791.0	1791.0	1816.0	1816.0	1767.0	1767.0	1767.0	1787.0	1787.0	1743.0	1743.0	1743.0	1747.0	1747.0	1734.0	1734.0	1734.0	1800.0	1800.0	1739.0	1739.0	1739.0	1767.0	1767.0	1740.0	1740.0	1740.0	1804.0	1804.0	1760.0	1760.0	1760.0	1746.0	1746.0	1744.0	1744.0	1744.0	1749.0	1749.0	1790.0	1790.0	1790.0	1791.0	1791.0	1740.0	1740.0	1740.0	1790.0	1790.0	1816.0	1816.0	1816.0	1818.0	1818.0	1764.0	1764.0	1764.0	1788.0	1788.0	1758.0	1758.0	1758.0	1785.0	1785.0	1753.0	1753.0	1753.0	1761.0	1761.0	1753.0	1753.0	1753.0	1761.0	1761.0	1776.0	1776.0	1776.0	1757.0	1757.0	1816.0	1816.0	1816.0	1774.0	1774.0	1824.0	1824.0	1824.0	1790.0	1790.0	1846.0	1846.0	1846.0	1842.0	1842.0	1791.0	1791.0	1791.0	1837.0	1837.0	1765.0	1765.0	1765.0	1833.0	1833.0	1800.0	1800.0	1800.0	1829.0	1829.0	1820.0	1820.0	1820.0	1797.0	1797.0	1839.0	1839.0	1839.0	1824.0	1824.0	1815.0	1815.0	1815.0	1764.0	1764.0	1781.0	1781.0	1781.0	1803.0	1803.0	1778.0	1778.0	1778.0	1831.0	1831.0	1787.0	1787.0	1787.0	1783.0	1783.0	1820.0	1820.0	1820.0	1875.0	1875.0	1809.0	1809.0	1809.0	1808.0	1808.0	1875.0	1875.0	1875.0	1807.0	1807.0	1823.0	1823.0	1823.0	1839.0	1839.0	1880.0	1880.0	1880.0	1849.0	1849.0	1926.0	1926.0	1926.0	1865.0	1865.0	1883.0	1883.0	1883.0	1920.0	1920.0	1924.0	1924.0	1924.0	1976.0	1976.0	1936.0	1936.0	1955.0	1955.0	1955.0	1980.0	1980.0	2053.0	2053.0	2053.0	2034.0	2034.0	2032.0	2032.0	2032.0	2086.0	2086.0	2050.0	2050.0	2050.0	2092.0	2092.0	2123.0	2123.0	2123.0	2094.0	2094.0	2151.0	2151.0	2151.0	2163.0	2163.0	2213.0	2213.0	2213.0	2210.0	2210.0	2166.0	2166.0	2166.0	2237.0	2237.0	2195.0	2195.0	2195.0	2214.0	2214.0	2268.0	2268.0	2268.0	2206.0	2206.0	2225.0	2225.0	2225.0	2221.0	2221.0	2289.0	2289.0	2289.0	2243.0	2243.0	2228.0	2228.0	2228.0	2250.0	2250.0	2293.0	2293.0	2293.0	2249.0	2249.0	2248.0	2248.0	2248.0	2310.0	2310.0	2252.0	2252.0	2252.0	2257.0	2257.0	2251.0	2251.0	2251.0	2318.0	2318.0	2271.0	2271.0	2271.0	