1850.0	1879.0	1879.0	1843.0	1843.0	1843.0	1916.0	1916.0	1857.0	1857.0	1857.0	1909.0	1909.0	1825.0	1825.0	1825.0	1901.0	1901.0	1865.0	1865.0	1865.0	1863.0	1863.0	1826.0	1826.0	1826.0	1886.0	1886.0	1814.0	1814.0	1814.0	1865.0	1865.0	1865.0	1865.0	1865.0	1853.0	1853.0	1885.0	1885.0	1885.0	1815.0	1815.0	1808.0	1808.0	1808.0	1823.0	1823.0	1823.0	1823.0	1823.0	1818.0	1818.0	1857.0	1857.0	1857.0	1862.0	1862.0	1838.0	1838.0	1838.0	1869.0	1869.0	1831.0	1831.0	1831.0	1879.0	1879.0	1879.0	1879.0	1879.0	1831.0	1831.0	1863.0	1863.0	1863.0	1808.0	1808.0	1803.0	1803.0	1803.0	1878.0	1878.0	1798.0	1798.0	1798.0	1845.0	1845.0	1827.0	1827.0	1827.0	1874.0	1874.0	1839.0	1839.0	1839.0	1807.0	1807.0	1827.0	1827.0	1827.0	1816.0	1816.0	1874.0	1874.0	1874.0	1820.0	1820.0	1798.0	1798.0	1798.0	1852.0	1852.0	1882.0	1882.0	1882.0	1799.0	1799.0	1801.0	1801.0	1801.0	1880.0	1880.0	1842.0	1842.0	1842.0	1858.0	1858.0	1812.0	1812.0	1812.0	1801.0	1801.0	1798.0	1798.0	1798.0	1798.0	1798.0	1797.0	1797.0	1797.0	1804.0	1804.0	1868.0	1868.0	1868.0	1873.0	1873.0	1857.0	1857.0	1857.0	1831.0	1831.0	1807.0	1807.0	1807.0	1867.0	1867.0	1796.0	1796.0	1796.0	1809.0	1809.0	1811.0	1811.0	1811.0	1822.0	1822.0	1847.0	1847.0	1847.0	1816.0	1816.0	1807.0	1807.0	1807.0	1863.0	1863.0	1845.0	1845.0	1845.0	1800.0	1800.0	1865.0	1865.0	1865.0	1855.0	1855.0	1873.0	1873.0	1873.0	1821.0	1821.0	1869.0	1869.0	1869.0	1816.0	1816.0	1863.0	1863.0	1863.0	1820.0	1820.0	1809.0	1809.0	1809.0	1819.0	1819.0	1862.0	1862.0	1879.0	1879.0	1879.0	1870.0	1870.0	1812.0	1812.0	1812.0	1831.0	1831.0	1875.0	1875.0	1875.0	1809.0	1809.0	1802.0	1802.0	1802.0	1805.0	1805.0	1874.0	1874.0	1874.0	1857.0	1857.0	1844.0	1844.0	1844.0	1886.0	1886.0	1883.0	1883.0	1883.0	1892.0	1892.0	1823.0	1823.0	1823.0	1853.0	1853.0	1846.0	1846.0	1846.0	1837.0	1837.0	1847.0	1847.0	1847.0	1863.0	1863.0	1916.0	1916.0	1916.0	1888.0	1888.0	1873.0	1873.0	1873.0	1883.0	1883.0	1883.0	1883.0	1883.0	1904.0	1904.0	1963.0	1963.0	1963.0	1920.0	1920.0	1919.0	1919.0	1919.0	1999.0	1999.0	1953.0	1953.0	1953.0	1952.0	1952.0	1964.0	1964.0	1964.0	2027.0	2027.0	2012.0	2012.0	2012.0	2002.0	2002.0	2004.0	2004.0	2004.0	2023.0	2023.0	2053.0	2053.0	2053.0	2114.0	2114.0	2063.0	2063.0	2063.0	2085.0	2085.0	2129.0	2129.0	2129.0	2120.0	2120.0	2105.0	2105.0	2105.0	2178.0	2178.0	2176.0	2176.0	2176.0	2183.0	2183.0	2143.0	2143.0	2143.0	2156.0	2156.0	2248.0	2248.0	2248.0	2189.0	2189.0	2213.0	2213.0	2213.0	2262.0	2262.0	2220.0	2220.0	2220.0	2242.0	2242.0	2263.0	2263.0	2263.0	2313.0	2313.0	2295.0	2295.0	2295.0	2272.0	2272.0	2345.0	2345.0	2345.0	2299.0	2299.0	2346.0	2346.0	2346.0	2307.0	2307.0	2316.0	2316.0	2316.0	2313.0	2313.0	2334.0	2334.0	2334.0	2372.0	2372.0	2386.0	2386.0	2386.0	2424.0	2424.0	2376.0	2376.0	2376.0	2428.0	2428.0	2361.0	2361.0	2361.0	2425.0	2425.0	2406.0	2406.0	2406.0	2422.0	2422.0	2425.0	2425.0	2425.0	2404.0	2404.0	2446.0	2446.0	2446.0	2451.0	2451.0	2386.0	2386.0	2382.0	2382.0	2382.0	2453.0	2453.0	2443.0	2443.0	2443.0	2395.0	2395.0	2407.0	2407.0	2407.0	2455.0	2455.0	2447.0	2447.0	2447.0	2415.0	2415.0	2410.0	2410.0	2410.0	2402.0	2402.0	2461.0	2461.0	2461.0	2422.0	2422.0	2449.0	2449.0	2449.0	2411.0	2411.0	2404.0	2404.0	2404.0	2462.0	2462.0	2387.0	2387.0	2387.0	2441.0	2441.0	2400.0	2400.0	2400.0	2401.0	2401.0	2379.0	2379.0	2379.0	2415.0	2415.0	2425.0	2425.0	2425.0	2437.0	2437.0	2364.0	2364.0	2364.0	2366.0	2366.0	2425.0	2425.0	2425.0	2353.0	2353.0	2417.0	2417.0	2417.0	2363.0	2363.0	2420.0	2420.0	2420.0	2390.0	2390.0	2341.0	2341.0	2341.0	2323.0	2323.0	2390.0	2390.0	2390.0	2343.0	2343.0	2325.0	2325.0	2325.0	2311.0	2311.0	2307.0	2307.0	2307.0	2345.0	2345.0	2319.0	2319.0	2319.0	2349.0	2349.0	2303.0	2303.0	2303.0	2287.0	2287.0	2273.0	2273.0	2273.0	2266.0	2266.0	2320.0	2320.0	2320.0	2308.0	2308.0	2294.0	2294.0	2294.0	2302.0	2302.0	2297.0	2297.0	2297.0	2286.0	2286.0	2249.0	2249.0	2249.0	2261.0	2261.0	2238.0	2238.0	2238.0	2267.0	2267.0	2198.0	2198.0	2198.0	2268.0	2268.0	2242.0	2242.0	2242.0	2187.0	2187.0	2232.0	2232.0	2232.0	2191.0	2191.0	2192.0	2192.0	2192.0	2210.0	2210.0	2161.0	2161.0	2161.0	2187.0	2187.0	2182.0	2182.0	2182.0	2201.0	2201.0	2165.0	2165.0	2165.0	2163.0	2163.0	2165.0	2165.0	2165.0	2229.0	2229.0	2212.0	2212.0	2212.0	2160.0	2160.0	2169.0	2169.0	2169.0	2155.0	2155.0	2171.0	2171.0	2171.0	2199.0	2199.0	2171.0	2171.0	2171.0	2133.0	2133.0	2184.0	2184.0	2187.0	2187.0	2187.0	2190.0	2190.0	2135.0	2135.0	2135.0	2171.0	2171.0	2186.0	2186.0	2186.0	2178.0	2178.0	2114.0	2114.0	2114.0	2134.0	2134.0	2102.0	2102.0	2102.0	2130.0	2130.0	2173.0	2173.0	2173.0	2170.0	2170.0	2096.0	2096.0	2096.0	2088.0	2088.0	2103.0	2103.0	2103.0	2115.0	2115.0	2068.0	2068.0	2068.0	2098.0	2098.0	2098.0	2098.0	2098.0	2081.0	2081.0	2114.0	2114.0	2114.0	2065.0	2065.0	2045.0	2045.0	2045.0	2103.0	2103.0	2070.0	2070.0	2070.0	2037.0	2037.0	2100.0	2100.0	2100.0	2063.0	2063.0	2085.0	2085.0	2085.0	2064.0	2064.0	2085.0	2085.0	2085.0	2094.0	2094.0	2041.0	2041.0	2041.0	2050.0	2050.0	2059.0	2059.0	2059.0	2068.0	2068.0	2073.0	2073.0	2073.0	2069.0	2069.0	2033.0	2033.0	2033.0	2016.0	2016.0	2070.0	2070.0	2070.0	1984.0	1984.0	2046.0	2046.0	2046.0	2023.0	2023.0	2052.0	2052.0	2052.0	2038.0	2038.0	2009.0	2009.0	2009.0	2002.0	2002.0	1999.0	1999.0	1999.0	2035.0	2035.0	2040.0	2040.0	2040.0	1967.0	1967.0	2012.0	2012.0	2012.0	2025.0	2025.0	2016.0	2016.0	2016.0	1955.0	1955.0	2022.0	2022.0	2022.0	1990.0	1990.0	1965.0	1965.0	1965.0	1981.0	1981.0	1998.0	1998.0	1998.0	2007.0	2007.0	1984.0	1984.0	1984.0	1945.0	1945.0	1958.0	1958.0	1958.0	1923.0	1923.0	1923.0	1923.0	1923.0	1932.0	1932.0	1919.0	1919.0	1919.0	1928.0	1928.0	1926.0	1926.0	1926.0	1915.0	1915.0	1918.0	1918.0	1918.0	1972.0	1972.0	1966.0	1966.0	1966.0	1911.0	1911.0	1903.0	1903.0	1903.0	1888.0	1888.0	1916.0	1916.0	1916.0	1936.0	1936.0	1915.0	1915.0	1915.0	1925.0	1925.0	1910.0	1910.0	1879.0	1879.0	1879.0	1945.0	1945.0	1935.0	1935.0	1935.0	1877.0	1877.0	1901.0	1901.0	1901.0	1908.0	1908.0	1869.0	1869.0	1869.0	1875.0	1875.0	1867.0	1867.0	1867.0	1863.0	1863.0	1935.0	1935.0	1935.0	1862.0	1862.0	1924.0	1924.0	1924.0	1877.0	1877.0	1840.0	1840.0	1840.0	1874.0	1874.0	1908.0	1908.0	1908.0	1878.0	1878.0	1858.0	1858.0	1858.0	1911.0	1911.0	1845.0	1845.0	1845.0	1842.0	1842.0	1860.0	1860.0	1860.0	1834.0	1834.0	1899.0	1899.0	1899.0	1859.0	1859.0	1895.0	1895.0	1895.0	1886.0	1886.0	1897.0	1897.0	1897.0	1825.0	1825.0	1873.0	1873.0	1873.0	1855.0	1855.0	1908.0	1908.0	1908.0	1876.0	1876.0	1847.0	1847.0	1847.0	1830.0	1830.0	1888.0	1888.0	1888.0	1855.0	1855.0	1900.0	1900.0	1900.0	1824.0	1824.0	1810.0	1810.0	1810.0	1832.0	1832.0	1891.0	1891.0	1891.0	1813.0	1813.0	1847.0	1847.0	1847.0	1856.0	1856.0	1833.0	1833.0	1833.0	1864.0	1864.0	1808.0	1808.0	1808.0	1849.0	1849.0	1842.0	1842.0	1842.0	1832.0	1832.0	1876.0	1876.0	1876.0	1827.0	1827.0	1843.0	1843.0	1843.0	1822.0	1822.0	1830.0	1830.0	1830.0	1835.0	1835.0	1875.0	1875.0	1875.0	1852.0	1852.0	1864.0	1864.0	1864.0	1849.0	1849.0	1852.0	1852.0	1852.0	1820.0	1820.0	1811.0	1811.0	1811.0	1836.0	1836.0	1882.0	1882.0	1882.0	1875.0	1875.0	1840.0	1840.0	1840.0	1827.0	1827.0	1824.0	1824.0	1824.0	1878.0	1878.0	1849.0	1849.0	1849.0	1839.0	1839.0	1864.0	1864.0	1864.0	1826.0	1826.0	1864.0	1864.0	1864.0	1884.0	1884.0	1877.0	1877.0	1877.0	1827.0	1827.0	1865.0	1865.0	1819.0	1819.0	1819.0	1850.0	1850.0	1812.0	1812.0	1812.0	1861.0	1861.0	1836.0	1836.0	1836.0	1839.0	1839.0	1822.0	1822.0	1822.0	1834.0	1834.0	1842.0	1842.0	1842.0	1832.0	1832.0	1921.0	1921.0	1921.0	1856.0	1856.0	1918.0	1918.0	1918.0	1929.0	1929.0	1888.0	1888.0	1888.0	1903.0	1903.0	1910.0	1910.0	1910.0	1912.0	1912.0	1981.0	1981.0	1981.0	1958.0	1958.0	2012.0	2012.0	2012.0	1962.0	1962.0	1987.0	1987.0	1987.0	1987.0	1987.0	2071.0	2071.0	2071.0	2024.0	2024.0	2070.0	2070.0	2070.0	2089.0	2089.0	2070.0	2070.0	2070.0	2087.0	2087.0	2097.0	2097.0	2097.0	2135.0	2135.0	2127.0	2127.0	2127.0	2193.0	2193.0	2165.0	2165.0	2165.0	2231.0	2231.0	2263.0	2263.0	2263.0	2233.0	2233.0	2269.0	2269.0	2269.0	2259.0	2259.0	2247.0	2247.0	2247.0	2262.0	2262.0	2294.0	2294.0	2294.0	2294.0	2294.0	2292.0	2292.0	2292.0	2300.0	2300.0	2310.0	2310.0	2310.0	2387.0	2387.0	2387.0	2387.0	2387.0	2405.0	2405.0	2348.0	2348.0	2348.0	2361.0	2361.0	2344.0	2344.0	2344.0	2365.0	2365.0	2362.0	2362.0	2362.0	2360.0	2360.0	2424.0	2424.0	2424.0	2416.0	2416.0	2397.0	2397.0	2397.0	2379.0	2379.0	2393.0	2393.0	2393.0	2438.0	2438.0	2440.0	2440.0	2440.0	2399.0	2399.0	2425.0	2425.0	2425.0	2435.0	2435.0	2392.0	2392.0	2392.0	2445.0	2445.0	2449.0	2449.0	2449.0	2405.0	2405.0	2397.0	2397.0	2397.0	2420.0	2420.0	2452.0	2452.0	2452.0	2408.0	2408.0	2447.0	2447.0	2447.0	2439.0	2439.0	2404.0	2404.0	2404.0	2390.0	2390.0	2450.0	2450.0	2450.0	2465.0	2465.0	2458.0	2458.0	2458.0	2460.0	2460.0	2467.0	2467.0	2450.0	2450.0	2450.0	2458.0	2458.0	2394.0	2394.0	2394.0	2388.0	2388.0	2455.0	2455.0	2455.0	2420.0	2420.0	2437.0	2437.0	2437.0	2444.0	2444.0	2394.0	2394.0	2394.0	2373.0	2373.0	2367.0	2367.0	2367.0	2415.0	2415.0	2357.0	2357.0	2357.0	2420.0	2420.0	2366.0	2366.0	2366.0	2356.0	2356.0	2356.0	2356.0	2356.0	2419.0	2419.0	2384.0	2384.0	2384.0	2317.0	2317.0	2359.0	2359.0	2359.0	2357.0	2357.0	2360.0	2360.0	2360.0	2312.0	2312.0	2291.0	2291.0	2291.0	2277.0	2277.0	2276.0	2276.0	2276.0	2276.0	2276.0	2329.0	2329.0	2329.0	2318.0	2318.0	2276.0	2276.0	2276.0	2237.0	2237.0	2255.0	2255.0	2255.0	2242.0	2242.0	2228.0	2228.0	2228.0	2230.0	2230.0	2277.0	2277.0	2277.0	2247.0	2247.0	2224.0	2224.0	2224.0	2226.0	2226.0	2261.0	2261.0	2261.0	2244.0	2244.0	2175.0	2175.0	2175.0	2231.0	2231.0	2232.0	2232.0	2232.0	2188.0	2188.0	2152.0	2152.0	2152.0	2197.0	2197.0	2137.0	2137.0	2137.0	2162.0	2162.0	2214.0	2214.0	2214.0	2156.0	2156.0	2196.0	2196.0	2196.0	2186.0	2186.0	2142.0	2142.0	2142.0	2179.0	2179.0	2177.0	2177.0	2177.0	2141.0	2141.0	2171.0	2171.0	2171.0	2100.0	2100.0	2158.0	2158.0	2158.0	2153.0	2153.0	2086.0	2086.0	2086.0	2119.0	2119.0	2118.0	2118.0	2118.0	2087.0	2087.0	2123.0	2123.0	2123.0	2136.0	2136.0	2138.0	2138.0	2138.0	2076.0	2076.0	2059.0	2059.0	2059.0	2068.0	2068.0	2058.0	2058.0	2058.0	2116.0	2116.0	2093.0	2093.0	2093.0	2089.0	2089.0	2033.0	2033.0	2033.0	2028.0	2028.0	2039.0	2039.0	2039.0	2016.0	2016.0	2052.0	2052.0	2021.0	2021.0	2021.0	2008.0	2008.0	1999.0	1999.0	1999.0	2059.0	2059.0	2059.0	2059.0	2059.0	2004.0	2004.0	2046.0	2046.0	2046.0	2010.0	2010.0	1982.0	1982.0	1982.0	1989.0	1989.0	2033.0	2033.0	2033.0	2012.0	2012.0	2032.0	2032.0	2032.0	1997.0	1997.0	2011.0	2011.0	2011.0	1982.0	1982.0	1955.0	1955.0	1955.0	1992.0	1992.0	1956.0	1956.0	1956.0	1967.0	1967.0	1991.0	1991.0	1991.0	1948.0	1948.0	1959.0	1959.0	1959.0	1958.0	1958.0	1941.0	1941.0	1941.0	1988.0	1988.0	1983.0	1983.0	1983.0	1954.0	1954.0	1922.0	1922.0	1922.0	1992.0	1992.0	1971.0	1971.0	1971.0	1919.0	1919.0	1921.0	1921.0	1921.0	1923.0	1923.0	1983.0	1983.0	1983.0	1952.0	1952.0	1950.0	1950.0	1950.0	1910.0	1910.0	1915.0	1915.0	1915.0	1983.0	1983.0	1954.0	1954.0	1954.0	1898.0	1898.0	1890.0	1890.0	1890.0	1950.0	1950.0	1960.0	1960.0	1960.0	1926.0	1926.0	1939.0	1939.0	1939.0	1899.0	1899.0	1884.0	1884.0	1884.0	1947.0	1947.0	1925.0	1925.0	1925.0	1910.0	1910.0	1886.0	1886.0	1886.0	1903.0	1903.0	1878.0	1878.0	1878.0	1943.0	1943.0	1860.0	1860.0	1860.0	1869.0	1869.0	1870.0	1870.0	1870.0	1929.0	1929.0	1908.0	1908.0	1908.0	1927.0	1927.0	1903.0	1903.0	1903.0	1895.0	1895.0	1873.0	1873.0	1873.0	1907.0	1907.0	1858.0	1858.0	1858.0	1920.0	1920.0	1901.0	1901.0	1901.0	1910.0	1910.0	1858.0	1858.0	1858.0	1891.0	1891.0	1891.0	1891.0	1891.0	1859.0	1859.0	1878.0	1878.0	1878.0	1847.0	1847.0	1826.0	1826.0	1826.0	1885.0	1885.0	1834.0	1834.0	1834.0	1867.0	1867.0	1841.0	1841.0	1857.0	1857.0	1857.0	1819.0	1819.0	1820.0	1820.0	1820.0	1878.0	1878.0	1868.0	1868.0	1868.0	1809.0	1809.0	1802.0	1802.0	1802.0	1831.0	1831.0	1808.0	1808.0	1808.0	1867.0	1867.0	1835.0	1835.0	1835.0	1860.0	1860.0	1805.0	1805.0	1805.0	1879.0	1879.0	1807.0	1807.0	1807.0	1824.0	1824.0	1866.0	1866.0	1866.0	1809.0	1809.0	1809.0	1809.0	1809.0	1879.0	1879.0	1876.0	1876.0	1876.0	1853.0	1853.0	1843.0	1843.0	1843.0	1825.0	1825.0	1807.0	1807.0	1807.0	1873.0	1873.0	1830.0	1830.0	1830.0	1815.0	1815.0	1822.0	1822.0	1822.0	1795.0	1795.0	1833.0	1833.0	1833.0	1866.0	1866.0	1788.0	1788.0	1788.0	1796.0	1796.0	1862.0	1862.0	1862.0	1785.0	1785.0	1791.0	1791.0	1791.0	1836.0	1836.0	1857.0	1857.0	1857.0	1795.0	1795.0	1816.0	1816.0	1816.0	1824.0	1824.0	1834.0	1834.0	1834.0	1865.0	1865.0	1792.0	1792.0	1792.0	1785.0	1785.0	1788.0	1788.0	1788.0	1842.0	1842.0	1850.0	1850.0	1850.0	1834.0	1834.0	1801.0	1801.0	1801.0	1826.0	1826.0	1776.0	1776.0	1776.0	1835.0	1835.0	1792.0	1792.0	1792.0	1845.0	1845.0	1783.0	1783.0	1783.0	1859.0	1859.0	1811.0	1811.0	1811.0	1806.0	1806.0	1856.0	1856.0	1856.0	1821.0	1821.0	1863.0	1863.0	1863.0	1821.0	1821.0	1825.0	1825.0	1825.0	1827.0	1827.0	1799.0	1799.0	1799.0	1828.0	1828.0	1846.0	1846.0	1846.0	1794.0	1794.0	1849.0	1849.0	1849.0	1805.0	1805.0	1864.0	1864.0	1864.0	1849.0	1849.0	1842.0	1842.0	1842.0	1850.0	1850.0	1829.0	1829.0	1829.0	1826.0	1826.0	1844.0	1844.0	1844.0	1857.0	1857.0	1829.0	1829.0	1829.0	1841.0	1841.0	1863.0	1863.0	1883.0	1883.0	1883.0	1866.0	1866.0	1890.0	1890.0	1890.0	1924.0	1924.0	1932.0	1932.0	1932.0	1870.0	1870.0	1923.0	1923.0	1923.0	1879.0	1879.0	1920.0	1920.0	1920.0	1902.0	1902.0	1915.0	1915.0	1915.0	1947.0	1947.0	1935.0	1935.0	1935.0	1950.0	1950.0	1994.0	1994.0	1994.0	2030.0	2030.0	1980.0	1980.0	1980.0	2022.0	2022.0	2002.0	2002.0	2002.0	2086.0	2086.0	2027.0	2027.0	2027.0	2119.0	2119.0	2077.0	2077.0	2077.0	2075.0	2075.0	2101.0	2101.0	2101.0	2164.0	2164.0	2123.0	2123.0	2123.0	2183.0	2183.0	2193.0	2193.0	2193.0	2191.0	2191.0	2210.0	2210.0	2210.0	2169.0	2169.0	2236.0	2236.0	2236.0	2198.0	2198.0	2242.0	2242.0	2242.0	2212.0	2212.0	2249.0	2249.0	2249.0	2257.0	2257.0	2236.0	2236.0	2236.0	2282.0	2282.0	2301.0	2301.0	2301.0	2303.0	2303.0	2250.0	2250.0	2250.0	2295.0	2295.0	2286.0	2286.0	2286.0	2283.0	2283.0	2341.0	2341.0	2341.0	2299.0	2299.0	2306.0	2306.0	2306.0	2350.0	2350.0	2374.0	2374.0	2374.0	2339.0	2339.0	2319.0	2319.0	2319.0	2398.0	2398.0	2326.0	2326.0	2326.0	2364.0	2364.0	2358.0	2358.0	2358.0	2339.0	2339.0	2348.0	2348.0	2348.0	2343.0	2343.0	2410.0	2410.0	2410.0	2363.0	2363.0	2411.0	2411.0	2411.0	2403.0	2403.0	2415.0	2415.0	2415.0	2352.0	2352.0	2366.0	2366.0	2366.0	2360.0	2360.0	2350.0	2350.0	2350.0	2410.0	2410.0	2356.0	2356.0	2356.0	2358.0	2358.0	2370.0	2370.0	2370.0	2368.0	2368.0	2377.0	2377.0	2377.0	2377.0	2377.0	2440.0	2440.0	2440.0	2360.0	2360.0	2390.0	2390.0	2390.0	2423.0	2423.0	2416.0	2416.0	2402.0	2402.0	2402.0	2430.0	2430.0	2416.0	2416.0	2416.0	2379.0	2379.0	2379.0	2379.0	2379.0	2393.0	2393.0	2429.0	2429.0	2429.0	2417.0	2417.0	2399.0	2399.0	2399.0	2389.0	2389.0	2402.0	2402.0	2402.0	2350.0	2350.0	2380.0	2380.0	2380.0	2365.0	2365.0	2413.0	2413.0	2413.0	2380.0	2380.0	2339.0	2339.0	2339.0	2360.0	2360.0	2386.0	2386.0	2386.0	2364.0	2364.0	2360.0	2360.0	2360.0	2336.0	2336.0	2366.0	2366.0	