1708.0	1708.0	1635.0	1635.0	1602.0	1602.0	1602.0	1597.0	1597.0	1570.0	1570.0	1570.0	1559.0	1559.0	1559.0	1559.0	1559.0	1541.0	1541.0	1535.0	1535.0	1535.0	1539.0	1539.0	1540.0	1540.0	1540.0	1525.0	1525.0	1526.0	1526.0	1526.0	1536.0	1536.0	1532.0	1532.0	1532.0	1521.0	1521.0	1528.0	1528.0	1528.0	1520.0	1520.0	1525.0	1525.0	1525.0	1523.0	1523.0	1526.0	1526.0	1526.0	1515.0	1515.0	1533.0	1533.0	1533.0	1523.0	1523.0	1536.0	1536.0	1536.0	1537.0	1537.0	1551.0	1551.0	1551.0	1530.0	1530.0	1542.0	1542.0	1542.0	1560.0	1560.0	1542.0	1542.0	1542.0	1563.0	1563.0	1566.0	1566.0	1556.0	1556.0	1556.0	1579.0	1579.0	1568.0	1568.0	1568.0	1552.0	1552.0	1570.0	1570.0	1570.0	1569.0	1569.0	1580.0	1580.0	1580.0	1594.0	1594.0	1576.0	1576.0	1576.0	1574.0	1574.0	1583.0	1583.0	1583.0	1590.0	1590.0	1575.0	1575.0	1575.0	1612.0	1612.0	1601.0	1601.0	1601.0	1598.0	1598.0	1616.0	1616.0	1616.0	1613.0	1613.0	1609.0	1609.0	1609.0	1605.0	1605.0	1620.0	1620.0	1620.0	1605.0	1605.0	1603.0	1603.0	1603.0	1618.0	1618.0	1612.0	1612.0	1612.0	1616.0	1616.0	1647.0	1647.0	1647.0	1632.0	1632.0	1653.0	1653.0	1653.0	1645.0	1645.0	1629.0	1629.0	1629.0	1644.0	1644.0	1640.0	1640.0	1640.0	1661.0	1661.0	1631.0	1631.0	1631.0	1662.0	1662.0	1658.0	1658.0	1658.0	1669.0	1669.0	1663.0	1663.0	1663.0	1651.0	1651.0	1684.0	1684.0	1684.0	1648.0	1648.0	1678.0	1678.0	1678.0	1681.0	1681.0	1672.0	1672.0	1672.0	1685.0	1685.0	1667.0	1667.0	1667.0	1677.0	1677.0	1667.0	1667.0	1667.0	1683.0	1683.0	1676.0	1676.0	1676.0	1656.0	1656.0	1693.0	1693.0	1693.0	1692.0	1692.0	1690.0	1690.0	1690.0	1674.0	1674.0	1675.0	1675.0	1675.0	1680.0	1680.0	1693.0	1693.0	1693.0	1707.0	1707.0	1700.0	1700.0	1700.0	1691.0	1691.0	1710.0	1710.0	1710.0	1699.0	1699.0	1691.0	1691.0	1691.0	1698.0	1698.0	1697.0	1697.0	1697.0	1680.0	1680.0	1719.0	1719.0	1719.0	1682.0	1682.0	1705.0	1705.0	1705.0	1673.0	1673.0	1708.0	1708.0	1708.0	1693.0	1693.0	1666.0	1666.0	1666.0	1705.0	1705.0	1681.0	1681.0	1681.0	1694.0	1694.0	1696.0	1696.0	1696.0	1711.0	1711.0	1699.0	1699.0	1694.0	1694.0	1694.0	1679.0	1679.0	1711.0	1711.0	1711.0	1677.0	1677.0	1690.0	1690.0	1690.0	1689.0	1689.0	1698.0	1698.0	1698.0	1692.0	1692.0	1699.0	1699.0	1699.0	1681.0	1681.0	1704.0	1704.0	1704.0	1673.0	1673.0	1710.0	1710.0	1710.0	1706.0	1706.0	1711.0	1711.0	1711.0	1696.0	1696.0	1700.0	1700.0	1700.0	1709.0	1709.0	1697.0	1697.0	1697.0	1684.0	1684.0	1675.0	1675.0	1675.0	1690.0	1690.0	1700.0	1700.0	1700.0	1707.0	1707.0	1708.0	1708.0	1708.0	1733.0	1733.0	1694.0	1694.0	1694.0	1715.0	1715.0	1719.0	1719.0	1719.0	1730.0	1730.0	1725.0	1725.0	1725.0	1733.0	1733.0	1738.0	1738.0	1738.0	1741.0	1741.0	1776.0	1776.0	1776.0	1779.0	1779.0	1781.0	1781.0	1781.0	1793.0	1793.0	1831.0	1831.0	1831.0	1821.0	1821.0	1835.0	1835.0	1835.0	1874.0	1874.0	1889.0	1889.0	1889.0	1943.0	1943.0	1934.0	1934.0	1934.0	1976.0	1976.0	1981.0	1981.0	1981.0	2003.0	2003.0	2036.0	2036.0	2036.0	2052.0	2052.0	2070.0	2070.0	2070.0	2063.0	2063.0	2105.0	2105.0	2105.0	2103.0	2103.0	2154.0	2154.0	2154.0	2143.0	2143.0	2147.0	2147.0	2147.0	2184.0	2184.0	2177.0	2177.0	2177.0	2190.0	2190.0	2219.0	2219.0	2219.0	2209.0	2209.0	2233.0	2233.0	2233.0	2237.0	2237.0	2254.0	2254.0	2254.0	2262.0	2262.0	2289.0	2289.0	2289.0	2273.0	2273.0	2277.0	2277.0	2277.0	2257.0	2257.0	2275.0	2275.0	2275.0	2278.0	2278.0	2295.0	2295.0	2295.0	2293.0	2293.0	2281.0	2281.0	2281.0	2291.0	2291.0	2270.0	2270.0	2270.0	2282.0	2282.0	2277.0	2277.0	2277.0	2297.0	2297.0	2287.0	2287.0	2287.0	2292.0	2292.0	2298.0	2298.0	2295.0	2295.0	2295.0	2280.0	2280.0	2293.0	2293.0	2293.0	2271.0	2271.0	2280.0	2280.0	2280.0	2271.0	2271.0	2266.0	2266.0	2266.0	2283.0	2283.0	2272.0	2272.0	2272.0	2269.0	2269.0	2260.0	2260.0	2260.0	2254.0	2254.0	2256.0	2256.0	2256.0	2267.0	2267.0	2243.0	2243.0	2243.0	2227.0	2227.0	2227.0	2227.0	2227.0	2233.0	2233.0	2253.0	2253.0	2253.0	2237.0	2237.0	2226.0	2226.0	2226.0	2233.0	2233.0	2214.0	2214.0	2214.0	2215.0	2215.0	2207.0	2207.0	2207.0	2210.0	2210.0	2210.0	2210.0	2210.0	2229.0	2229.0	2190.0	2190.0	2190.0	2203.0	2203.0	2215.0	2215.0	2215.0	2191.0	2191.0	2183.0	2183.0	2183.0	2179.0	2179.0	2171.0	2171.0	2171.0	2156.0	2156.0	2167.0	2167.0	2167.0	2142.0	2142.0	2165.0	2165.0	2165.0	2147.0	2147.0	2114.0	2114.0	2114.0	2126.0	2126.0	2118.0	2118.0	2118.0	2131.0	2131.0	2109.0	2109.0	2109.0	2093.0	2093.0	2111.0	2111.0	2111.0	2109.0	2109.0	2095.0	2095.0	2095.0	2090.0	2090.0	2053.0	2053.0	2053.0	2048.0	2048.0	2056.0	2056.0	2056.0	2057.0	2057.0	2036.0	2036.0	2036.0	2056.0	2056.0	2047.0	2047.0	2047.0	2031.0	2031.0	2001.0	2001.0	2001.0	2015.0	2015.0	2016.0	2016.0	2016.0	2017.0	2017.0	2004.0	2004.0	2004.0	2009.0	2009.0	2034.0	2034.0	2034.0	2006.0	2006.0	1982.0	1982.0	1982.0	2007.0	2007.0	1989.0	1989.0	1989.0	1990.0	1990.0	1986.0	1986.0	1986.0	1990.0	1990.0	1995.0	1995.0	1995.0	1967.0	1967.0	1992.0	1992.0	1992.0	1989.0	1989.0	1988.0	1988.0	1988.0	1967.0	1967.0	2004.0	2004.0	2004.0	1998.0	1998.0	1986.0	1986.0	2006.0	2006.0	2006.0	1986.0	1986.0	1965.0	1965.0	1965.0	1996.0	1996.0	1991.0	1991.0	1991.0	2004.0	2004.0	1982.0	1982.0	1982.0	1983.0	1983.0	1973.0	1973.0	1973.0	1973.0	1973.0	2010.0	2010.0	2010.0	1982.0	1982.0	1994.0	1994.0	1994.0	1991.0	1991.0	1976.0	1976.0	1976.0	1987.0	1987.0	1978.0	1978.0	1978.0	1980.0	1980.0	1977.0	1977.0	1977.0	1964.0	1964.0	1959.0	1959.0	1959.0	1959.0	1959.0	1979.0	1979.0	1979.0	1970.0	1970.0	1981.0	1981.0	1981.0	1976.0	1976.0	1975.0	1975.0	1975.0	1954.0	1954.0	1982.0	1982.0	1982.0	1973.0	1973.0	1979.0	1979.0	1979.0	1966.0	1966.0	1939.0	1939.0	1939.0	1936.0	1936.0	1964.0	1964.0	1964.0	1951.0	1951.0	1950.0	1950.0	1950.0	1964.0	1964.0	1956.0	1956.0	1956.0	1950.0	1950.0	1939.0	1939.0	1939.0	1947.0	1947.0	1930.0	1930.0	1930.0	1937.0	1937.0	1930.0	1930.0	1930.0	1942.0	1942.0	1933.0	1933.0	1933.0	1915.0	1915.0	1921.0	1921.0	1921.0	1910.0	1910.0	1908.0	1908.0	1908.0	1923.0	1923.0	1929.0	1929.0	1929.0	1916.0	1916.0	1937.0	1937.0	1937.0	1891.0	1891.0	1911.0	1911.0	1911.0	1923.0	1923.0	1919.0	1919.0	1919.0	1932.0	1932.0	1905.0	1905.0	1905.0	1885.0	1885.0	1913.0	1913.0	1913.0	1893.0	1893.0	1900.0	1900.0	1900.0	1905.0	1905.0	1897.0	1897.0	1897.0	1887.0	1887.0	1890.0	1890.0	1890.0	1890.0	1890.0	1889.0	1889.0	1889.0	1884.0	1884.0	1883.0	1883.0	1883.0	1863.0	1863.0	1873.0	1873.0	1873.0	1887.0	1887.0	1874.0	1874.0	1874.0	1851.0	1851.0	1850.0	1850.0	1850.0	1887.0	1887.0	1866.0	1866.0	1857.0	1857.0	1857.0	1880.0	1880.0	1869.0	1869.0	1869.0	1840.0	1840.0	1867.0	1867.0	1867.0	1850.0	1850.0	1871.0	1871.0	1871.0	1827.0	1827.0	1854.0	1854.0	1854.0	1847.0	1847.0	1832.0	1832.0	1832.0	1820.0	1820.0	1835.0	1835.0	1835.0	1848.0	1848.0	1860.0	1860.0	1860.0	1840.0	1840.0	1827.0	1827.0	1827.0	1828.0	1828.0	1830.0	1830.0	1830.0	1852.0	1852.0	1835.0	1835.0	1835.0	1847.0	1847.0	1816.0	1816.0	1816.0	1818.0	1818.0	1805.0	1805.0	1805.0	1819.0	1819.0	1799.0	1799.0	1799.0	1830.0	1830.0	1805.0	1805.0	1805.0	1800.0	1800.0	1801.0	1801.0	1801.0	1783.0	1783.0	1788.0	1788.0	1788.0	1803.0	1803.0	1798.0	1798.0	1798.0	1785.0	1785.0	1793.0	1793.0	1793.0	1778.0	1778.0	1771.0	1771.0	1771.0	1769.0	1769.0	1774.0	1774.0	1774.0	1757.0	1757.0	1762.0	1762.0	1762.0	1755.0	1755.0	1751.0	1751.0	1751.0	1768.0	1768.0	1746.0	1746.0	1746.0	1747.0	1747.0	1741.0	1741.0	1741.0	1750.0	1750.0	1723.0	1723.0	1723.0	1733.0	1733.0	1727.0	1727.0	1727.0	1730.0	1730.0	1710.0	1710.0	1710.0	1732.0	1732.0	1710.0	1710.0	1710.0	1736.0	1736.0	1722.0	1722.0	1722.0	1723.0	1723.0	1695.0	1695.0	1695.0	1717.0	1717.0	1718.0	1718.0	1718.0	1707.0	1707.0	1681.0	1681.0	1681.0	1711.0	1711.0	1709.0	1709.0	1709.0	1692.0	1692.0	1702.0	1702.0	1702.0	1691.0	1691.0	1704.0	1704.0	1704.0	1706.0	1706.0	1715.0	1715.0	1715.0	1693.0	1693.0	1715.0	1715.0	1715.0	1695.0	1695.0	1717.0	1717.0	1717.0	1695.0	1695.0	1683.0	1683.0	1683.0	1690.0	1690.0	1708.0	1708.0	1708.0	1695.0	1695.0	1699.0	1699.0	1687.0	1687.0	1687.0	1714.0	1714.0	1720.0	1720.0	1720.0	1692.0	1692.0	1698.0	1698.0	1698.0	1713.0	1713.0	1684.0	1684.0	1684.0	1697.0	1697.0	1692.0	1692.0	1692.0	1718.0	1718.0	1718.0	1718.0	1718.0	1697.0	1697.0	1724.0	1724.0	1724.0	1727.0	1727.0	1703.0	1703.0	1703.0	1715.0	1715.0	1738.0	1738.0	1738.0	1734.0	1734.0	1753.0	1753.0	1753.0	1756.0	1756.0	1773.0	1773.0	1773.0	1776.0	1776.0	1809.0	1809.0	1809.0	1811.0	1811.0	1804.0	1804.0	1804.0	1827.0	1827.0	1877.0	1877.0	1877.0	1887.0	1887.0	1891.0	1891.0	1891.0	1954.0	1954.0	1944.0	1944.0	1944.0	1950.0	1950.0	1979.0	1979.0	1979.0	2004.0	2004.0	2007.0	2007.0	2007.0	2044.0	2044.0	2049.0	2049.0	2049.0	2063.0	2063.0	2069.0	2069.0	2069.0	2088.0	2088.0	2135.0	2135.0	2135.0	2139.0	2139.0	2147.0	2147.0	2147.0	2170.0	2170.0	2191.0	2191.0	2191.0	2211.0	2211.0	2192.0	2192.0	2192.0	2217.0	2217.0	2245.0	2245.0	2245.0	2222.0	2222.0	2232.0	2232.0	2232.0	2230.0	2230.0	2268.0	2268.0	2268.0	2256.0	2256.0	2265.0	2265.0	2265.0	2257.0	2257.0	2267.0	2267.0	2267.0	2288.0	2288.0	2249.0	2249.0	2249.0	2266.0	2266.0	2307.0	2307.0	2307.0	2270.0	2270.0	2280.0	2280.0	2280.0	2287.0	2287.0	2302.0	2302.0	2302.0	2290.0	2290.0	2294.0	2294.0	2294.0	2280.0	2280.0	2283.0	2283.0	2283.0	2297.0	2297.0	2299.0	2299.0	2299.0	2255.0	2255.0	2271.0	2271.0	2271.0	2272.0	2272.0	2252.0	2252.0	2252.0	2269.0	2269.0	2251.0	2251.0	2251.0	2267.0	2267.0	2240.0	2240.0	2240.0	2255.0	2255.0	2222.0	2222.0	2255.0	2255.0	2255.0	2239.0	2239.0	2236.0	2236.0	2236.0	2225.0	2225.0	2231.0	2231.0	2231.0	2220.0	2220.0	2222.0	2222.0	2222.0	2226.0	2226.0	2228.0	2228.0	2228.0	2229.0	2229.0	2212.0	2212.0	2212.0	2214.0	2214.0	2205.0	2205.0	2205.0	2191.0	2191.0	2200.0	2200.0	2200.0	2194.0	2194.0	2172.0	2172.0	2172.0	2167.0	2167.0	2167.0	2167.0	2167.0	2152.0	2152.0	2167.0	2167.0	2167.0	2148.0	2148.0	2162.0	2162.0	2162.0	2142.0	2142.0	2139.0	2139.0	2139.0	2121.0	2121.0	2139.0	2139.0	2139.0	2106.0	2106.0	2104.0	2104.0	2104.0	2092.0	2092.0	2111.0	2111.0	2111.0	2092.0	2092.0	2088.0	2088.0	2088.0	2076.0	2076.0	2067.0	2067.0	2067.0	2069.0	2069.0	2050.0	2050.0	2050.0	2050.0	2050.0	2038.0	2038.0	2038.0	2023.0	2023.0	2025.0	2025.0	2025.0	2036.0	2036.0	2039.0	2039.0	2039.0	2031.0	2031.0	2007.0	2007.0	2007.0	2019.0	2019.0	1987.0	1987.0	1987.0	1999.0	1999.0	1989.0	1989.0	1989.0	1991.0	1991.0	1996.0	1996.0	1996.0	1964.0	1964.0	1968.0	1968.0	1968.0	1984.0	1984.0	1978.0	1978.0	1978.0	1972.0	1972.0	1951.0	1951.0	1951.0	1963.0	1963.0	1990.0	1990.0	1990.0	1960.0	1960.0	1946.0	1946.0	1946.0	1948.0	1948.0	1952.0	1952.0	1952.0	1958.0	1958.0	1966.0	1966.0	1966.0	1947.0	1947.0	1951.0	1951.0	1951.0	1954.0	1954.0	1943.0	1943.0	1943.0	1967.0	1967.0	1960.0	1960.0	1960.0	1966.0	1966.0	1965.0	1965.0	1965.0	1952.0	1952.0	1934.0	1934.0	1934.0	1937.0	1937.0	1946.0	1946.0	1946.0	1933.0	1933.0	1953.0	1953.0	1953.0	1964.0	1964.0	1966.0	1966.0	1948.0	1948.0	1948.0	1963.0	1963.0	1946.0	1946.0	1946.0	1935.0	1935.0	1969.0	1969.0	1969.0	1963.0	1963.0	1943.0	1943.0	1943.0	1955.0	1955.0	1970.0	1970.0	1970.0	1973.0	1973.0	1949.0	1949.0	1949.0	1973.0	1973.0	1967.0	1967.0	1967.0	1975.0	1975.0	1979.0	1979.0	1979.0	1956.0	1956.0	1983.0	1983.0	1983.0	1953.0	1953.0	1953.0	1953.0	1953.0	1969.0	1969.0	1954.0	1954.0	1954.0	1953.0	1953.0	1953.0	1953.0	1953.0	1967.0	1967.0	1982.0	1982.0	1982.0	1951.0	1951.0	1946.0	1946.0	1946.0	1969.0	1969.0	1985.0	1985.0	1985.0	1981.0	1981.0	1983.0	1983.0	1983.0	1964.0	1964.0	1961.0	1961.0	1961.0	1955.0	1955.0	1957.0	1957.0	1957.0	1952.0	1952.0	1981.0	1981.0	1981.0	1960.0	1960.0	1950.0	1950.0	1950.0	1941.0	1941.0	1959.0	1959.0	1959.0	1941.0	1941.0	1970.0	1970.0	1970.0	1930.0	1930.0	1963.0	1963.0	1963.0	1969.0	1969.0	1950.0	1950.0	1950.0	1939.0	1939.0	1940.0	1940.0	1940.0	1969.0	1969.0	1968.0	1968.0	1968.0	1971.0	1971.0	1959.0	1959.0	1959.0	1937.0	1937.0	1963.0	1963.0	1963.0	1959.0	1959.0	1959.0	1959.0	1959.0	1962.0	1962.0	1955.0	1955.0	1955.0	1947.0	1947.0	1945.0	1945.0	1945.0	1967.0	1967.0	1963.0	1963.0	1963.0	1947.0	1947.0	1927.0	1927.0	1927.0	1956.0	1956.0	1982.0	1982.0	1982.0	1958.0	1958.0	1949.0	1949.0	1949.0	1954.0	1954.0	1969.0	1969.0	1969.0	1935.0	1935.0	1950.0	1950.0	1950.0	1968.0	1968.0	1981.0	1981.0	1981.0	1942.0	1942.0	1954.0	1954.0	1954.0	1970.0	1970.0	1965.0	1965.0	1965.0	1968.0	1968.0	1961.0	1961.0	1961.0	1962.0	1962.0	1959.0	1959.0	1950.0	1950.0	1950.0	1968.0	1968.0	1976.0	1976.0	1976.0	1959.0	1959.0	1971.0	1971.0	1971.0	1971.0	1971.0	1968.0	1968.0	1968.0	1960.0	1960.0	1960.0	1960.0	1960.0	1950.0	1950.0	1969.0	1969.0	1969.0	1947.0	1947.0	1948.0	1948.0	1948.0	1947.0	1947.0	1944.0	1944.0	1944.0	1957.0	1957.0	1964.0	1964.0	1964.0	1975.0	1975.0	1966.0	1966.0	1966.0	1960.0	1960.0	1960.0	1960.0	1960.0	1965.0	1965.0	1975.0	1975.0	1975.0	1948.0	1948.0	1961.0	1961.0	1961.0	1956.0	1956.0	1958.0	1958.0	1958.0	1960.0	1960.0	1966.0	1966.0	1966.0	1956.0	1956.0	1957.0	1957.0	1957.0	1941.0	1941.0	1959.0	1959.0	1959.0	1968.0	1968.0	1945.0	1945.0	1945.0	1940.0	1940.0	1936.0	1936.0	1936.0	1967.0	1967.0	1952.0	1952.0	1952.0	1942.0	1942.0	1915.0	1915.0	1915.0	1956.0	1956.0	1952.0	1952.0	1952.0	1935.0	1935.0	1924.0	1924.0	1924.0	1936.0	1936.0	1930.0	1930.0	1930.0	1940.0	1940.0	1924.0	1924.0	1924.0	1941.0	1941.0	1912.0	1912.0	1912.0	1907.0	1907.0	1912.0	1912.0	1912.0	1915.0	1915.0	1930.0	1930.0	1930.0	1919.0	1919.0	1906.0	1906.0	1906.0	1899.0	1899.0	1897.0	1897.0	1897.0	1873.0	1873.0	1905.0	1905.0	1905.0	1896.0	1896.0	1908.0	1908.0	1908.0	1912.0	1912.0	1908.0	1908.0	1908.0	1907.0	1907.0	1891.0	1891.0	1891.0	1893.0	1893.0	1907.0	1907.0	1907.0	1874.0	1874.0	1868.0	1868.0	1868.0	1875.0	1875.0	1898.0	1898.0	1898.0	1909.0	1909.0	1891.0	1891.0	1891.0	1879.0	1879.0	1886.0	1886.0	1886.0	1881.0	1881.0	1890.0	1890.0	1890.0	1875.0	1875.0	1893.0	1893.0	1911.0	1911.0	1911.0	1947.0	1947.0	1948.0	1948.0	1948.0	1930.0	1930.0	1952.0	1952.0	1952.0	1954.0	1954.0	1972.0	1972.0	1972.0	1979.0	1979.0	2028.0	2028.0	2028.0	2008.0	2008.0	2035.0	2035.0	2035.0	2089.0	2089.0	2059.0	2059.0	2059.0	2097.0	2097.0	2127.0	2127.0	2127.0	2143.0	2143.0	2170.0	2170.0	2170.0	2164.0	2164.0	2195.0	2195.0	2195.0	2209.0	2209.0	2238.0	2238.0	2238.0	2225.0	2225.0	2278.0	2278.0	2278.0	2295.0	2295.0	2280.0	2280.0	2280.0	2291.0	2291.0	2303.0	2303.0	2303.0	2315.0	2315.0	2335.0	2335.0	2335.0	2334.0	2334.0	2372.0	2372.0	2372.0	2361.0	2361.0	2361.0	2361.0	2361.0	2369.0	2369.0	2380.0	2380.0	2380.0	2390.0	2390.0	2383.0	2383.0	2383.0	2397.0	2397.0	2423.0	2423.0	2423.0	2409.0	2409.0	2404.0	2404.0	2404.0	2411.0	2411.0	2390.0	2390.0	2390.0	2410.0	2410.0	2424.0	2424.0	2424.0	2408.0	2408.0	2405.0	2405.0	2405.0	2408.0	2408.0	2411.0	2411.0	2411.0	2403.0	2403.0	2390.0	2390.0	2390.0	2403.0	2403.0	2397.0	2397.0	2397.0	2385.0	2385.0	2394.0	2394.0	2394.0	2390.0	2390.0	2364.0	2364.0	2364.0	2399.0	2399.0	2362.0	2362.0	2362.0	2360.0	2360.0	2381.0	2381.0	2381.0	2363.0	2363.0	2359.0	2359.0	2359.0	2347.0	2347.0	2335.0	2335.0	2335.0	2324.0	2324.0	2343.0	2343.0	2343.0	2326.0	2326.0	2327.0	2327.0	2327.0	2334.0	2334.0	2325.0	2325.0	2325.0	2311.0	2311.0	2321.0	2321.0	2321.0	2303.0	2303.0	2281.0	