1807.0	1791.0	1791.0	1791.0	1801.0	1801.0	1798.0	1798.0	1798.0	1809.0	1809.0	1811.0	1811.0	1811.0	1777.0	1777.0	1799.0	1799.0	1799.0	1789.0	1789.0	1808.0	1808.0	1808.0	1770.0	1770.0	1795.0	1795.0	1795.0	1774.0	1774.0	1795.0	1795.0	1795.0	1776.0	1776.0	1759.0	1759.0	1759.0	1768.0	1768.0	1794.0	1794.0	1794.0	1767.0	1767.0	1795.0	1795.0	1795.0	1798.0	1798.0	1768.0	1768.0	1768.0	1751.0	1751.0	1750.0	1750.0	1750.0	1770.0	1770.0	1778.0	1778.0	1778.0	1753.0	1753.0	1761.0	1761.0	1761.0	1776.0	1776.0	1739.0	1739.0	1739.0	1734.0	1734.0	1735.0	1735.0	1735.0	1760.0	1760.0	1740.0	1740.0	1740.0	1762.0	1762.0	1764.0	1764.0	1764.0	1740.0	1740.0	1749.0	1749.0	1749.0	1751.0	1751.0	1743.0	1743.0	1743.0	1725.0	1725.0	1750.0	1750.0	1750.0	1726.0	1726.0	1742.0	1742.0	1742.0	1744.0	1744.0	1738.0	1738.0	1738.0	1731.0	1731.0	1741.0	1741.0	1741.0	1726.0	1726.0	1730.0	1730.0	1730.0	1712.0	1712.0	1711.0	1711.0	1711.0	1716.0	1716.0	1723.0	1723.0	1723.0	1731.0	1731.0	1712.0	1712.0	1712.0	1703.0	1703.0	1699.0	1699.0	1699.0	1729.0	1729.0	1720.0	1720.0	1720.0	1716.0	1716.0	1719.0	1719.0	1719.0	1740.0	1740.0	1705.0	1705.0	1705.0	1710.0	1710.0	1728.0	1728.0	1728.0	1751.0	1751.0	1732.0	1732.0	1732.0	1770.0	1770.0	1752.0	1752.0	1752.0	1760.0	1760.0	1767.0	1767.0	1767.0	1787.0	1787.0	1805.0	1805.0	1805.0	1797.0	1797.0	1821.0	1821.0	1821.0	1847.0	1847.0	1868.0	1868.0	1868.0	1873.0	1873.0	1904.0	1904.0	1904.0	1929.0	1929.0	1938.0	1938.0	1958.0	1958.0	1958.0	1962.0	1962.0	1993.0	1993.0	1993.0	2002.0	2002.0	2044.0	2044.0	2044.0	2027.0	2027.0	2058.0	2058.0	2058.0	2101.0	2101.0	2093.0	2093.0	2093.0	2117.0	2117.0	2128.0	2128.0	2128.0	2135.0	2135.0	2166.0	2166.0	2166.0	2201.0	2201.0	2189.0	2189.0	2189.0	2194.0	2194.0	2210.0	2210.0	2210.0	2204.0	2204.0	2253.0	2253.0	2253.0	2246.0	2246.0	2261.0	2261.0	2261.0	2257.0	2257.0	2268.0	2268.0	2268.0	2280.0	2280.0	2292.0	2292.0	2292.0	2298.0	2298.0	2327.0	2327.0	2327.0	2316.0	2316.0	2311.0	2311.0	2311.0	2336.0	2336.0	2324.0	2324.0	2324.0	2338.0	2338.0	2329.0	2329.0	2329.0	2347.0	2347.0	2374.0	2374.0	2374.0	2338.0	2338.0	2374.0	2374.0	2374.0	2387.0	2387.0	2387.0	2387.0	2387.0	2385.0	2385.0	2376.0	2376.0	2376.0	2376.0	2376.0	2376.0	2376.0	2376.0	2382.0	2382.0	2412.0	2412.0	2412.0	2385.0	2385.0	2408.0	2408.0	2408.0	2375.0	2375.0	2399.0	2399.0	2399.0	2410.0	2410.0	2405.0	2405.0	2405.0	2399.0	2399.0	2391.0	2391.0	2391.0	2426.0	2426.0	2420.0	2420.0	2420.0	2397.0	2397.0	2407.0	2407.0	2407.0	2431.0	2431.0	2397.0	2397.0	2397.0	2407.0	2407.0	2418.0	2418.0	2418.0	2408.0	2408.0	2403.0	2403.0	2403.0	2438.0	2438.0	2412.0	2412.0	2412.0	2412.0	2412.0	2403.0	2403.0	2403.0	2376.0	2376.0	2395.0	2395.0	2395.0	2389.0	2389.0	2398.0	2398.0	2398.0	2373.0	2373.0	2355.0	2355.0	2355.0	2370.0	2370.0	2362.0	2362.0	2362.0	2335.0	2335.0	2354.0	2354.0	2354.0	2340.0	2340.0	2321.0	2321.0	2321.0	2333.0	2333.0	2295.0	2295.0	2295.0	2309.0	2309.0	2329.0	2329.0	2293.0	2293.0	2293.0	2285.0	2285.0	2283.0	2283.0	2283.0	2272.0	2272.0	2276.0	2276.0	2276.0	2266.0	2266.0	2247.0	2247.0	2247.0	2246.0	2246.0	2242.0	2242.0	2242.0	2247.0	2247.0	2220.0	2220.0	2220.0	2244.0	2244.0	2218.0	2218.0	2218.0	2226.0	2226.0	2197.0	2197.0	2197.0	2207.0	2207.0	2191.0	2191.0	2191.0	2195.0	2195.0	2219.0	2219.0	2219.0	2212.0	2212.0	2178.0	2178.0	2178.0	2190.0	2190.0	2161.0	2161.0	2161.0	2165.0	2165.0	2167.0	2167.0	2167.0	2150.0	2150.0	2155.0	2155.0	2155.0	2151.0	2151.0	2166.0	2166.0	2166.0	2143.0	2143.0	2134.0	2134.0	2134.0	2155.0	2155.0	2118.0	2118.0	2118.0	2130.0	2130.0	2146.0	2146.0	2146.0	2130.0	2130.0	2115.0	2115.0	2115.0	2127.0	2127.0	2114.0	2114.0	2114.0	2091.0	2091.0	2100.0	2100.0	2100.0	2102.0	2102.0	2081.0	2081.0	2081.0	2076.0	2076.0	2091.0	2091.0	2091.0	2082.0	2082.0	2073.0	2073.0	2073.0	2059.0	2059.0	2076.0	2076.0	2076.0	2051.0	2051.0	2051.0	2051.0	2051.0	2057.0	2057.0	2026.0	2026.0	2026.0	2032.0	2032.0	2042.0	2042.0	2042.0	2031.0	2031.0	2035.0	2035.0	2035.0	2035.0	2035.0	2019.0	2019.0	2019.0	2020.0	2020.0	2000.0	2000.0	2000.0	1999.0	1999.0	2028.0	2028.0	2028.0	2008.0	2008.0	1994.0	1994.0	1994.0	1995.0	1995.0	2011.0	2011.0	2011.0	1988.0	1988.0	1991.0	1991.0	1991.0	1972.0	1972.0	1966.0	1966.0	1966.0	1991.0	1991.0	1961.0	1961.0	1961.0	1954.0	1954.0	1981.0	1981.0	1981.0	1950.0	1950.0	1935.0	1935.0	1935.0	1958.0	1958.0	1927.0	1927.0	1927.0	1929.0	1929.0	1918.0	1918.0	1930.0	1930.0	1930.0	1951.0	1951.0	1923.0	1923.0	1923.0	1903.0	1903.0	1929.0	1929.0	1929.0	1905.0	1905.0	1903.0	1903.0	1903.0	1898.0	1898.0	1886.0	1886.0	1886.0	1887.0	1887.0	1894.0	1894.0	1894.0	1906.0	1906.0	1895.0	1895.0	1895.0	1868.0	1868.0	1900.0	1900.0	1900.0	1876.0	1876.0	1868.0	1868.0	1868.0	1864.0	1864.0	1883.0	1883.0	1883.0	1868.0	1868.0	1871.0	1871.0	1871.0	1888.0	1888.0	1879.0	1879.0	1879.0	1844.0	1844.0	1871.0	1871.0	1871.0	1839.0	1839.0	1832.0	1832.0	1832.0	1859.0	1859.0	1870.0	1870.0	1870.0	1839.0	1839.0	1854.0	1854.0	1854.0	1832.0	1832.0	1807.0	1807.0	1807.0	1858.0	1858.0	1854.0	1854.0	1854.0	1849.0	1849.0	1820.0	1820.0	1820.0	1858.0	1858.0	1811.0	1811.0	1811.0	1842.0	1842.0	1854.0	1854.0	1854.0	1837.0	1837.0	1822.0	1822.0	1822.0	1805.0	1805.0	1801.0	1801.0	1801.0	1832.0	1832.0	1828.0	1828.0	1828.0	1801.0	1801.0	1806.0	1806.0	1806.0	1791.0	1791.0	1788.0	1788.0	1788.0	1810.0	1810.0	1780.0	1780.0	1780.0	1808.0	1808.0	1787.0	1787.0	1787.0	1795.0	1795.0	1796.0	1796.0	1796.0	1808.0	1808.0	1802.0	1802.0	1802.0	1802.0	1802.0	1819.0	1819.0	1819.0	1788.0	1788.0	1778.0	1778.0	1778.0	1781.0	1781.0	1782.0	1782.0	1782.0	1759.0	1759.0	1772.0	1772.0	1772.0	1779.0	1779.0	1761.0	1761.0	1761.0	1784.0	1784.0	1787.0	1787.0	1787.0	1777.0	1777.0	1752.0	1752.0	1752.0	1775.0	1775.0	1757.0	1757.0	1757.0	1764.0	1764.0	1753.0	1753.0	1753.0	1775.0	1775.0	1755.0	1755.0	1755.0	1780.0	1780.0	1779.0	1779.0	1759.0	1759.0	1759.0	1758.0	1758.0	1779.0	1779.0	1779.0	1755.0	1755.0	1746.0	1746.0	1746.0	1773.0	1773.0	1770.0	1770.0	1770.0	1783.0	1783.0	1746.0	1746.0	1746.0	1742.0	1742.0	1736.0	1736.0	1736.0	1749.0	1749.0	1781.0	1781.0	1781.0	1731.0	1731.0	1751.0	1751.0	1751.0	1735.0	1735.0	1754.0	1754.0	1754.0	1743.0	1743.0	1743.0	1743.0	1743.0	1748.0	1748.0	1735.0	1735.0	1735.0	1742.0	1742.0	1746.0	1746.0	1746.0	1749.0	1749.0	1744.0	1744.0	1744.0	1712.0	1712.0	1735.0	1735.0	1735.0	1740.0	1740.0	1737.0	1737.0	1737.0	1725.0	1725.0	1742.0	1742.0	1742.0	1741.0	1741.0	1727.0	1727.0	1727.0	1742.0	1742.0	1751.0	1751.0	1751.0	1743.0	1743.0	1757.0	1757.0	1757.0	1756.0	1756.0	1783.0	1783.0	1783.0	1802.0	1802.0	1772.0	1772.0	1772.0	1803.0	1803.0	1825.0	1825.0	1825.0	1815.0	1815.0	1847.0	1847.0	1847.0	1870.0	1870.0	1873.0	1873.0	1873.0	1908.0	1908.0	1947.0	1947.0	1947.0	1927.0	1927.0	1950.0	1950.0	1950.0	1971.0	1971.0	2020.0	2020.0	2020.0	2012.0	2012.0	2021.0	2021.0	2021.0	2065.0	2065.0	2057.0	2057.0	2057.0	2092.0	2092.0	2099.0	2099.0	2099.0	2104.0	2104.0	2131.0	2131.0	2131.0	2165.0	2165.0	2163.0	2163.0	2163.0	2164.0	2164.0	2176.0	2176.0	2176.0	2199.0	2199.0	2228.0	2228.0	2228.0	2230.0	2230.0	2236.0	2236.0	2236.0	2230.0	2230.0	2253.0	2253.0	2253.0	2259.0	2259.0	2268.0	2268.0	2268.0	2276.0	2276.0	2284.0	2284.0	2284.0	2302.0	2302.0	2300.0	2300.0	2300.0	2321.0	2321.0	2334.0	2334.0	2334.0	2327.0	2327.0	2317.0	2317.0	2317.0	2352.0	2352.0	2343.0	2343.0	2344.0	2344.0	2344.0	2335.0	2335.0	2358.0	2358.0	2358.0	2345.0	2345.0	2354.0	2354.0	2354.0	2361.0	2361.0	2388.0	2388.0	2388.0	2394.0	2394.0	2398.0	2398.0	2398.0	2374.0	2374.0	2390.0	2390.0	2390.0	2410.0	2410.0	2380.0	2380.0	2380.0	2407.0	2407.0	2393.0	2393.0	2393.0	2404.0	2404.0	2416.0	2416.0	2416.0	2408.0	2408.0	2401.0	2401.0	2401.0	2393.0	2393.0	2406.0	2406.0	2406.0	2415.0	2415.0	2414.0	2414.0	2414.0	2404.0	2404.0	2416.0	2416.0	2416.0	2402.0	2402.0	2414.0	2414.0	2414.0	2390.0	2390.0	2411.0	2411.0	2411.0	2406.0	2406.0	2412.0	2412.0	2412.0	2390.0	2390.0	2362.0	2362.0	2362.0	2391.0	2391.0	2388.0	2388.0	2388.0	2361.0	2361.0	2359.0	2359.0	2359.0	2371.0	2371.0	2376.0	2376.0	2376.0	2359.0	2359.0	2351.0	2351.0	2351.0	2341.0	2341.0	2356.0	2356.0	2356.0	2339.0	2339.0	2334.0	2334.0	2334.0	2315.0	2315.0	2327.0	2327.0	2327.0	2303.0	2303.0	2298.0	2298.0	2298.0	2294.0	2294.0	2294.0	2294.0	2294.0	2294.0	2294.0	2270.0	2270.0	2270.0	2269.0	2269.0	2259.0	2259.0	2259.0	2272.0	2272.0	2281.0	2281.0	2281.0	2242.0	2242.0	2234.0	2234.0	2234.0	2236.0	2236.0	2228.0	2228.0	2228.0	2221.0	2221.0	2203.0	2203.0	2203.0	2216.0	2216.0	2213.0	2213.0	2213.0	2191.0	2191.0	2175.0	2175.0	2175.0	2184.0	2184.0	2176.0	2176.0	2176.0	2175.0	2175.0	2196.0	2196.0	2196.0	2161.0	2161.0	2194.0	2194.0	2194.0	2161.0	2161.0	2163.0	2163.0	2163.0	2148.0	2148.0	2142.0	2142.0	2142.0	2158.0	2158.0	2172.0	2172.0	2172.0	2148.0	2148.0	2135.0	2135.0	2133.0	2133.0	2133.0	2137.0	2137.0	2140.0	2140.0	2140.0	2116.0	2116.0	2140.0	2140.0	2140.0	2123.0	2123.0	2125.0	2125.0	2125.0	2110.0	2110.0	2118.0	2118.0	2118.0	2098.0	2098.0	2100.0	2100.0	2100.0	2088.0	2088.0	2094.0	2094.0	2094.0	2098.0	2098.0	2068.0	2068.0	2068.0	2070.0	2070.0	2044.0	2044.0	2044.0	2057.0	2057.0	2063.0	2063.0	2063.0	2078.0	2078.0	2048.0	2048.0	2048.0	2034.0	2034.0	2055.0	2055.0	2055.0	2030.0	2030.0	2031.0	2031.0	2031.0	2016.0	2016.0	2011.0	2011.0	2011.0	1997.0	1997.0	2003.0	2003.0	2003.0	1992.0	1992.0	2000.0	2000.0	2000.0	1989.0	1989.0	1991.0	1991.0	1991.0	1989.0	1989.0	1987.0	1987.0	1987.0	1996.0	1996.0	1984.0	1984.0	1984.0	1981.0	1981.0	1972.0	1972.0	1972.0	1952.0	1952.0	1943.0	1943.0	1943.0	1970.0	1970.0	1960.0	1960.0	1960.0	1949.0	1949.0	1950.0	1950.0	1950.0	1947.0	1947.0	1931.0	1931.0	1931.0	1940.0	1940.0	1955.0	1955.0	1955.0	1932.0	1932.0	1932.0	1932.0	1932.0	1906.0	1906.0	1929.0	1929.0	1929.0	1907.0	1907.0	1888.0	1888.0	1888.0	1922.0	1922.0	1925.0	1925.0	1925.0	1900.0	1900.0	1868.0	1868.0	1868.0	1897.0	1897.0	1903.0	1903.0	1903.0	1876.0	1876.0	1873.0	1873.0	1873.0	1885.0	1885.0	1886.0	1886.0	1886.0	1885.0	1885.0	1857.0	1857.0	1857.0	1906.0	1906.0	1862.0	1862.0	1862.0	1868.0	1868.0	1848.0	1848.0	1848.0	1872.0	1872.0	1832.0	1832.0	1832.0	1850.0	1850.0	1872.0	1872.0	1872.0	1844.0	1844.0	1871.0	1871.0	1871.0	1838.0	1838.0	1854.0	1854.0	1854.0	1828.0	1828.0	1829.0	1829.0	1829.0	1829.0	1829.0	1824.0	1824.0	1829.0	1829.0	1829.0	1834.0	1834.0	1834.0	1834.0	1834.0	1820.0	1820.0	1806.0	1806.0	1806.0	1818.0	1818.0	1835.0	1835.0	1835.0	1837.0	1837.0	1823.0	1823.0	1823.0	1820.0	1820.0	1805.0	1805.0	1805.0	1797.0	1797.0	1795.0	1795.0	1795.0	1816.0	1816.0	1795.0	1795.0	1795.0	1798.0	1798.0	1798.0	1798.0	1798.0	1775.0	1775.0	1799.0	1799.0	1799.0	1792.0	1792.0	1801.0	1801.0	1801.0	1790.0	1790.0	1776.0	1776.0	1776.0	1806.0	1806.0	1809.0	1809.0	1809.0	1795.0	1795.0	1781.0	1781.0	1781.0	1779.0	1779.0	1782.0	1782.0	1782.0	1805.0	1805.0	1757.0	1757.0	1757.0	1790.0	1790.0	1774.0	1774.0	1774.0	1774.0	1774.0	1780.0	1780.0	1780.0	1785.0	1785.0	1764.0	1764.0	1764.0	1767.0	1767.0	1793.0	1793.0	1793.0	1782.0	1782.0	1779.0	1779.0	1779.0	1768.0	1768.0	1774.0	1774.0	1774.0	1766.0	1766.0	1757.0	1757.0	1757.0	1751.0	1751.0	1756.0	1756.0	1756.0	1763.0	1763.0	1749.0	1749.0	1749.0	1745.0	1745.0	1758.0	1758.0	1758.0	1733.0	1733.0	1751.0	1751.0	1751.0	1745.0	1745.0	1747.0	1747.0	1747.0	1741.0	1741.0	1739.0	1739.0	1739.0	1738.0	1738.0	1748.0	1748.0	1748.0	1735.0	1735.0	1723.0	1723.0	1723.0	1740.0	1740.0	1727.0	1727.0	1727.0	1736.0	1736.0	1717.0	1717.0	1717.0	1710.0	1710.0	1725.0	1725.0	1725.0	1736.0	1736.0	1739.0	1739.0	1739.0	1718.0	1718.0	1732.0	1732.0	1732.0	1726.0	1726.0	1714.0	1714.0	1714.0	1724.0	1724.0	1739.0	1739.0	1739.0	1726.0	1726.0	1729.0	1729.0	1729.0	1717.0	1717.0	1750.0	1750.0	1750.0	1740.0	1740.0	1754.0	1754.0	1733.0	1733.0	1733.0	1750.0	1750.0	1797.0	1797.0	1797.0	1785.0	1785.0	1780.0	1780.0	1780.0	1789.0	1789.0	1832.0	1832.0	1832.0	1810.0	1810.0	1827.0	1827.0	1827.0	1889.0	1889.0	1891.0	1891.0	1891.0	1894.0	1894.0	1915.0	1915.0	1915.0	1930.0	1930.0	1956.0	1956.0	1956.0	1967.0	1967.0	1976.0	1976.0	1976.0	2004.0	2004.0	2039.0	2039.0	2039.0	2025.0	2025.0	2062.0	2062.0	2062.0	2069.0	2069.0	2102.0	2102.0	2102.0	2111.0	2111.0	2144.0	2144.0	2144.0	2157.0	2157.0	2150.0	2150.0	2150.0	2166.0	2166.0	2181.0	2181.0	2181.0	2217.0	2217.0	2235.0	2235.0	2235.0	2213.0	2213.0	2221.0	2221.0	2221.0	2252.0	2252.0	2253.0	2253.0	2253.0	2268.0	2268.0	2278.0	2278.0	2278.0	2265.0	2265.0	2279.0	2279.0	2279.0	2292.0	2292.0	2295.0	2295.0	2295.0	2303.0	2303.0	2316.0	2316.0	2316.0	2326.0	2326.0	2351.0	2351.0	2351.0	2338.0	2338.0	2350.0	2350.0	2350.0	2339.0	2339.0	2341.0	2341.0	2341.0	2350.0	2350.0	2358.0	2358.0	2358.0	2386.0	2386.0	2386.0	2386.0	2386.0	2398.0	2398.0	2392.0	2392.0	2392.0	2414.0	2414.0	2390.0	2390.0	2390.0	2409.0	2409.0	2391.0	2391.0	2391.0	2380.0	2380.0	2412.0	2412.0	2412.0	2419.0	2419.0	2434.0	2434.0	2434.0	2402.0	2402.0	2419.0	2419.0	2419.0	2416.0	2416.0	2420.0	2420.0	2420.0	2410.0	2410.0	2429.0	2429.0	2429.0	2424.0	2424.0	2409.0	2409.0	2409.0	2413.0	2413.0	2417.0	2417.0	2417.0	2423.0	2423.0	2424.0	2424.0	2424.0	2427.0	2427.0	2412.0	2412.0	2412.0	2416.0	2416.0	2411.0	2411.0	2411.0	2400.0	2400.0	2394.0	2394.0	2395.0	2395.0	2395.0	2379.0	2379.0	2405.0	2405.0	2405.0	2387.0	2387.0	2376.0	2376.0	2376.0	2400.0	2400.0	2379.0	2379.0	2379.0	2363.0	2363.0	2363.0	2363.0	2363.0	2351.0	2351.0	2361.0	2361.0	2361.0	2340.0	2340.0	2336.0	2336.0	2336.0	2322.0	2322.0	2337.0	2337.0	2337.0	2295.0	2295.0	2281.0	2281.0	2281.0	2299.0	2299.0	2282.0	2282.0	2282.0	2291.0	2291.0	2275.0	2275.0	2275.0	2264.0	2264.0	2252.0	2252.0	2252.0	2262.0	2262.0	2234.0	2234.0	2234.0	2231.0	2231.0	2226.0	2226.0	2226.0	2242.0	2242.0	2224.0	2224.0	2224.0	2221.0	2221.0	2203.0	2203.0	2203.0	2219.0	2219.0	2187.0	2187.0	2187.0	2195.0	2195.0	2186.0	2186.0	2186.0	2163.0	2163.0	2177.0	2177.0	2177.0	2192.0	2192.0	2160.0	2160.0	2160.0	2195.0	2195.0	2165.0	2165.0	2165.0	2169.0	2169.0	2153.0	2153.0	2153.0	2148.0	2148.0	2149.0	2149.0	2149.0	2148.0	2148.0	2126.0	2126.0	2126.0	2104.0	2104.0	2148.0	2148.0	2148.0	2127.0	2127.0	2103.0	2103.0	2103.0	2132.0	2132.0	2122.0	2122.0	2122.0	2121.0	2121.0	2118.0	2118.0	2118.0	2138.0	2138.0	2107.0	2107.0	2107.0	2117.0	2117.0	2088.0	2088.0	2088.0	2067.0	2067.0	2076.0	2076.0	2076.0	2063.0	2063.0	2087.0	2087.0	2087.0	2079.0	2079.0	2058.0	2058.0	2058.0	2072.0	2072.0	2056.0	2056.0	2056.0	2020.0	2020.0	2046.0	2046.0	2046.0	2046.0	2046.0	2054.0	2054.0	2054.0	2035.0	2035.0	2039.0	2039.0	2039.0	2007.0	2007.0	2011.0	2011.0	2011.0	2027.0	2027.0	2023.0	2023.0	2023.0	2030.0	2030.0	1998.0	1998.0	1998.0	1995.0	1995.0	2016.0	2016.0	2016.0	2001.0	2001.0	1982.0	1982.0	1990.0	1990.0	1990.0	1985.0	1985.0	1961.0	1961.0	1961.0	1967.0	1967.0	1990.0	1990.0	1990.0	1968.0	1968.0	1937.0	1937.0	1937.0	1972.0	1972.0	1949.0	1949.0	1949.0	1946.0	1946.0	1945.0	1945.0	1945.0	1960.0	1960.0	1952.0	1952.0	1952.0	1945.0	1945.0	1917.0	1917.0	1917.0	1939.0	1939.0	1927.0	1927.0	1927.0	1932.0	1932.0	1910.0	1910.0	1910.0	1947.0	1947.0	1920.0	1920.0	1920.0	1896.0	1896.0	1905.0	1905.0	1905.0	1896.0	