2174	2155	2215	2110	2202	2190	2126	2143	2183	2071	2110	2143	2110	2106	2096	2095	2186	2215	2115	2203	2143	2163	2091	2139	2171	2079	2122	2139	2087	2095	2091	2087	2115	2095	2050	2160	2095	2155	2163	2091	2198	2167	2162	2087	2142	2151	2127	2151	2134	2042	2059	2039	2051	2151	2143	2059	2063	2079	2067	2075	2082	2055	2162	2047	2070	2059	2095	2035	2063	2123	2034	2038	2079	2062	2127	2106	2081	2074	2051	2139	2126	2071	2115	2062	2038	2023	2087	2031	2102	2046	1990	2010	2107	2003	2003	2047	2115	2083	2123	2035	2106	2027	2059	2095	2034	2002	1987	2014	2046	2050	2030	2076	2003	1991	2090	2070	2038	2055	2027	2030	2042	2067	2047	2062	2034	2107	2082	2071	2059	2046	2086	2091	2075	2143	2098	2102	2147	2194	2159	2179	2182	2255	2231	2222	2330	2227	2243	2279	2278	2359	2414	2363	2383	2454	2487	2435	2473	2566	2630	2647	2623	2627	2691	2699	2758	2755	2743	2722	2783	2802	2799	2886	2954	2998	3027	3042	2983	3122	3098	3155	3170	3183	3226	3195	3286	3294	3238	3359	3275	3362	3347	3423	3370	3474	3443	3439	3483	3503	3563	3574	3642	3567	3559	3582	3595	3675	3683	3650	3707	3652	3707	3658	3655	3743	3686	3702	3718	3727	3759	3755	3767	3763	3838	3791	3807	3747	3826	3726	3759	3770	3790	3815	3803	3730	3815	3835	3746	3771	3831	3783	3739	3747	3739	3762	3726	3694	3690	3727	3759	3691	3750	3662	3755	3735	3687	3663	3725	3679	3695	3647	3731	3651	3711	3683	3595	3670	3622	3594	3555	3570	3590	3539	3642	3595	3567	3606	3631	3583	3535	3534	3591	3566	3507	3549	3487	3555	3459	3447	3442	3451	3512	3427	3534	3435	3418	3438	3503	3486	3450	3515	3411	3451	3494	3443	3382	3370	3447	3394	3390	3370	3335	3343	3434	3395	3414	3355	3335	3431	3368	3355	3382	3307	3343	3366	3294	3290	3275	3326	3271	3295	3284	3279	3258	3303	3318	3287	3239	3243	3278	3247	3231	3239	3267	3255	3279	3250	3242	3186	3139	3190	3215	3198	3198	3126	3127	3146	3175	3119	3198	3159	3092	3079	3167	3115	3059	3123	3055	3075	3039	3006	2991	3067	3056	3071	3054	3047	3055	2970	3051	3003	2947	2963	2947	3011	2975	2890	2955	2959	2855	2943	2938	2895	2891	2895	2891	2847	2943	2931	2943	2826	2926	2818	2835	2910	2804	2775	2762	2875	2854	2849	2835	2782	2790	2847	2755	2830	2787	2759	2806	2831	2783	2779	2746	2730	2739	2771	2818	2763	2796	2779	2711	2771	2711	2815	2759	2758	2762	2834	2819	2823	2791	2803	2731	2815	2715	2735	2791	2731	2703	2763	2751	2703	2766	2722	2802	2739	2814	2766	2770	2711	2742	2819	2751	2698	2783	2735	2775	2726	2678	2775	2743	2711	2754	2695	2706	2786	2755	2783	2767	2771	2767	2739	2699	2764	2759	2730	2727	2650	2747	2679	2746	2727	2670	2651	2735	2706	2751	2763	2687	2731	2707	2651	2682	2650	2620	2615	2659	2683	2607	2627	2638	2607	2618	2590	2591	2670	2610	2679	2687	2598	2671	2667	2663	2639	2566	2535	2551	2566	2578	2606	2499	2550	2528	2503	2587	2507	2546	2591	2587	2571	2575	2519	2543	2542	2503	2486	2447	2450	2451	2487	2415	2410	2506	2503	2403	2456	2414	2426	2498	2458	2379	2483	2434	2465	2427	2327	2339	2335	2311	2307	2311	2327	2338	2407	2367	2363	2410	2338	2343	2320	2382	2331	2287	2290	2278	2350	2242	2244	2239	2223	2227	2335	2245	2303	2236	2327	2262	2275	2235	2238	2219	2247	2299	2291	2231	2206	2179	2280	2234	2183	2155	2187	2259	2262	2211	2238	2215	2254	2167	2168	2160	2178	2199	2170	2154	2123	2202	2207	2131	2227	2143	2147	2191	2119	2223	2215	2123	2131	2171	2170	2182	2183	2187	2102	2111	2179	2163	2079	2067	2163	2179	2147	2163	2066	2183	2131	2087	2174	2175	2086	2175	2095	2075	2123	2054	2142	2106	2126	2082	2035	2074	2063	2115	2035	2091	2074	2078	2102	2135	2122	2054	2095	2107	2126	2046	2023	2118	2030	2051	2110	2043	2087	2123	2035	2131	2066	2083	2075	2042	2043	2123	2075	2122	2011	2022	2058	2072	1991	2019	2031	1982	2000	2059	2098	2115	2014	2059	2047	2030	2027	2102	2034	2055	2007	2010	1987	1999	2007	1987	2014	2019	2087	2078	2086	1995	2007	1999	2014	2011	2027	2059	2019	2091	2079	2047	1994	2042	2015	1975	2071	2071	2038	2011	1986	1990	1979	2099	2086	2095	1994	1991	2047	1995	2087	2007	1990	2002	2014	1966	2035	1955	2026	2068	1966	2006	2083	1975	2014	2078	2078	2078	2019	2054	2043	2043	1959	1994	1979	1947	2007	1938	1935	1951	1951	1950	1966	2007	1974	1986	1986	1951	1942	2042	2003	1959	2011	2017	1955	2015	1937	1903	1939	1979	1967	2003	1939	1975	2003	2007	1929	1970	2003	1927	1971	2003	1914	1998	1990	1891	1895	1907	1903	2014	1951	1934	1931	1951	1939	2035	1999	2038	1999	2043	1958	1946	2030	2034	2047	2010	1983	1982	2046	2042	2107	2071	2079	2095	2154	2203	2187	2223	2158	2154	2259	2187	2307	2207	2302	2359	2275	2395	2327	2407	2458	2479	2458	2475	2579	2607	2627	2567	2667	2619	2699	2751	2764	2759	2798	2783	2886	2911	2859	2970	2918	2979	3067	2995	3035	3139	3067	3142	3103	3227	3231	3167	3250	3194	3219	3319	3283	3367	3382	3407	3430	3451	3487	3510	3415	3455	3506	3511	3575	3571	3503	3558	3580	3591	3598	3582	3598	3643	3611	3619	3583	3682	3642	3706	3634	3683	3619	3718	3658	3607	3694	3687	3706	3632	3666	3630	3667	3583	3695	3631	3602	3703	3619	3706	3667	3607	3639	3687	3659	3579	3591	3539	3555	3538	3543	3551	3511	3511	3515	3579	3591	3583	3551	3583	3575	3490	3555	3527	3514	3546	3426	3455	3414	3454	3475	3407	3471	3470	3367	3446	3463	3415	3355	3399	3359	3403	3387	3439	3414	3326	3335	3299	3355	3302	3326	3266	3271	3267	3359	3314	3263	3251	3259	3339	3239	3303	3335	3311	3307	3214	3290	3291	3186	3179	3226	3219	3208	3171	3183	3187	3191	3191	3215	3235	3171	3175	3190	3178	3227	3223	3150	3199	3171	3111	3119	3187	3067	3071	3160	3071	3107	3070	3107	3098	3094	3039	3107	3031	3059	3070	3066	2983	2991	3039	2971	2978	2971	3031	3014	2939	2998	2966	2971	3003	3011	2963	2891	2910	2967	2858	2923	2855	2918	2887	2794	2846	2811	2867	2775	2782	2878	2798	2774	2863	2787	2855	2759	2799	2795	2727	2779	2710	2714	2750	2739	2723	2715	2651	2658	2659	2655	2706	2707	2705	2754	2667	2730	2739	2643	2639	2611	2634	2694	2643	2607	2675	2702	2583	2607	2655	2619	2711	2707	2691	2712	2607	2603	2595	2611	2586	2618	2602	2635	2558	2615	2659	2561	2666	2680	2679	2638	2678	2682	2647	2711	2619	2635	2679	2611	2671	2683	2626	2619	2567	2675	2679	2597	2569	2607	2627	2694	2659	2598	2625	2602	2658	2607	2666	2687	2667	2602	2598	2571	2651	2674	2619	2595	2647	2598	2655	2582	2670	2595	2603	2614	2591	2694	2598	2570	2607	2619	2616	2548	2579	2650	2547	2539	2555	2535	2642	2618	2551	2639	2615	2575	2651	2627	2570	2527	2511	2535	2599	2490	2507	2595	2487	2522	2479	2579	2538	2551	2527	2527	2579	2483	2559	2467	2507	2523	2547	2469	2510	2478	2407	2407	2415	2431	2466	2394	2419	2494	2491	2482	2395	2482	2487	2464	2386	2463	2403	2351	2395	2426	2363	2384	2400	2315	2303	2399	2299	2399	2387	2359	2299	2383	2334	2338	2347	2278	2327	2231	2290	2315	2271	2223	2318	2270	2262	2271	2222	2223	2275	2275	2311	2195	2295	2210	2186	2243	2270	2247	2238	2235	2186	2242	2162	2231	2218	2138	2227	2242	2251	2186	2175	2223	2243	2234	2211	2151	2182	2206	2107	2158	2123	2071	2162	2096	2158	2111	2122	2166	2195	2103	2083	2191	2091	2191	2195	2095	2078	2059	2055	2135	2119	2146	2059	2055	2115	2151	2086	2091	2095	2119	2170	2115	2059	2150	2067	2151	2067	2102	2014	2030	2095	2067	2010	2079	2102	2091	2026	2059	2007	2066	2035	2047	2058	2071	2086	2043	2047	2031	2054	1991	2026	2083	2063	2067	2086	2087	2059	2075	2019	2034	2091	2014	2071	2023	1998	2003	2027	1983	1974	2075	1979	2047	1971	1978	2055	2023	2091	1990	1995	2002	1990	2015	1995	2055	2087	1970	2026	1963	2063	2031	1954	2047	1975	1975	1963	2051	2039	2030	2039	2010	1991	2047	2083	2074	2038	2007	2066	1956	1971	2047	2039	2039	1947	2023	1958	2022	2027	2043	2058	2027	2066	1976	2055	2039	2011	2026	1948	2038	2019	1927	1947	1966	1968	1931	2007	2031	1967	2047	2047	1954	1995	2016	2043	2042	2011	1931	2010	1987	1995	1986	1983	1903	1982	1995	2007	1987	1958	1955	1926	1987	2006	2006	1942	1938	2015	1904	1959	1938	1991	1883	1871	1979	1971	1870	1987	1895	1903	1886	1995	1983	1971	1963	2003	1919	2004	1895	1966	1917	1962	1926	1895	1967	1959	1886	1898	1986	2002	1978	1915	2010	1983	1950	2030	2043	1947	2014	2014	2015	1963	2071	2063	1987	2002	2099	2034	2063	2182	2127	2135	2142	2145	2159	2191	2267	2279	2306	2330	2274	2270	2359	2387	2427	2451	2395	2440	2486	2535	2566	2631	2619	2639	2670	2703	2767	2683	2690	2751	2819	2791	2812	2822	2879	2883	2882	2991	3015	3014	3071	3024	3131	3139	3187	3143	3231	3183	3215	3282	3250	3291	3290	3335	3322	3270	3371	3306	3366	3355	3390	3472	3450	3462	3423	3443	3530	3447	3463	3446	3498	3447	3539	3451	3539	3570	3471	3567	3519	3595	3574	3563	3534	3554	3578	3607	3591	3579	3512	3491	3527	3511	3579	3487	3528	3583	3551	3544	3555	3583	3579	3486	3575	3519	3499	3482	3563	3503	3499	3482	3415	3411	3406	3438	3439	3423	3451	3463	3427	3487	3471	3391	3395	3418	3351	3431	3427	3415	3375	3327	3343	3375	3263	3266	3331	3343	3299	3367	3254	3327	3255	3255	3311	3219	3214	3239	3295	3207	3199	3183	3250	3203	3159	3146	3170	3163	3190	3223	3147	3131	3147	3203	3167	3191	3175	3159	3103	3163	3123	3067	3063	3091	3054	3078	3114	3059	3043	3119	3083	3119	3078	3134	3103	3043	3126	3038	3054	3091	3078	3067	3023	2991	2946	2959	3047	2951	3027	3014	2998	2934	3011	2983	2975	2927	3003	2991	2930	2942	2899	2866	2883	2911	2843	2855	2903	2898	2887	2807	2787	2879	2778	2759	2830	2819	2832	2763	2830	2815	2799	2727	2742	2743	2663	2651	2718	2735	2647	2623	2694	2647	2643	2735	2611	2642	2611	2622	2614	2692	2602	2659	2570	2603	2631	2583	2579	2559	2620	2579	2570	2654	2631	2599	2659	2631	2575	2590	2606	2587	2607	2534	2555	2531	2542	2590	2607	2579	2611	2598	2635	2555	2614	2587	2619	2651	2583	2543	2574	2522	2615	2618	2590	2542	2599	2543	2615	2571	2531	2529	2531	2547	2639	2547	2650	2603	2547	2654	2639	2635	2534	2519	2575	2515	2531	2583	2627	2555	2567	2643	2555	2562	2558	2587	2591	2659	2554	2567	2642	2543	2555	2538	2610	2615	2599	2591	2603	2582	2615	2583	2538	2643	2622	2611	2643	2629	2630	2598	2511	2567	2523	2591	2550	2582	2587	2547	2559	2507	2535	2566	2510	2571	2582	2479	2490	2527	2562	2510	2535	2463	2487	2542	2499	2520	2435	2414	2463	2478	2507	2419	2498	2439	2491	2431	2423	2466	2463	2471	2383	2467	2435	2427	2390	2378	2439	2367	2335	2331	2427	2438	2411	2395	2351	2430	2395	2327	2302	2295	2386	2278	2279	2322	2335	2267	2223	2242	2303	2239	2226	2263	2291	2235	2346	2254	2239	2330	2246	2286	2227	2286	2179	2267	2243	2162	2182	2191	2151	2211	2231	2158	2159	2179	2254	2203	2158	2255	2179	2138	2194	2186	2154	2171	2203	2083	2139	2103	2195	2099	2163	2171	2106	2148	2163	2098	2170	2164	2123	2167	2136	2162	2074	2098	2074	2039	2126	2091	2138	2138	2051	2038	2128	2079	2130	2143	2106	2043	2047	2142	2046	2024	2019	2095	1994	2070	2046	2019	2007	2024	1995	1993	2086	2006	2058	2107	2047	2047	2010	2106	2002	1991	2074	2079	2042	1966	2034	1962	1980	2055	2046	2083	2035	2038	2007	2011	1979	1983	2079	2079	1987	1982	2043	2051	1947	1943	2043	2047	1942	1967	2023	2055	1971	1983	2007	1991	2045	1987	1966	1968	1955	