1938	2023	2023	2010	1942	2018	1906	1990	1995	1967	1887	1991	1950	1891	1895	1903	1915	2014	1915	1914	1919	1935	1961	1931	1918	1926	1986	1951	1963	1886	1931	1884	1971	1887	1994	1982	1936	1930	2007	2006	1950	1946	2034	2007	1943	2016	1970	1991	2046	2023	1986	2019	2023	2107	2024	2131	2151	2143	2159	2191	2211	2228	2247	2219	2171	2219	2299	2320	2307	2330	2283	2311	2375	2447	2374	2479	2535	2463	2574	2586	2626	2547	2599	2642	2722	2640	2659	2695	2774	2815	2859	2787	2799	2838	2859	2987	2919	2951	3055	3015	3107	3131	3095	3078	3099	3123	3179	3130	3183	3170	3235	3307	3303	3247	3279	3283	3335	3431	3387	3394	3375	3402	3399	3395	3395	3399	3411	3450	3430	3507	3447	3455	3547	3463	3483	3478	3599	3503	3591	3559	3522	3615	3559	3610	3612	3495	3576	3528	3495	3562	3534	3502	3523	3539	3475	3543	3478	3495	3547	3515	3499	3491	3567	3527	3483	3483	3463	3426	3494	3375	3455	3458	3366	3371	3374	3424	3371	3442	3427	3391	3434	3439	3335	3302	3327	3286	3271	3303	3291	3250	3230	3230	3227	3255	3275	3311	3323	3243	3307	3311	3287	3199	3191	3159	3178	3146	3166	3175	3115	3215	3207	3155	3151	3102	3143	3195	3174	3175	3162	3183	3146	3171	3099	3071	3143	3026	3130	3115	3102	3023	3087	3003	3079	3079	3080	3003	3066	3031	3111	2999	3079	3051	2966	2963	2971	2963	2967	2919	2920	2999	2987	2910	2986	2967	2899	2955	2915	2958	2967	2894	2938	2872	2859	2850	2907	2824	2914	2871	2783	2823	2874	2783	2863	2771	2767	2842	2823	2790	2799	2735	2807	2787	2807	2723	2722	2778	2731	2731	2762	2655	2663	2715	2690	2648	2734	2627	2694	2654	2723	2699	2635	2603	2615	2682	2662	2659	2634	2570	2602	2542	2631	2622	2551	2551	2632	2655	2606	2631	2583	2571	2614	2639	2551	2526	2595	2530	2503	2570	2530	2535	2491	2590	2557	2611	2534	2554	2606	2550	2587	2575	2611	2611	2591	2618	2518	2504	2535	2599	2494	2534	2531	2615	2559	2618	2623	2639	2622	2603	2567	2599	2543	2635	2607	2583	2603	2619	2606	2550	2611	2546	2551	2523	2526	2551	2543	2626	2592	2582	2559	2587	2582	2547	2533	2575	2531	2521	2627	2543	2566	2515	2587	2563	2514	2615	2543	2602	2634	2567	2551	2631	2626	2606	2606	2531	2503	2601	2522	2479	2483	2499	2543	2534	2531	2474	2542	2567	2538	2514	2498	2487	2526	2486	2515	2528	2482	2479	2471	2446	2427	2515	2507	2522	2447	2459	2518	2415	2491	2487	2483	2511	2503	2498	2462	2459	2370	2391	2443	2370	2423	2439	2355	2419	2366	2335	2370	2447	2334	2414	2431	2367	2339	2339	2387	2383	2298	2287	2327	2278	2323	2347	2263	2251	2246	2247	2318	2255	2290	2351	2271	2350	2262	2259	2326	2270	2199	2279	2187	2223	2218	2263	2198	2274	2191	2174	2278	2199	2238	2179	2250	2166	2255	2262	2203	2215	2231	2182	2170	2119	2123	2114	2127	2095	2203	2195	2094	2190	2155	2091	2203	2130	2099	2203	2191	2130	2159	2083	2070	2134	2134	2135	2066	2043	2151	2079	2054	2062	2155	2127	2143	2090	2103	2061	2099	2055	2019	2015	2022	2079	2115	2110	1999	2046	2035	2050	2038	2043	2023	2106	2039	2059	2064	2075	2003	2039	2026	2010	2051	2036	2098	2067	2071	1979	2042	2078	1991	2106	2010	2114	2059	2099	2062	1982	2047	2082	1970	1991	2030	2034	2039	2042	1986	1963	2054	1966	1971	2030	2027	1974	2047	2004	1975	2016	2050	2035	1951	2047	2026	1963	2046	1971	2007	1963	2054	1958	2015	1991	2051	1995	1991	2075	1958	1967	2046	2015	1954	1999	1992	1998	1931	2022	2027	2031	2047	1971	2034	2042	1973	1951	1951	1978	2047	2064	1939	2046	1946	2030	2007	1934	2027	1987	1979	2027	2014	1930	2035	1951	1995	2050	2059	2003	1966	1951	1958	1998	1936	1971	1911	1927	1939	1971	1983	2003	1982	2031	2011	2010	1934	2034	2027	1927	2015	1939	1995	2019	1907	1921	1951	1911	1958	1911	1991	1919	1951	1915	1991	1998	1923	1979	1995	1907	1994	2003	1911	1954	1917	1959	1870	1975	1875	1967	1878	1975	1883	1898	1998	1894	1967	1999	1927	1911	1987	1926	1878	1987	1875	1939	1964	1855	1982	1994	1967	1971	1970	1898	2010	1963	1990	1967	1959	1943	1955	2002	1954	2030	1971	1959	2003	1983	1991	2038	2034	2127	2158	2147	2203	2147	2135	2251	2175	2255	2206	2319	2318	2255	2291	2279	2391	2323	2450	2450	2479	2519	2535	2570	2506	2539	2642	2578	2667	2643	2634	2703	2699	2739	2823	2815	2762	2815	2907	2910	2947	2979	2971	3006	3014	3007	3094	3118	3103	3094	3099	3095	3207	3115	3211	3176	3251	3291	3206	3270	3275	3299	3246	3298	3286	3311	3314	3335	3339	3366	3463	3467	3430	3351	3371	3390	3438	3456	3483	3419	3427	3471	3499	3431	3426	3535	3479	3523	3435	3506	3519	3434	3423	3502	3487	3503	3395	3387	3494	3407	3403	3379	3478	3487	3479	3403	3403	3475	3439	3375	3382	3450	3379	3371	3317	3363	3295	3343	3323	3287	3359	3267	3355	3268	3355	3355	3359	3283	3291	3247	3244	3250	3307	3295	3166	3159	3192	3254	3135	3203	3147	3210	3118	3187	3110	3198	3215	3110	3198	3182	3178	3075	3143	3071	3078	3135	3034	3066	3115	3027	2999	3078	3086	3098	3091	3098	2995	3087	3007	2975	3067	3006	2990	3011	3031	3015	2910	2911	2954	2911	2891	2994	2894	2974	2930	2918	2883	2987	2971	2950	2866	2931	2847	2843	2843	2895	2798	2802	2891	2839	2843	2829	2818	2834	2767	2778	2858	2754	2780	2759	2806	2815	2774	2775	2687	2763	2676	2758	2743	2635	2643	2650	2639	2671	2678	2715	2710	2659	2703	2667	2687	2686	2591	2643	2526	2539	2634	2594	2506	2602	2567	2608	2562	2607	2526	2495	2550	2515	2599	2507	2531	2468	2559	2558	2459	2423	2511	2447	2423	2519	2427	2450	2523	2491	2506	2463	2487	2538	2498	2475	2527	2526	2479	2420	2478	2427	2490	2398	2466	2407	2403	2414	2487	2426	2459	2427	2543	2531	2539	2447	2482	2438	2438	2522	2499	2447	2471	2483	2499	2538	2423	2471	2534	2487	2567	2491	2547	2547	2500	2538	2479	2570	2514	2550	2459	2467	2487	2454	2563	2499	2571	2515	2567	2511	2535	2478	2503	2491	2491	2487	2551	2494	2563	2571	2570	2519	2547	2475	2531	2534	2555	2459	2467	2474	2498	2467	2559	2486	2571	2475	2499	2559	2510	2514	2467	2495	2478	2402	2503	2443	2462	2474	2498	2503	2470	2458	2526	2414	2414	2398	2439	2424	2383	2391	2359	2398	2347	2411	2407	2446	2402	2398	2374	2375	2363	2447	2363	2347	2343	2386	2402	2367	2299	2378	2303	2307	2263	2362	2246	2347	2250	2274	2242	2351	2343	2319	2343	2263	2326	2279	2278	2235	2214	2239	2174	2262	2204	2242	2270	2186	2171	2254	2255	2171	2218	2178	2251	2186	2150	2130	2243	2183	2107	2094	2102	2087	2159	2078	2067	2127	2071	2090	2102	2183	2102	2074	2091	2155	2155	2158	2114	2055	2098	2055	2034	2031	2091	2027	2010	2063	2095	2022	2023	2083	2027	2123	2027	2046	2055	2122	2099	2038	1990	2054	1986	1967	2047	2032	2039	2019	2039	1983	1963	2091	1989	2071	2072	1975	2063	2059	2003	1968	2062	1978	1995	1975	2027	1974	1991	2018	2035	2035	1943	2031	1958	1979	1983	2014	2019	1954	1982	1942	1923	2007	1899	1967	1991	1931	1991	1927	1998	1935	2026	1951	1999	1931	1966	1998	1954	2022	1942	1992	1914	1991	1967	1930	1992	1971	1890	1983	1995	1966	1946	1912	2015	1934	1943	1963	1927	1915	1955	1926	1915	1946	1911	1914	1975	1891	1951	1910	1979	1983	2000	1910	1962	1954	1970	1939	2014	1910	1970	1890	1886	1922	1891	1968	1967	1895	1922	1883	1959	1979	1994	1954	1910	1915	2011	1951	1927	2015	1927	1895	1990	1959	1943	1968	1882	1955	1975	1939	1947	1863	1883	1883	1982	1899	1926	1895	1907	1875	1894	1891	1890	1959	1879	1855	1958	1875	1859	1959	1939	1867	1934	1967	1919	1991	1987	1916	1974	1947	1979	1983	1920	1863	1908	1867	1863	1934	1964	1870	1863	1907	1915	1870	1934	1890	1903	1891	1874	1898	1910	1895	1864	1843	1883	1858	1868	1939	1883	1964	1947	1867	1887	1982	1934	1987	1951	1886	1910	1992	1947	1989	1886	1930	1986	1875	1971	1951	1914	1942	2022	1967	2003	2074	2079	2002	2090	2022	2091	2139	2071	2078	2087	2131	2154	2191	2230	2146	2279	2199	2315	2335	2267	2390	2419	2358	2387	2495	2418	2483	2518	2507	2575	2522	2550	2546	2623	2638	2719	2655	2682	2726	2750	2826	2816	2843	2966	2879	2923	2951	2999	3015	2994	3083	3062	3088	3143	3163	3147	3110	3159	3154	3183	3230	3271	3263	3323	3254	3323	3327	3394	3380	3334	3331	3344	3402	3450	3434	3435	3382	3475	3507	3515	3423	3550	3487	3502	3447	3523	3483	3559	3459	3471	3551	3531	3451	3463	3538	3562	3483	3519	3487	3475	3512	3560	3519	3571	3507	3551	3446	3551	3519	3503	3475	3410	3467	3429	3492	3399	3427	3467	3443	3423	3499	3398	3482	3399	3479	3427	3410	3347	3371	3327	3315	3371	3351	3335	3395	3395	3346	3287	3295	3286	3362	3371	3375	3315	3307	3243	3275	3307	3230	3291	3291	3234	3167	3258	3223	3255	3190	3251	3174	3251	3186	3168	3155	3171	3211	3179	3155	3118	3111	3155	3123	3067	3083	3154	3159	3110	3118	3135	3135	3098	3082	3064	3063	3059	3090	3118	3023	3134	3066	3095	3071	3047	2971	3026	2951	3031	3039	3043	2960	2986	2966	3066	3059	3043	2975	2939	2946	3028	2923	2910	2951	2906	2954	2867	2863	2875	2950	2911	2879	2963	2906	2847	2946	2939	2891	2895	2927	2794	2815	2879	2782	2795	2811	2815	2742	2811	2735	2755	2711	2731	2718	2810	2703	2750	2767	2731	2715	2751	2731	2643	2631	2723	2722	2639	2615	2618	2643	2707	2611	2631	2714	2711	2710	2618	2635	2679	2619	2579	2663	2619	2626	2583	2654	2543	2542	2643	2559	2659	2559	2563	2623	2572	2562	2630	2639	2599	2582	2551	2599	2522	2631	2554	2518	2610	2585	2578	2531	2619	2570	2651	2656	2571	2662	2636	2651	2667	2559	2651	2654	2566	2527	2635	2627	2626	2615	2582	2591	2603	2634	2563	2658	2662	2582	2655	2619	2575	2566	2627	2563	2627	2551	2627	2539	2582	2647	2598	2603	2635	2603	2559	2651	2602	2603	2554	2639	2651	2550	2646	2635	2519	2571	2614	2531	2512	2526	2531	2575	2583	2523	2538	2611	2599	2511	2603	2583	2514	2510	2514	2491	2571	2567	2547	2531	2459	2463	2567	2462	2466	2483	2555	2559	2515	2462	2467	2539	2559	2435	2430	2506	2503	2499	2467	2394	2431	2386	2410	2471	2466	2436	2430	2475	2474	2382	2450	2371	2426	2386	2446	2360	2418	2403	2359	2331	2411	2406	2411	2379	2346	2318	2382	2410	2346	2363	2363	2395	2287	2347	2270	2271	2270	2266	2247	2271	2238	2238	2239	2307	2242	2246	2315	2268	2327	2283	2278	2266	2247	2191	2219	2255	2166	2155	2170	2219	2242	2139	2143	2150	2239	2146	2232	2242	2223	2152	2223	2174	2191	2231	2115	2179	2179	2086	2091	2131	2159	2154	2146	2191	2187	2087	2167	2111	2182	2191	2155	2195	2115	2075	2063	2090	2043	2099	2063	2111	2071	2103	2054	2154	2123	2142	2099	2107	2055	2055	2159	2071	2158	2135	2130	2047	2026	1998	1999	2007	2071	2047	2003	2107	2034	2127	2075	2095	2132	2018	2126	2123	2027	2007	2066	2107	2043	2078	1995	1979	2083	2047	1986	1982	2023	2090	2078	2074	2055	2003	2062	2006	2087	2063	2087	2062	2082	2051	2063	1952	2058	2063	1947	1978	2014	2078	1978	2022	1998	2058	2083	2030	2083	2027	2067	2051	1983	2002	1935	1950	2027	1979	2011	1975	2023	1982	1983	1999	1999	1979	2067	2070	2024	2063	2059	1947	1950	2027	1946	1967	2010	1943	1943	1947	2043	2058	2051	1962	2071	2042	2071	2047	1959	1946	1983	2010	2031	1959	1975	2035	1987	1971	2042	1936	2035	2035	2007	2074	1986	2067	1971	2019	1966	1947	1999	2047	1971	1923	1974	1934	2039	1999	2011	2042	2018	2003	2023	1979	2035	2006	1998	1995	1999	1955	1954	1994	1991	1899	2002	1976	1930	1999	1955	1999	1970	1947	2022	2030	1999	1934	1934	1947	1927	1907	