2959	3002	2923	2931	2955	2919	2898	2982	2883	2927	2946	2874	2898	2903	2958	2847	2882	2831	2926	2934	2830	2847	2843	2830	2895	2814	2826	2890	2823	2779	2770	2866	2766	2768	2767	2771	2843	2807	2790	2730	2807	2782	2723	2698	2743	2686	2675	2747	2695	2664	2711	2715	2599	2599	2607	2634	2659	2571	2579	2590	2546	2647	2590	2635	2542	2587	2495	2552	2519	2567	2547	2479	2486	2475	2551	2483	2495	2490	2495	2534	2502	2462	2443	2510	2503	2387	2433	2495	2447	2386	2486	2474	2415	2446	2471	2411	2430	2442	2379	2434	2382	2459	2415	2366	2431	2366	2395	2459	2374	2462	2411	2407	2438	2394	2391	2343	2379	2439	2375	2463	2367	2362	2371	2422	2399	2384	2479	2367	2462	2407	2367	2439	2443	2366	2426	2455	2463	2403	2472	2431	2411	2490	2447	2487	2495	2487	2487	2451	2398	2486	2490	2455	2471	2451	2387	2426	2446	2411	2405	2387	2407	2499	2491	2514	2442	2475	2391	2396	2443	2411	2503	2419	2459	2387	2391	2439	2478	2398	2447	2414	2463	2499	2423	2431	2479	2474	2411	2503	2406	2403	2466	2394	2447	2411	2467	2486	2395	2371	2430	2482	2434	2474	2419	2367	2430	2471	2467	2363	2423	2362	2375	2358	2360	2382	2383	2339	2418	2351	2346	2383	2386	2386	2423	2391	2431	2340	2367	2315	2391	2311	2307	2323	2314	2327	2302	2343	2299	2306	2302	2287	2306	2287	2327	2366	2291	2334	2318	2358	2287	2299	2287	2287	2314	2238	2233	2323	2294	2230	2219	2302	2267	2311	2211	2231	2255	2291	2199	2247	2211	2227	2255	2257	2239	2256	2255	2174	2248	2198	2154	2227	2139	2179	2138	2170	2199	2223	2222	2122	2216	2207	2178	2119	2199	2202	2103	2142	2126	2094	2198	2115	2188	2130	2099	2079	2163	2071	2166	2135	2143	2115	2050	2122	2096	2095	2079	2055	2131	2058	2047	2042	2043	2139	2094	2158	2091	2051	2130	2091	2132	2115	2055	2027	2110	2055	2090	2062	2018	2014	2122	2054	2038	2019	2118	2043	2099	2030	2119	2083	2070	2107	2090	2086	2063	2098	2092	2007	2087	2046	2011	2071	2087	1999	2082	2099	2015	1987	2030	2042	2038	2079	2063	2079	1971	1983	1991	2062	2011	2023	2031	2023	1974	2034	2034	2010	1971	2063	2047	2050	2058	2047	1947	2006	1955	2051	1959	1951	1983	2047	2055	1982	1950	2047	1954	2046	2055	2027	1947	2067	2047	1946	1958	1941	1942	1938	2015	2031	1955	2006	2031	2038	2040	2047	2055	1999	1951	1982	1967	2026	1926	1947	1954	1923	1931	1993	2011	2016	1923	1926	1972	1979	1919	1919	1931	1958	1932	1928	2014	1974	1986	1910	1983	1967	1899	1919	1943	1915	1950	1911	1967	1926	2010	1958	1955	2011	1995	1942	1994	1994	1963	1931	1891	1987	1999	1886	1906	1942	1915	1979	1970	1903	1930	1927	1910	1970	1918	1995	1982	1982	2008	1950	1995	1935	1987	1939	1939	1911	1934	2008	1919	1975	2015	1939	1938	1990	1999	1934	2046	1938	2035	1971	1947	2055	1995	2075	2066	2014	2015	2083	2035	2042	2103	2186	2162	2143	2143	2168	2251	2162	2270	2199	2279	2318	2259	2323	2403	2423	2382	2434	2451	2522	2443	2491	2494	2542	2591	2579	2600	2723	2698	2663	2762	2766	2818	2783	2811	2923	2847	2923	3006	2979	2976	2995	3011	3031	3071	3166	3111	3215	3151	3211	3286	3234	3323	3323	3287	3290	3379	3335	3351	3411	3395	3418	3507	3507	3451	3511	3491	3602	3519	3623	3571	3632	3634	3603	3614	3603	3699	3607	3695	3734	3727	3663	3666	3751	3678	3678	3679	3690	3678	3743	3744	3727	3766	3711	3742	3747	3759	3762	3751	3747	3750	3746	3779	3707	3674	3750	3686	3722	3647	3687	3691	3706	3627	3687	3619	3659	3603	3678	3607	3591	3615	3667	3559	3599	3543	3622	3523	3558	3535	3583	3543	3531	3467	3563	3507	3431	3475	3427	3495	3427	3490	3406	3471	3395	3466	3439	3343	3347	3331	3303	3339	3343	3383	3390	3382	3278	3282	3359	3254	3258	3258	3255	3247	3306	3283	3198	3219	3218	3183	3206	3167	3247	3232	3158	3167	3131	3131	3115	3163	3175	3206	3167	3187	3111	3199	3142	3080	3107	3079	3171	3119	3039	3143	3066	3023	3031	3019	3102	3123	3026	3011	3064	3083	3010	3011	3011	3054	2987	3035	2974	3014	2987	2999	2974	2967	2943	3031	3043	2938	2935	3027	2922	2955	2942	2943	2999	2899	2898	2983	2970	2931	2891	2947	2882	2858	2839	2835	2874	2830	2839	2851	2907	2875	2799	2798	2771	2775	2751	2847	2730	2743	2798	2779	2758	2731	2779	2699	2764	2755	2715	2750	2747	2683	2703	2627	2706	2623	2611	2687	2611	2663	2557	2547	2575	2591	2527	2611	2563	2514	2507	2539	2594	2586	2574	2551	2471	2471	2507	2535	2483	2458	2419	2418	2507	2459	2430	2427	2403	2495	2422	2438	2487	2462	2379	2479	2474	2438	2438	2383	2381	2363	2358	2375	2435	2419	2367	2359	2415	2451	2450	2435	2367	2431	2363	2403	2387	2366	2447	2351	2454	2450	2419	2448	2358	2354	2375	2375	2419	2467	2450	2376	2386	2407	2379	2463	2478	2383	2427	2390	2467	2439	2386	2483	2431	2423	2414	2399	2499	2480	2523	2407	2503	2443	2470	2459	2423	2438	2503	2435	2459	2470	2480	2418	2504	2423	2522	2427	2482	2418	2483	2438	2447	2519	2439	2455	2511	2491	2427	2422	2511	2415	2519	2451	2478	2403	2462	2403	2415	2459	2519	2395	2411	2483	2432	2435	2455	2470	2446	2386	2402	2454	2447	2366	2375	2463	2459	2442	2358	2411	2431	2460	2376	2382	2375	2391	2395	2367	2371	2412	2370	2319	2359	2375	2399	2318	2330	2343	2386	2344	2411	2314	2322	2327	2395	2363	2319	2358	2350	2263	2311	2338	2302	2310	2235	2319	2327	2251	2246	2307	2255	2303	2211	2291	2295	2215	2247	2214	2278	2183	2294	2250	2175	2263	2211	2258	2267	2183	2242	2211	2163	2243	2171	2230	2234	2223	2234	2134	2163	2147	2133	2218	2111	2124	2102	2114	2171	2115	2195	2146	2171	2182	2175	2203	2103	2094	2158	2146	2151	2075	2123	2075	2067	2114	2147	2055	2054	2051	2050	2150	2055	2127	2114	2139	2070	2102	2125	2083	2029	2066	2018	2114	2023	2030	2099	2015	2030	2019	2035	2047	2119	2067	2039	2023	2107	2023	2026	2000	2027	2094	2090	1990	2063	1983	2007	2062	2062	2046	2099	2062	2014	2023	2006	2027	2026	2094	2059	2078	2047	1991	2066	2006	2067	2058	1994	2079	1995	2043	1994	2026	2071	2007	2035	2051	2095	1995	1988	2012	1995	2078	2074	2010	2066	2066	2062	2086	2010	2039	2095	2055	2000	2003	2075	2106	2079	2007	2010	1996	2019	2058	2087	1986	2078	2018	2023	1999	1990	2051	2087	2002	2079	1991	1995	2002	1995	2063	2042	1999	2002	2002	2039	1970	2075	2047	2058	2014	1991	1975	2058	2022	2050	1983	2072	1990	2082	1987	2083	2002	2074	2075	2067	2007	2015	2011	2062	2007	1982	2062	1984	2071	1978	2086	2075	2043	2075	2047	1987	1994	1984	2055	1975	2063	2054	2017	2019	1975	1967	2063	2062	1968	2022	2059	2019	1999	2031	2031	2014	1971	1971	2043	2043	2043	2047	2010	1964	1975	1947	2054	1979	1954	1991	2058	2051	1966	1986	1963	2047	2007	1991	1939	1966	1994	2039	1947	1971	1936	2030	2031	2043	1938	2038	2014	1974	2047	2039	2039	2023	2003	2010	1954	1911	1967	1918	2035	1923	1926	1975	2018	1943	1939	1919	1955	1951	1931	2003	1968	1923	2015	1963	1959	1979	1939	1967	1979	2023	2031	1983	1963	1959	2047	1992	1990	2063	2018	2014	1978	2079	2034	1999	2011	2071	2118	2047	2075	2158	2106	2150	2199	2167	2230	2191	2278	2199	2235	2227	2247	2366	2341	2315	2387	2439	2387	2507	2462	2459	2571	2547	2634	2570	2586	2702	2754	2763	2783	2826	2755	2779	2843	2895	2940	2896	3006	2943	2967	3002	3107	3091	3138	3158	3150	3243	3227	3274	3235	3235	3323	3303	3295	3362	3386	3378	3450	3390	3463	3419	3491	3539	3499	3539	3592	3611	3623	3562	3571	3606	3671	3579	3591	3622	3682	3611	3694	3715	3647	3690	3651	3703	3687	3674	3723	3778	3747	3719	3687	3747	3706	3715	3695	3778	3675	3731	3751	3707	3751	3767	3711	3678	3699	3687	3731	3698	3707	3731	3722	3678	3635	3671	3714	3670	3663	3671	3618	3654	3578	3570	3571	3627	3607	3622	3543	3528	3618	3539	3503	3575	3519	3463	3555	3450	3443	3511	3503	3415	3482	3418	3439	3447	3399	3358	3371	3387	3339	3442	3411	3343	3381	3291	3299	3283	3299	3363	3307	3347	3230	3278	3319	3246	3302	3287	3299	3294	3283	3223	3211	3179	3227	3231	3188	3134	3215	3199	3119	3171	3182	3159	3098	3111	3123	3170	3175	3099	3123	3082	3143	3095	3122	3143	3114	3071	3026	3027	3071	3035	3010	3099	3087	3003	3091	3067	3015	3079	3063	2990	3054	3051	2971	2982	3066	3054	3015	3026	2947	3035	2999	2935	3027	2959	3035	2938	2903	2983	2914	2983	2930	2979	2931	2992	2894	2868	2958	2899	2943	2886	2878	2903	2923	2914	2910	2827	2895	2806	2831	2815	2839	2782	2851	2802	2839	2810	2707	2715	2794	2703	2675	2703	2762	2730	2643	2674	2707	2662	2715	2623	2615	2635	2583	2619	2650	2551	2538	2548	2574	2611	2579	2502	2543	2571	2527	2555	2486	2519	2534	2543	2447	2431	2439	2450	2419	2427	2467	2395	2394	2387	2455	2447	2454	2462	2399	2382	2395	2411	2415	2459	2350	2431	2338	2355	2347	2391	2404	2327	2422	2415	2386	2420	2378	2339	2382	2375	2410	2335	2310	2408	2375	2407	2391	2338	2306	2382	2375	2294	2303	2319	2387	2407	2391	2326	2403	2306	2358	2330	2319	2323	2423	2331	2318	2419	2413	2334	2311	2303	2327	2383	2378	2354	2391	2326	2339	2359	2415	2439	2354	2410	2434	2378	2427	2426	2383	2387	2319	2391	2371	2383	2422	2334	2335	2395	2391	2383	2338	2406	2323	2415	2367	2339	2331	2323	2354	2440	2427	2318	2311	2379	2334	2416	2415	2332	2318	2395	2326	2323	2391	2402	2326	2355	2407	2319	2387	2323	2295	2329	2378	2402	2355	2303	2315	2375	2403	2302	2315	2300	2363	2374	2326	2323	2295	2303	2302	2371	2275	2355	2282	2351	2271	2267	2331	2335	2330	2259	2279	2267	2259	2350	2347	2275	2323	2323	2319	2311	2298	2227	2223	2275	2314	2310	2315	2302	2311	2287	2206	2218	2202	2203	2199	2223	2255	2223	2178	2183	2263	2246	2231	2187	2243	2231	2171	2162	2243	2186	2158	2131	2182	2131	2203	2203	2119	2207	2131	2126	2119	2199	2191	2130	2162	2175	2167	2082	2187	2086	2086	2195	2168	2102	2179	2127	2059	2066	2146	2110	2111	2138	2046	2119	2047	2118	2043	2055	2123	2066	2026	2055	2114	2090	2118	2063	2050	2044	2011	2071	1995	1983	2011	2090	1990	2003	2022	2103	1990	2007	2034	1987	2075	2003	2051	1987	2066	1971	2066	1959	2054	1966	2055	2015	1986	2042	1946	1943	1951	1979	2035	2043	1942	1951	1986	1943	1986	1947	1936	2027	1927	1991	2003	1919	1971	1954	1927	2014	1919	1946	1943	1942	2023	1942	1931	1923	1960	1995	1919	1912	1958	1902	1910	1911	1891	2006	2002	1975	1994	1926	1995	1951	1918	1934	1910	1941	1903	2011	1894	1923	1987	1906	1990	1983	1930	1899	1998	1967	1999	1926	1955	1986	2007	2003	1995	1971	1970	1902	1922	1930	1918	1967	1974	1975	1903	1906	1901	1919	1899	1966	1986	1995	1934	1899	1903	1907	1923	1907	1976	1939	1895	1925	1881	1915	1946	1982	1911	1891	1911	1907	2012	1943	1978	1943	1907	1995	1894	1955	1922	1954	1951	1894	1918	1899	1941	1922	1907	1930	1903	1979	1936	2003	1991	1967	2003	1923	1986	1895	1923	1938	1914	2006	1898	1939	1918	1983	1934	2015	2023	2023	1907	1927	1942	2007	1915	1975	2011	1927	2003	1922	1982	1931	1923	1975	2002	1902	2011	2003	1983	2014	1942	1911	1952	1914	2010	1954	2007	1946	1931	1926	1919	2007	1927	1927	1914	1991	2006	1954	2007	1907	1907	2008	1906	2014	2011	1963	1991	1931	1962	1942	1982	1991	1907	1973	1966	1995	1942	1959	1907	1998	1979	1923	1919	1986	1967	1967	1950	1914	1907	1939	1900	1995	1907	1895	1927	1915	1902	1910	2011	1919	1991	2006	1938	1955	2018	1926	1951	2026	2026	1946	2031	1932	2039	2015	2011	1958	2031	2051	2030	2051	2042	2103	