2142	2178	2147	2238	2238	2270	2315	2335	2343	2303	2339	2399	2446	2415	2499	2455	2499	2567	2523	2565	2559	2590	2695	2655	2690	2695	2795	2823	2783	2839	2907	2875	2894	2923	2958	2970	3063	3039	3082	3058	3179	3159	3207	3162	3235	3206	3263	3278	3367	3361	3403	3419	3431	3411	3399	3505	3438	3535	3490	3504	3539	3598	3559	3614	3606	3591	3658	3679	3611	3642	3682	3655	3675	3663	3759	3690	3694	3715	3687	3743	3766	3691	3699	3775	3759	3707	3702	3714	3794	3771	3795	3760	3795	3786	3723	3806	3707	3707	3683	3763	3679	3675	3755	3755	3726	3670	3662	3742	3651	3735	3678	3643	3711	3655	3711	3611	3623	3623	3635	3647	3583	3595	3635	3611	3582	3539	3539	3527	3590	3579	3526	3583	3559	3587	3478	3542	3480	3538	3427	3467	3487	3471	3503	3399	3407	3459	3387	3423	3398	3439	3454	3443	3363	3455	3367	3391	3390	3371	3319	3379	3383	3282	3294	3278	3279	3323	3272	3247	3303	3287	3319	3231	3327	3279	3215	3228	3202	3238	3234	3239	3194	3224	3143	3150	3151	3195	3139	3216	3123	3203	3122	3115	3198	3182	3171	3171	3175	3098	3071	3083	3146	3079	3047	3135	3082	3087	3111	3039	3031	3039	3027	3099	3102	3095	3083	3003	3034	3015	3054	2991	3039	2991	3035	3024	2935	2919	3018	2987	2943	2915	2967	2950	2978	2950	2947	2955	2875	2855	2914	2930	2912	2823	2839	2851	2822	2790	2799	2815	2795	2839	2842	2827	2790	2730	2802	2811	2766	2722	2703	2705	2687	2731	2646	2690	2670	2683	2623	2575	2603	2638	2631	2574	2554	2627	2580	2518	2563	2515	2494	2554	2475	2511	2518	2535	2527	2515	2403	2479	2463	2419	2490	2458	2487	2394	2458	2474	2382	2430	2431	2419	2402	2326	2375	2347	2363	2336	2362	2331	2393	2382	2415	2331	2391	2414	2338	2379	2335	2303	2327	2279	2295	2312	2367	2307	2347	2359	2354	2390	2398	2307	2307	2331	2323	2346	2310	2306	2375	2319	2331	2383	2355	2339	2383	2314	2382	2354	2351	2311	2395	2350	2338	2383	2371	2391	2310	2415	2343	2387	2319	2299	2299	2311	2303	2295	2299	2375	2386	2362	2366	2423	2338	2327	2323	2322	2371	2359	2331	2394	2355	2407	2343	2331	2399	2343	2358	2315	2414	2403	2343	2403	2403	2339	2318	2406	2326	2395	2402	2355	2299	2378	2363	2376	2359	2279	2351	2395	2343	2379	2288	2287	2319	2371	2308	2310	2347	2271	2343	2358	2247	2259	2250	2270	2280	2262	2238	2307	2263	2239	2251	2318	2287	2243	2243	2235	2287	2314	2224	2211	2271	2271	2247	2258	2283	2227	2254	2255	2210	2272	2202	2211	2203	2274	2185	2182	2238	2207	2223	2203	2227	2178	2147	2203	2150	2131	2130	2202	2138	2141	2175	2191	2150	2111	2198	2146	2151	2187	2122	2083	2175	2162	2131	2159	2127	2067	2115	2103	2122	2110	2046	2139	2082	2150	2095	2054	2066	2078	2030	2103	2007	2098	2015	2079	2007	2087	2000	2057	2030	1999	1995	2055	1987	2094	2026	2042	2015	2055	2059	1962	2006	2036	2039	2024	1971	2034	1971	1943	1967	2027	2006	1959	2007	1963	1959	1943	2031	2019	1935	1935	1939	2006	1942	1912	1987	1974	1895	1903	1982	1968	1995	1970	1962	1922	1922	1983	1971	1995	2006	1991	1879	1895	1918	1963	1970	1879	1975	1971	1930	1959	1871	1946	1911	1891	1906	1958	1874	1874	1963	1958	1954	1966	1923	1922	1878	1871	1923	1870	1878	1966	1890	1939	1959	1927	1906	1975	1918	1955	1894	1911	1867	1903	1919	1862	1886	1935	1859	1867	1934	1955	1870	1943	1922	1902	1887	1879	1926	1859	1860	1859	1859	1923	1855	1839	1890	1843	1891	1899	1935	1927	1895	1962	1859	1882	1894	1855	1916	1942	1956	1875	1875	1942	1911	1946	1859	1866	1894	1859	1959	1911	1947	1875	1959	1926	1927	1946	1974	1967	1967	1882	1867	1883	1866	1955	1895	1870	1971	1883	1875	1906	1927	1942	1919	1903	1970	1907	1967	1947	1975	1947	1939	1863	1923	1887	1922	1888	1927	1898	1943	1867	1923	1891	1950	1894	1878	1914	1971	1898	1923	1930	1887	1903	1911	1942	1846	1895	1911	1882	1898	1962	1887	1907	1866	1883	1951	1887	1934	1880	1886	1911	1871	1883	1847	1877	1846	1938	1903	1915	1915	1878	1902	1923	1850	1947	1910	1886	1903	1927	1943	1895	1847	1887	1923	1934	1863	1863	1834	1883	1918	1899	1858	1906	1939	1947	1852	1959	1894	1906	1835	1858	1879	1843	1866	1903	1836	1839	1879	1877	1891	1831	1914	1867	1843	1867	1910	1878	1839	1832	1838	1919	1851	1822	1919	1907	1870	1843	1843	1915	1874	1931	1854	1858	1914	1895	1883	1858	1911	1886	1951	1867	1867	1908	1979	1895	1958	2007	1999	2039	2003	2070	2007	2107	2031	2066	2123	2107	2167	2111	2226	2147	2243	2163	2211	2239	2286	2251	2339	2351	2395	2455	2427	2447	2442	2546	2494	2562	2531	2627	2583	2615	2687	2662	2751	2735	2798	2743	2871	2834	2835	2938	2963	2958	3018	2994	3074	3070	3102	3131	3095	3163	3155	3183	3155	3143	3174	3194	3307	3295	3338	3318	3287	3367	3338	3355	3351	3370	3375	3434	3415	3438	3463	3447	3483	3458	3507	3491	3475	3502	3578	3507	3583	3507	3507	3607	3559	3579	3610	3550	3527	3591	3529	3582	3583	3535	3550	3567	3600	3574	3522	3606	3528	3563	3535	3516	3522	3531	3486	3566	3543	3467	3450	3447	3519	3499	3479	3519	3510	3483	3506	3407	3446	3422	3435	3383	3471	3363	3390	3347	3331	3359	3391	3351	3287	3288	3271	3331	3305	3322	3228	3250	3303	3255	3218	3243	3271	3202	3226	3242	3246	3191	3147	3126	3191	3194	3175	3183	3107	3186	3075	3094	3169	3098	3091	3043	3031	3103	3019	3062	3067	3067	2991	3047	2983	2967	3006	2999	3031	3023	2995	2990	3038	2979	3011	2999	2995	2975	2911	2918	2906	2903	2874	2950	2931	2947	2887	2931	2915	2864	2946	2887	2918	2939	2839	2847	2875	2851	2875	2899	2903	2814	2807	2822	2866	2782	2796	2759	2851	2827	2840	2771	2827	2774	2782	2819	2827	2811	2815	2807	2815	2799	2767	2738	2787	2694	2766	2763	2706	2747	2726	2723	2646	2667	2711	2630	2699	2670	2643	2639	2622	2584	2642	2543	2526	2595	2606	2499	2498	2499	2523	2467	2555	2559	2463	2451	2515	2539	2475	2422	2480	2483	2459	2399	2447	2407	2455	2348	2355	2435	2358	2403	2351	2430	2419	2418	2335	2343	2370	2347	2303	2371	2347	2263	2350	2295	2347	2267	2354	2263	2371	2343	2363	2362	2359	2346	2319	2279	2271	2327	2375	2311	2371	2306	2342	2319	2363	2342	2286	2311	2287	2307	2291	2383	2291	2283	2303	2299	2378	2349	2355	2362	2279	2363	2311	2358	2374	2371	2298	2350	2334	2326	2307	2327	2331	2322	2371	2390	2395	2354	2307	2344	2387	2399	2327	2306	2322	2382	2398	2367	2335	2435	2431	2403	2347	2427	2375	2322	2426	2368	2331	2390	2406	2335	2327	2319	2374	2415	2387	2355	2347	2322	2435	2355	2423	2418	2382	2327	2422	2374	2319	2398	2323	2306	2374	2339	2383	2391	2299	2339	2371	2387	2350	2362	2323	2303	2325	2295	2323	2331	2354	2371	2271	2296	2355	2354	2243	2351	2350	2279	2314	2331	2283	2370	2303	2310	2279	2326	2322	2290	2326	2307	2207	2295	2207	2203	2302	2270	2219	2210	2199	2258	2275	2294	2235	2290	2187	2223	2266	2246	2211	2155	2239	2198	2215	2131	2203	2162	2154	2231	2143	2158	2186	2231	2195	2174	2138	2206	2115	2107	2192	2091	2126	2090	2151	2182	2163	2171	2067	2163	2139	2170	2103	2086	2163	2111	2058	2110	2034	2099	2134	2034	2119	2068	2099	2063	2063	2003	2022	2039	2062	2078	2003	2082	2075	2010	2050	1999	1990	2070	1995	1991	2047	2034	2043	2062	1959	1955	2023	2047	1974	1979	2047	1975	2011	1954	2023	2042	2022	1975	1980	1943	1943	1987	1950	2014	1923	1967	1975	1947	1998	1951	1961	2006	1935	2015	1943	1990	1918	1915	1942	1991	1934	1950	1950	1906	1923	1887	1899	1983	2002	1974	1899	1903	1943	1992	1974	1906	1958	1907	1930	1872	1962	1943	1951	1898	1866	1923	1926	1915	1866	1943	1963	1958	1931	1931	1875	1883	1854	1950	1879	1891	1843	1863	1931	1843	1895	1839	1947	1871	1846	1851	1926	1863	1938	1862	1922	1935	1867	1846	1930	1847	1911	1879	1899	1863	1932	1907	1886	1851	1936	1851	1903	1911	1843	1935	1871	1838	1934	1854	1919	1814	1811	1862	1831	1910	1827	1863	1899	1838	1879	1923	1855	1838	1843	1851	1843	1904	1814	1870	1827	1839	1874	1895	1814	1890	1886	1886	1854	1827	1826	1867	1882	1871	1856	1830	1838	1840	1920	1899	1831	1887	1863	1846	1911	1835	1835	1890	1855	1914	1922	1843	1903	1895	1851	1842	1839	1914	1835	1850	1918	1831	1818	1907	1875	1902	1871	1906	1934	1894	1896	1887	1911	1867	1822	1847	1834	1854	1898	1899	1867	1807	1915	1803	1859	1843	1886	1824	1903	1862	1830	1887	1831	1903	1835	1899	1867	1834	1811	1839	1807	1851	1827	1871	1819	1910	1883	1898	1918	1915	1862	1870	1866	1859	1942	1867	1950	1878	1948	1879	1986	1967	1987	1900	1955	2015	1931	2038	2058	2043	1995	2110	2075	2123	2111	2171	2178	2115	2211	2147	2190	2274	2258	2315	2342	2347	2390	2379	2423	2387	2403	2494	2542	2506	2558	2535	2550	2559	2667	2648	2722	2667	2775	2695	2766	2771	2859	2866	2859	2942	2947	2944	3015	3062	3079	3035	3026	3051	3151	3123	3139	3191	3175	3146	3259	3255	3247	3234	3298	3326	3358	3311	3323	3319	3387	3455	3459	3391	3450	3442	3474	3507	3451	3462	3434	3507	3523	3539	3539	3483	3487	3550	3523	3543	3555	3571	3522	3510	3579	3610	3555	3587	3498	3523	3563	3523	3534	3595	3543	3539	3502	3518	3566	3555	3515	3559	3579	3482	3482	3519	3538	3499	3459	3423	3519	3486	3463	3486	3466	3387	3442	3379	3427	3394	3367	3383	3340	3430	3350	3343	3387	3379	3283	3359	3326	3326	3334	3275	3271	3227	3266	3302	3207	3250	3195	3215	3166	3162	3146	3227	3231	3162	3207	3114	3095	3119	3167	3107	3075	3115	3107	3163	3059	3079	3048	3035	3087	3035	3011	3015	3079	2975	2987	2975	2975	3039	2959	3031	2952	2959	2991	3027	2934	3015	2979	2919	2974	2891	2951	2970	2927	2967	2863	2854	2862	2859	2855	2899	2851	2862	2862	2835	2922	2826	2895	2911	2907	2890	2790	2846	2863	2846	2840	2767	2798	2763	2838	2758	2798	2803	2847	2807	2842	2847	2827	2811	2819	2707	2810	2707	2718	2751	2671	2719	2674	2663	2711	2655	2698	2651	2695	2719	2635	2715	2603	2603	2590	2602	2583	2563	2594	2647	2567	2619	2599	2607	2506	2507	2499	2552	2507	2551	2490	2534	2454	2474	2519	2432	2406	2395	2395	2395	2459	2423	2455	2386	2422	2371	2339	2343	2383	2422	2355	2362	2419	2374	2303	2407	2295	2291	2297	2363	2283	2358	2352	2291	2350	2287	2379	2295	2291	2295	2374	2327	2278	2322	2342	2362	2355	2256	2255	2279	2355	2267	2283	2294	2294	2296	2359	2363	2275	2375	2378	2326	2326	2307	2378	2315	2294	2347	2299	2286	2387	2383	2379	2334	2367	2370	2314	2395	2406	2375	2427	2399	2362	2343	2383	2342	2363	2339	2430	2423	2338	2350	2380	2351	2410	2435	2351	2439	2454	2382	2398	2390	2459	2387	2387	2394	2383	2384	2406	2347	2375	2363	2454	2462	2459	2451	2398	2455	2382	2435	2427	2415	2375	2479	2379	2448	2446	2456	2363	2430	2339	2456	2358	2431	2447	2354	2351	2367	2451	2363	2414	2382	2375	2347	2431	2394	2431	2423	2330	2327	2310	2402	2346	2407	2398	2395	2326	2339	2336	2387	2383	2359	2394	2319	2307	2319	2358	2306	2294	2243	2275	2243	2275	2258	2256	2319	2238	2334	2307	2237	2247	2315	2231	2227	2259	2287	2254	2291	2226	2287	2211	2203	2235	2202	2254	2227	2239	2223	2283	2190	2202	2179	2230	2267	2175	2211	2239	2239	2171	2246	2218	2150	2222	2171	2142	2127	2195	2223	2214	2126	2123	2215	2174	2131	2170	2098	2190	2074	2090	2134	2147	2054	2059	2055	2079	2103	2051	2107	2083	2055	2123	2047	2050	2088	2046	2111	2015	2059	2030	2055	1999	2067	2083	2026	2107	2011	1999	2043	2015	2032	2032	2080	2027	2019	2087	1986	2066	2055	2079	1979	1963	1955	