1967	1927	1943	1947	1915	1987	1934	1995	2003	2015	1906	1899	1899	1971	1963	1950	1879	1979	1899	1975	1991	1906	1998	1974	1975	1934	1911	1958	1974	1926	1987	1927	1895	1919	1887	1914	1982	1970	1883	1870	1962	1894	1938	1982	1902	1983	1903	1939	1911	1867	1955	1867	1915	1851	1947	1947	1907	1951	1854	1898	1923	1862	1962	1943	1871	1910	1938	1844	1934	1890	1912	1827	1930	1923	1911	1920	1838	1827	1919	1918	1899	1859	1918	1879	1910	1838	1819	1826	1887	1822	1883	1910	1858	1798	1787	1879	1851	1847	1831	1851	1795	1791	1874	1791	1882	1895	1799	1822	1775	1802	1795	1867	1767	1799	1843	1778	1867	1858	1858	1831	1767	1830	1799	1799	1875	1795	1866	1867	1843	1867	1823	1760	1766	1783	1806	1822	1779	1774	1863	1819	1871	1819	1826	1867	1823	1811	1927	1931	1923	1907	1867	1883	1910	1983	1923	1948	1939	2011	1974	1999	1995	2083	2082	2062	2179	2091	2192	2147	2195	2255	2234	2207	2311	2283	2347	2391	2331	2447	2390	2515	2451	2554	2511	2587	2606	2555	2679	2634	2635	2767	2734	2719	2826	2795	2775	2858	2919	2951	2918	2946	2951	2971	3063	3043	3119	3150	3175	3123	3210	3208	3183	3219	3259	3211	3311	3258	3278	3274	3339	3403	3351	3390	3455	3414	3411	3466	3471	3475	3442	3523	3447	3490	3527	3543	3490	3558	3495	3566	3527	3526	3538	3583	3614	3594	3558	3554	3643	3550	3555	3555	3618	3594	3639	3546	3632	3603	3570	3627	3547	3531	3587	3555	3550	3526	3531	3583	3539	3583	3547	3531	3543	3467	3507	3459	3523	3500	3448	3459	3451	3511	3459	3407	3495	3439	3475	3451	3451	3467	3447	3395	3351	3423	3395	3330	3399	3391	3319	3298	3335	3359	3322	3287	3300	3358	3319	3259	3274	3283	3315	3250	3223	3279	3182	3219	3183	3202	3238	3163	3215	3183	3214	3215	3179	3199	3207	3139	3159	3143	3183	3131	3107	3114	3151	3142	3127	3103	3054	3062	3039	3019	3078	3103	3023	3050	3055	3007	3003	2991	2986	3003	2990	2958	2951	3027	2979	3022	3007	2939	2986	3006	2930	3019	2935	3018	2975	2963	2939	2927	2971	2979	2891	2950	2883	2923	2915	2850	2923	2907	2874	2919	2846	2862	2846	2898	2867	2891	2894	2890	2887	2782	2854	2763	2843	2831	2743	2735	2722	2818	2726	2707	2794	2731	2790	2695	2703	2707	2643	2746	2671	2686	2714	2603	2608	2638	2649	2647	2619	2631	2628	2559	2587	2615	2587	2550	2616	2503	2543	2550	2527	2543	2463	2447	2450	2463	2451	2491	2471	2499	2443	2498	2487	2411	2419	2399	2419	2375	2463	2375	2430	2439	2438	2375	2367	2390	2401	2438	2391	2370	2351	2438	2438	2395	2399	2382	2382	2407	2347	2375	2378	2426	2367	2403	2386	2343	2423	2419	2419	2415	2439	2367	2382	2367	2367	2455	2378	2422	2359	2343	2370	2370	2362	2398	2351	2415	2358	2359	2418	2466	2474	2402	2479	2423	2467	2511	2403	2502	2410	2446	2442	2398	2398	2474	2418	2459	2407	2475	2442	2491	2459	2422	2439	2503	2503	2439	2455	2526	2502	2490	2442	2510	2515	2406	2439	2507	2515	2423	2419	2494	2423	2422	2527	2522	2528	2479	2522	2431	2482	2520	2435	2471	2446	2447	2494	2418	2487	2450	2483	2463	2487	2488	2402	2467	2454	2439	2414	2499	2494	2399	2470	2387	2424	2379	2375	2475	2435	2458	2451	2378	2366	2363	2363	2414	2399	2399	2383	2390	2346	2391	2342	2330	2370	2410	2331	2363	2387	2326	2379	2303	2387	2339	2384	2303	2374	2307	2354	2327	2335	2291	2358	2280	2319	2239	2327	2243	2246	2303	2243	2238	2223	2219	2224	2242	2302	2211	2211	2218	2291	2194	2210	2255	2207	2143	2227	2144	2151	2131	2178	2192	2190	2219	2182	2155	2119	2239	2139	2176	2115	2179	2199	2123	2159	2098	2091	2106	2103	2064	2154	2142	2062	2062	2110	2074	2151	2091	2139	2078	2114	2051	2098	2107	2026	2018	2003	2038	1991	1991	2027	2046	2007	2071	1987	2047	2007	2023	1986	1990	2035	2059	1975	1963	2014	1959	1988	2019	2007	2026	1943	1999	1986	2011	1951	1938	1990	2030	1955	1990	1932	2010	1915	1938	1914	1963	1979	1971	1926	1954	1999	1943	1926	1935	2002	1915	1923	2026	2006	2002	1919	2003	2006	1935	1923	1991	1922	1987	1951	1891	1986	1986	1979	1951	1935	1987	1979	1922	1947	1911	1955	1971	1899	1967	1910	1903	1972	1915	1935	1879	1943	1914	2002	1971	1995	1963	1959	1951	1962	2002	1943	1923	1930	1946	1975	1990	1943	1966	1979	1975	1935	1982	1939	1959	2018	2018	2022	1990	2015	1934	1935	1919	1987	1974	1952	1931	1922	1955	2022	1970	2006	2022	2038	2035	2010	2042	1962	2006	2055	1967	2035	2030	2014	1939	2006	2022	1942	1962	2035	2015	2027	2014	1962	2034	1979	1995	2047	2070	1996	2059	1951	1978	1986	1966	1950	1946	1978	1978	1950	1959	2058	1979	1983	2018	1987	2062	2003	2031	2027	2039	2047	1999	2075	2056	2054	1962	2059	1975	2047	2055	2018	2035	2046	2059	1995	2006	2022	2042	2047	1995	1975	1966	1959	1971	1986	1963	2022	2055	1967	1995	1994	1994	1967	1983	2015	2019	1999	1978	1990	2075	1975	2042	1967	1966	1947	1979	1975	1974	2011	2025	1971	1991	2007	1967	2063	2070	1979	2002	1970	1970	2022	1963	2019	1958	1946	1998	2046	2015	2043	2058	1969	2030	2087	2051	2094	2015	2095	2118	2118	2023	2055	2098	2055	2135	2142	2110	2165	2195	2111	2127	2194	2227	2231	2211	2222	2299	2342	2354	2299	2330	2311	2415	2347	2355	2382	2466	2475	2475	2463	2571	2599	2551	2630	2659	2683	2663	2739	2747	2691	2759	2703	2827	2767	2808	2883	2812	2898	2890	2894	2943	2919	2946	3043	3080	3067	3039	3042	3079	3070	3167	3143	3159	3176	3131	3212	3247	3235	3210	3211	3247	3319	3283	3331	3360	3319	3339	3303	3306	3403	3319	3371	3414	3335	3383	3419	3419	3458	3442	3447	3431	3383	3380	3406	3398	3467	3391	3399	3455	3439	3415	3471	3414	3403	3434	3407	3379	3362	3415	3351	3378	3383	3418	3395	3359	3331	3411	3375	3387	3342	3323	3335	3387	3370	3307	3271	3274	3254	3282	3235	3231	3238	3259	3218	3287	3239	3199	3228	3215	3178	3167	3175	3147	3159	3166	3111	3163	3094	3163	3119	3107	3087	3075	3071	3098	3059	3055	3143	3031	3035	3027	3063	3051	3071	3011	2979	2979	3007	2986	3015	2994	3034	2954	2934	2995	2979	2962	3023	2931	2923	2903	2934	2907	2955	2918	2862	2899	2882	2874	2848	2915	2859	2851	2843	2851	2922	2841	2847	2883	2922	2903	2843	2902	2808	2798	2811	2803	2866	2862	2819	2779	2779	2775	2783	2871	2843	2771	2766	2839	2818	2747	2759	2747	2738	2823	2742	2711	2759	2707	2806	2710	2691	2707	2775	2691	2739	2782	2683	2774	2711	2755	2703	2667	2743	2683	2627	2699	2695	2694	2607	2603	2598	2590	2671	2647	2590	2586	2568	2566	2639	2638	2578	2547	2534	2499	2530	2483	2532	2467	2459	2446	2470	2507	2483	2443	2443	2503	2430	2419	2495	2491	2435	2414	2438	2371	2395	2371	2387	2399	2355	2415	2355	2406	2359	2383	2371	2339	2450	2423	2327	2399	2383	2375	2419	2398	2391	2386	2295	2323	2331	2307	2311	2330	2302	2306	2403	2343	2407	2370	2407	2375	2415	2378	2379	2339	2391	2351	2306	2311	2327	2342	2322	2394	2406	2319	2347	2442	2350	2367	2327	2362	2391	2350	2343	2440	2411	2362	2352	2387	2358	2414	2383	2391	2363	2390	2426	2371	2378	2414	2470	2378	2387	2371	2475	2459	2351	2450	2450	2447	2471	2470	2394	2382	2479	2383	2406	2455	2488	2390	2442	2422	2470	2419	2402	2471	2378	2375	2391	2391	2400	2415	2451	2383	2459	2415	2390	2455	2408	2470	2446	2467	2430	2455	2468	2379	2379	2435	2463	2370	2450	2410	2407	2463	2387	2455	2439	2371	2367	2451	2447	2371	2342	2402	2363	2399	2330	2327	2430	2394	2315	2347	2334	2335	2350	2406	2362	2367	2327	2386	2399	2391	2366	2339	2286	2356	2278	2371	2346	2270	2287	2336	2263	2263	2318	2255	2256	2338	2323	2288	2319	2231	2247	2299	2271	2223	2207	2294	2275	2187	2206	2198	2262	2198	2207	2188	2223	2255	2223	2167	2251	2243	2235	2123	2227	2182	2126	2175	2152	2203	2178	2163	2095	2103	2103	2194	2099	2095	2179	2142	2086	2119	2063	2137	2051	2075	2042	2075	2074	2115	2119	2019	2065	2031	2119	2039	2122	2099	2111	2110	2019	2099	2026	2050	2042	2011	2075	2075	1987	2079	2027	2059	2018	2082	2003	2051	2011	1987	1999	2000	1977	1990	1987	1975	2067	1966	2018	2031	1975	1979	1979	2067	1978	2042	1987	2059	2079	2002	2039	2090	1983	1999	2070	2063	2071	1978	1979	1986	2063	2054	1986	2000	1982	2022	2034	2087	2074	2039	2078	2078	1999	2031	1979	1978	2070	1979	1983	2018	2031	2007	2063	2063	2087	2091	2039	2095	2010	2039	2075	2063	2099	2090	2103	2099	2076	2056	2062	2063	2086	2075	2011	1998	2099	2086	2026	2088	2015	2111	2070	2026	2047	2070	2051	2042	2095	2011	2015	2047	2014	2090	2102	2099	2099	2019	2079	2031	2082	2055	2107	2030	2115	2031	2011	2010	2062	2079	1990	2055	2074	2099	2062	2047	2010	2046	2116	2015	2019	2059	2022	2100	2107	2063	2095	2006	2079	2003	2062	1987	2079	2017	2091	2091	1999	2103	2066	2023	2007	2079	2054	2003	2014	2027	2038	2027	1990	2051	1994	2007	2067	2022	2043	2035	2015	1995	2032	1994	2003	2046	2026	2074	2091	2062	1983	2006	2079	2034	2070	2043	2079	2047	2064	1999	2015	2014	2059	1998	1986	2043	1998	2086	2059	2046	2011	2002	2077	1986	2002	2015	1990	1990	2003	2080	2010	2054	2022	2031	2027	2087	2106	2046	2127	2063	2059	2135	2083	2067	2070	2159	2102	2151	2127	2214	2191	2267	2235	2194	2243	2282	2298	2262	2350	2291	2339	2403	2411	2459	2402	2512	2443	2475	2552	2533	2567	2623	2591	2651	2654	2727	2774	2726	2830	2795	2814	2798	2923	2943	2946	3010	2943	3022	3067	3091	3067	3138	3099	3131	3226	3242	3251	3255	3299	3358	3282	3339	3339	3410	3375	3466	3466	3447	3450	3550	3483	3542	3503	3539	3638	3563	3615	3662	3623	3687	3695	3715	3639	3702	3702	3747	3699	3683	3787	3799	3702	3723	3771	3815	3770	3755	3751	3763	3802	3819	3747	3759	3811	3790	3832	3771	3823	3747	3739	3740	3747	3823	3835	3779	3755	3766	3806	3742	3767	3710	3686	3707	3695	3703	3759	3658	3687	3687	3666	3663	3679	3651	3615	3631	3643	3638	3607	3663	3663	3667	3623	3578	3569	3607	3551	3587	3535	3614	3512	3507	3527	3591	3551	3583	3486	3531	3546	3562	3515	3467	3426	3506	3498	3479	3395	3371	3402	3378	3395	3367	3367	3378	3399	3399	3419	3419	3419	3314	3311	3319	3351	3367	3287	3299	3331	3275	3331	3307	3335	3323	3295	3280	3231	3230	3263	3248	3310	3307	3303	3191	3271	3190	3263	3223	3194	3179	3214	3251	3222	3158	3247	3167	3206	3139	3223	3215	3219	3114	3155	3191	3122	3167	3083	3079	3087	3083	3158	3090	3154	3114	3151	3100	3071	3127	3107	3114	3091	3078	3119	3007	3015	3003	3035	3035	3063	3023	3071	2986	3075	3051	2972	2971	2990	2955	2979	3027	2950	2910	2975	2922	2879	2899	2867	2866	2903	2927	2934	2863	2810	2871	2799	2878	2791	2787	2787	2854	2771	2742	2751	2719	2783	2699	2747	2763	2755	2675	2751	2663	2727	2740	2643	2655	2650	2662	2702	2647	2706	2587	2647	2639	2595	2615	2547	2586	2559	2611	2543	2567	2623	2579	2591	2588	2594	2523	2551	2571	2590	2506	2571	2495	2559	2547	2575	2555	2580	2479	2491	2555	2587	2559	2579	2541	2519	2547	2591	2499	2521	2495	2595	2567	2571	2559	2550	2519	2539	2574	2479	2582	2563	2484	2502	2516	2558	2523	2570	2506	2503	2534	2507	2490	2491	2511	2503	2499	2494	2590	2587	2576	2510	2570	2607	2602	2606	2630	2535	2526	2556	2531	2519	2592	2598	2603	2511	2506	2582	2550	2507	2499	2510	2567	2615	2606	2587	2519	2543	2511	2530	2622	2527	2547	2523	2606	2555	2599	2574	2503	2608	2542	2504	2515	2502	2532	2532	2563	2554	2571	2527	2511	2518	2519	2595	2546	2527	2575	2511	2523	2488	2527	2510	2583	2483	2567	2534	2511	