3127	3119	3071	3074	3039	3051	3055	3054	3103	3079	3055	3035	3067	3019	3039	3039	3007	3031	2959	3014	2991	3023	2979	2963	2975	2938	2934	2977	2943	2939	2939	2966	2963	2938	2955	2903	2904	2915	2911	2883	2883	2887	2850	2895	2916	2843	2843	2882	2878	2866	2867	2871	2835	2875	2867	2867	2795	2831	2771	2795	2778	2831	2803	2759	2810	2807	2736	2759	2787	2739	2762	2755	2751	2735	2739	2746	2758	2699	2751	2739	2723	2719	2727	2699	2707	2675	2698	2706	2667	2627	2682	2694	2691	2618	2619	2647	2622	2640	2667	2618	2648	2594	2586	2599	2627	2655	2595	2599	2590	2555	2627	2566	2595	2630	2555	2608	2579	2559	2595	2539	2591	2519	2534	2536	2579	2579	2559	2578	2575	2514	2531	2567	2518	2552	2594	2595	2587	2602	2559	2523	2518	2575	2520	2550	2511	2519	2522	2518	2522	2523	2586	2518	2518	2553	2558	2503	2527	2563	2527	2507	2531	2502	2526	2498	2558	2582	2550	2523	2495	2563	2502	2542	2510	2478	2483	2547	2511	2479	2502	2530	2474	2519	2539	2500	2494	2495	2522	2478	2450	2466	2439	2450	2503	2434	2447	2499	2463	2454	2447	2483	2487	2436	2472	2431	2439	2439	2455	2403	2398	2395	2474	2439	2447	2400	2439	2367	2379	2410	2430	2362	2424	2438	2419	2431	2347	2387	2346	2339	2378	2387	2366	2390	2403	2367	2362	2323	2383	2379	2303	2327	2300	2358	2295	2359	2306	2338	2295	2270	2323	2323	2255	2263	2256	2247	2291	2272	2302	2247	2255	2235	2311	2299	2216	2255	2262	2275	2274	2267	2267	2224	2202	2235	2258	2218	2263	2207	2203	2232	2222	2222	2230	2231	2186	2170	2231	2250	2166	2171	2174	2235	2223	2225	2162	2178	2142	2170	2207	2135	2163	2150	2207	2159	2127	2131	2145	2206	2139	2123	2127	2139	2119	2131	2139	2111	2099	2118	2091	2143	2127	2119	2107	2115	2147	2110	2151	2134	2134	2154	2118	2104	2090	2131	2142	2111	2091	2075	2102	2103	2134	2135	2059	2106	2058	2054	2141	2131	2107	2135	2067	2038	2046	2042	2116	2123	2115	2098	2051	2035	2079	2062	2046	2038	2087	2042	2023	2090	2111	2030	2099	2047	2083	2014	2066	2099	2083	2010	2071	2014	2007	2035	2083	2087	2075	2006	2067	2018	2047	2089	1994	2043	1986	2042	2064	2042	2015	2030	1995	2047	2003	2067	1978	1984	2023	1994	2019	1986	2071	2031	2023	2031	2062	2012	2030	2031	2022	1983	1984	2015	2031	1998	2039	2056	1994	1990	2038	2046	1998	2039	1975	2039	1975	1990	2035	2030	2014	1971	1990	2030	2043	2026	1983	2030	2018	1979	1943	1951	1967	1967	1975	1999	1954	1988	2023	1963	1974	1971	1987	1994	2056	1987	2063	2006	2051	2035	2083	2134	2122	2087	2102	2170	2200	2158	2187	2186	2235	2219	2226	2251	2331	2293	2367	2383	2375	2426	2463	2422	2519	2550	2559	2587	2623	2646	2663	2715	2651	2730	2747	2751	2819	2759	2871	2883	2903	2894	2967	2971	2975	2959	2999	3011	3099	3111	3127	3102	3103	3121	3139	3211	3258	3218	3255	3230	3227	3279	3314	3312	3343	3314	3367	3339	3395	3367	3355	3374	3435	3395	3418	3442	3403	3415	3458	3448	3402	3478	3479	3463	3455	3499	3499	3459	3483	3503	3462	3446	3514	3447	3499	3499	3451	3430	3478	3499	3455	3491	3472	3455	3415	3439	3446	3463	3418	3383	3383	3386	3423	3410	3362	3415	3383	3363	3394	3342	3335	3378	3323	3322	3350	3299	3307	3291	3342	3275	3319	3270	3310	3231	3275	3223	3256	3255	3235	3263	3231	3191	3194	3231	3171	3235	3207	3159	3170	3163	3184	3155	3139	3163	3142	3135	3128	3059	3119	3070	3071	3106	3086	3114	3039	3075	3087	3030	3099	3090	3063	3048	2987	3054	3042	3003	2987	3043	2999	3039	2978	2958	2979	3043	2974	2986	2998	2950	3003	2966	2934	2939	2991	2995	2967	3006	2983	2991	2958	2934	2927	2958	2959	2910	2974	2954	2923	2919	2910	2946	2955	2922	2858	2870	2867	2887	2846	2863	2882	2839	2831	2843	2867	2835	2819	2803	2851	2799	2850	2838	2800	2791	2771	2779	2774	2815	2783	2754	2807	2799	2738	2722	2779	2787	2767	2743	2695	2678	2754	2706	2771	2698	2715	2723	2731	2743	2687	2703	2691	2683	2715	2655	2730	2699	2711	2639	2647	2707	2691	2635	2683	2624	2674	2691	2686	2598	2667	2583	2623	2670	2623	2618	2603	2590	2659	2659	2622	2634	2639	2642	2579	2627	2603	2647	2571	2580	2603	2635	2583	2659	2571	2579	2619	2631	2579	2571	2610	2631	2582	2583	2616	2591	2559	2579	2582	2567	2555	2639	2566	2559	2582	2607	2611	2606	2638	2575	2595	2567	2626	2563	2594	2566	2619	2578	2559	2567	2551	2575	2587	2583	2554	2603	2542	2578	2610	2591	2554	2567	2591	2608	2542	2607	2579	2523	2575	2518	2522	2530	2579	2534	2571	2526	2527	2523	2503	2520	2511	2523	2527	2555	2526	2538	2550	2523	2515	2487	2495	2462	2491	2519	2495	2526	2493	2462	2530	2482	2431	2471	2470	2495	2494	2418	2475	2427	2423	2399	2411	2423	2403	2447	2431	2443	2435	2403	2386	2423	2391	2427	2355	2363	2367	2399	2350	2419	2331	2327	2339	2386	2318	2387	2323	2327	2318	2370	2359	2319	2335	2363	2354	2307	2326	2335	2347	2279	2310	2259	2303	2299	2263	2335	2283	2238	2307	2307	2246	2246	2282	2223	2283	2218	2255	2223	2231	2223	2258	2231	2227	2191	2231	2182	2199	2231	2239	2187	2215	2199	2187	2203	2194	2179	2218	2162	2187	2202	2154	2146	2219	2194	2223	2159	2159	2196	2210	2223	2150	2131	2126	2146	2182	2170	2135	2199	2154	2118	2111	2122	2190	2127	2127	2115	2166	2152	2111	2102	2122	2191	2183	2150	2147	2105	2147	2111	2162	2083	2090	2102	2091	2154	2091	2102	2079	2099	2115	2159	2070	2123	2095	2071	2082	2146	2146	2102	2138	2120	2123	2087	2066	2063	2103	2154	2080	2134	2107	2098	2146	2131	2126	2059	2087	2086	2110	2131	2074	2139	2114	2047	2108	2066	2063	2139	2118	2083	2059	2067	2066	2090	2091	2071	2094	2135	2059	2142	2078	2058	2074	2067	2103	2054	2131	2090	2073	2131	2062	2119	2063	2103	2126	2094	2127	2082	2086	2058	2123	2067	2078	2099	2067	2147	2075	2123	2059	2074	2075	2078	2086	2118	2139	2094	2138	2082	2075	2155	2122	2107	2075	2123	2131	2078	2075	2103	2102	2126	2103	2091	2087	2087	2078	2122	2075	2095	2115	2162	2091	2087	2159	2128	2079	2118	2094	2079	2139	2159	2114	2174	2111	2130	2102	2119	2172	2127	2155	2158	2158	2211	2163	2242	2171	2179	2262	2270	2303	2211	2311	2278	2323	2354	2318	2402	2379	2436	2402	2491	2446	2546	2547	2546	2571	2638	2658	2643	2662	2715	2747	2784	2739	2807	2782	2843	2902	2906	2934	2927	2931	3026	3011	3031	3066	3071	3150	3111	3196	3146	3238	3247	3223	3230	3266	3291	3327	3298	3355	3340	3355	3399	3378	3391	3439	3411	3467	3503	3467	3495	3523	3504	3551	3579	3527	3538	3590	3571	3610	3603	3622	3632	3571	3583	3618	3619	3651	3631	3644	3635	3595	3614	3635	3662	3623	3667	3643	3614	3643	3663	3603	3626	3603	3626	3627	3634	3615	3587	3599	3558	3611	3594	3610	3591	3582	3571	3591	3531	3515	3526	3571	3483	3542	3499	3462	3495	3495	3458	3518	3486	3435	3423	3427	3462	3459	3427	3463	3422	3375	3407	3387	3378	3351	3327	3327	3351	3319	3327	3314	3367	3351	3299	3302	3331	3266	3244	3310	3283	3294	3278	3223	3243	3203	3198	3199	3263	3239	3219	3215	3167	3223	3210	3171	3210	3167	3115	3131	3130	3191	3174	3170	3175	3115	3135	3135	3126	3071	3123	3091	3059	3058	3123	3091	3079	3043	3099	3046	3112	3050	3087	3062	3007	3019	3011	3015	3007	3050	2991	3043	2959	3051	2970	3039	2963	2958	2983	2951	2986	2970	3003	2995	2978	2927	2983	2931	2919	2908	2959	2943	2927	2898	2942	2851	2919	2854	2887	2870	2918	2846	2862	2819	2903	2867	2835	2815	2879	2787	2827	2798	2786	2791	2817	2771	2787	2823	2767	2814	2767	2742	2787	2762	2751	2798	2751	2719	2770	2731	2754	2699	2734	2691	2762	2762	2711	2730	2766	2710	2687	2754	2735	2735	2706	2735	2694	2671	2680	2694	2671	2683	2735	2667	2672	2715	2730	2662	2715	2718	2663	2654	2723	2647	2715	2674	2707	2679	2647	2658	2658	2647	2643	2707	2686	2647	2687	2646	2707	2659	2711	2650	2687	2655	2674	2687	2639	2682	2699	2666	2663	2711	2666	2674	2699	2711	2654	2715	2727	2659	2695	2691	2707	2686	2658	2703	2643	2651	2683	2650	2651	2623	2662	2642	2658	2694	2687	2656	2698	2655	2723	2634	2631	2650	2647	2671	2671	2686	2642	2631	2634	2619	2631	2631	2639	2606	2666	2618	2635	2646	2643	2659	2611	2647	2675	2606	2626	2670	2582	2607	2658	2618	2582	2594	2648	2584	2607	2590	2627	2602	2622	2618	2604	2551	2538	2619	2599	2590	2534	2599	2562	2575	2563	2531	2527	2563	2498	2562	2546	2527	2567	2551	2474	2526	2463	2542	2487	2515	2463	2468	2430	2423	2438	2447	2451	2422	2495	2395	2434	2394	2399	2386	2391	2387	2427	2375	2403	2366	2396	2366	2395	2402	2335	2397	2387	2343	2342	2315	2323	2359	2390	2302	2359	2334	2355	2370	2291	2315	2335	2331	2271	2354	2287	2294	2330	2270	2255	2251	2278	2246	2307	2258	2326	2231	2286	2239	2227	2198	2266	2214	2259	2207	2179	2194	2202	2255	2186	2191	2182	2218	2251	2170	2163	2198	2155	2187	2146	2146	2195	2143	2206	2167	2223	2153	2154	2162	2151	2162	2114	2187	2127	2182	2142	2139	2114	2139	2171	2119	2182	2175	2146	2143	2175	2146	2154	2131	2090	2095	2110	2159	2150	2119	2083	2106	2075	2162	2091	2071	2146	2063	2072	2099	2063	2079	2087	2127	2063	2067	2111	2091	2106	2098	2062	2059	2087	2079	2067	2106	2087	2039	2095	2043	2114	2039	2043	2063	2034	2111	2055	2054	2079	2070	2095	2091	2082	2087	2087	2035	2050	2042	2046	2026	2107	2059	2064	2086	2114	2086	2063	2078	2103	2059	2047	2070	2076	2026	2095	2091	2011	2031	2023	2027	2051	2091	2066	2066	2027	2042	2083	2035	2019	2031	2079	2051	2024	2099	2038	2086	2071	1999	2054	2023	2042	2094	2086	2007	2083	2051	2018	2022	2099	2030	2023	2062	2103	2047	2122	2106	2087	2127	2094	2175	2147	2155	2191	2211	2182	2223	2251	2226	2243	2262	2351	2283	2331	2390	2418	2443	2459	2479	2519	2479	2494	2510	2571	2642	2607	2614	2642	2667	2727	2775	2731	2791	2862	2859	2867	2915	2919	2915	2930	2943	3019	2999	3015	3031	3107	3055	3126	3147	3175	3127	3155	3139	3179	3266	3247	3227	3298	3255	3271	3334	3342	3295	3311	3335	3407	3390	3346	3430	3407	3383	3424	3435	3460	3399	3475	3470	3427	3479	3494	3511	3435	3519	3459	3471	3455	3458	3467	3467	3515	3487	3503	3523	3475	3539	3474	3523	3466	3514	3479	3495	3506	3491	3439	3487	3479	3431	3446	3431	3458	3479	3423	3402	3415	3434	3411	3375	3419	3407	3386	3423	3407	3418	3375	3411	3386	3331	3379	3311	3339	3379	3375	3374	3347	3323	3307	3307	3303	3275	3287	3290	3299	3215	3251	3259	3219	3211	3255	3270	3203	3206	3174	3171	3190	3163	3199	3143	3238	3138	3126	3159	3171	3114	3146	3150	3090	3166	3099	3123	3078	3083	3107	3123	3127	3070	3046	3051	3019	3050	3043	3071	3015	3063	3071	3052	3047	3055	3027	3062	2976	3047	3039	3051	2982	2951	2951	2958	2987	3011	2931	2991	2931	2926	2927	2910	2914	2900	2959	2898	2907	2891	2927	2875	2922	2886	2896	2891	2874	2850	2894	2887	2871	2879	2830	2810	2830	2855	2799	2819	2778	2786	2798	2755	2807	2747	2751	2791	2754	2731	2718	2766	2775	2763	2714	2758	2723	2694	2734	2699	2751	2743	2719	2663	2667	2643	2634	2647	2635	2663	2691	2679	2675	2630	2678	2615	2608	2615	2635	2606	2650	2659	2635	2599	2655	2655	2647	2582	2634	2638	2615	2643	2602	2587	2610	2587	2574	2594	2634	2594	2622	2583	2634	2615	2554	2627	2543	2539	2578	2563	2594	2598	2542	2530	2591	2606	2550	2595	2531	2551	2587	2551	2542	2598	2556	2522	2607	2546	2550	2543	2587	2551	2571	2583	2584	2566	2534	2518	2582	2579	2551	2562	2592	2551	2531	2599	2595	2555	2575	