2031	2022	2010	2034	2067	2035	2047	2034	1971	2010	2047	1982	1998	2034	1959	1999	2014	1966	1947	1954	2007	1955	1978	2018	1943	1998	1947	1983	1963	1927	1990	1975	1926	1991	1958	1910	1954	1947	1903	1908	1908	1962	1926	1959	1990	1983	1946	1975	1904	1907	1919	1930	1895	1923	1915	1971	1959	1898	1939	1898	1960	1946	1919	1914	1967	1927	1947	1890	1906	1931	1955	1891	1895	1902	1902	1875	1935	1887	1879	1870	1895	1950	1859	1871	1875	1931	1911	1927	1863	1942	1891	1930	1926	1922	1915	1906	1887	1955	1955	1907	1943	1983	1898	1982	1997	2002	1962	1987	2027	1975	1998	1998	2032	2047	2070	2072	2075	2095	2130	2186	2230	2259	2283	2227	2270	2299	2294	2379	2410	2415	2414	2410	2451	2543	2543	2519	2568	2567	2583	2704	2686	2750	2714	2711	2734	2823	2855	2835	2907	2935	2935	2911	2987	2947	3006	2975	3043	3075	3035	3079	3135	3154	3124	3203	3203	3222	3232	3231	3207	3215	3263	3259	3316	3274	3310	3318	3330	3388	3315	3363	3342	3375	3358	3351	3439	3370	3399	3403	3431	3395	3431	3407	3419	3399	3464	3459	3446	3447	3459	3443	3411	3443	3407	3414	3390	3406	3387	3395	3470	3463	3431	3383	3436	3375	3410	3366	3363	3427	3395	3411	3415	3403	3371	3382	3350	3331	3315	3343	3363	3299	3347	3287	3311	3351	3327	3279	3287	3259	3291	3235	3215	3290	3271	3203	3211	3254	3207	3189	3216	3159	3207	3139	3147	3211	3167	3143	3143	3158	3147	3150	3142	3075	3107	3138	3118	3079	3115	3059	3099	3055	3071	3023	3032	2999	3003	3027	3018	2979	3047	3054	2999	2975	3009	2946	3007	2967	2999	3006	2971	2975	2986	2907	2979	2934	2938	2950	2879	2886	2931	2927	2867	2871	2871	2898	2851	2896	2899	2887	2903	2894	2859	2831	2883	2863	2835	2827	2862	2851	2835	2823	2759	2762	2770	2771	2758	2743	2751	2734	2775	2743	2703	2694	2699	2715	2742	2703	2742	2675	2671	2682	2718	2663	2730	2647	2654	2634	2635	2611	2643	2595	2651	2615	2603	2595	2646	2570	2619	2619	2587	2595	2547	2554	2550	2588	2543	2598	2583	2522	2574	2531	2507	2527	2511	2531	2554	2503	2515	2518	2551	2535	2526	2519	2559	2487	2519	2487	2527	2487	2535	2503	2483	2458	2519	2455	2488	2514	2527	2463	2494	2503	2451	2498	2523	2503	2490	2490	2459	2503	2503	2455	2459	2451	2454	2479	2440	2463	2442	2522	2511	2499	2471	2435	2467	2519	2499	2487	2515	2491	2443	2476	2499	2430	2483	2431	2435	2499	2463	2423	2458	2471	2482	2466	2424	2476	2482	2487	2427	2434	2438	2463	2439	2447	2467	2474	2418	2446	2462	2419	2475	2467	2446	2451	2419	2431	2422	2410	2431	2462	2430	2419	2451	2459	2459	2447	2424	2455	2463	2406	2446	2379	2379	2399	2379	2411	2446	2439	2379	2438	2415	2383	2363	2423	2351	2390	2351	2374	2335	2363	2394	2355	2379	2359	2343	2322	2335	2343	2327	2363	2310	2315	2319	2307	2378	2335	2298	2291	2295	2370	2307	2291	2343	2331	2263	2295	2263	2271	2287	2315	2283	2326	2274	2287	2234	2230	2263	2222	2263	2279	2211	2230	2204	2198	2218	2191	2271	2259	2267	2195	2246	2224	2199	2247	2179	2231	2222	2219	2211	2151	2191	2211	2147	2230	2215	2139	2179	2183	2190	2162	2138	2135	2170	2123	2115	2184	2139	2119	2178	2119	2135	2119	2107	2150	2143	2123	2146	2158	2150	2159	2142	2123	2078	2135	2106	2074	2075	2055	2138	2079	2099	2123	2055	2090	2116	2054	2067	2070	2079	2070	2126	2042	2094	2087	2055	2055	2115	2063	2030	2078	2047	2019	2090	2071	2115	2030	2077	2083	2070	2034	2043	2034	2062	2027	2067	2047	2042	2002	2002	2011	2063	2035	2018	1991	2071	2022	1994	1998	1978	1994	1971	2027	2019	2051	1966	2006	1959	2018	1971	1973	2023	2031	2003	2031	2018	2007	1975	1939	2019	1936	2011	1943	1987	1978	2011	1947	2002	1976	1994	1946	2026	1939	1950	1931	1939	1942	1946	1999	1938	1979	2006	1938	1967	1931	1910	1914	1899	1902	1936	1934	1983	1912	1935	1975	1946	1998	1971	1939	1979	1918	1919	1988	1899	1954	1896	1923	1934	1911	1915	1991	1979	1999	2022	1959	1967	1990	1983	2024	2010	2003	2015	2059	2047	2091	2138	2114	2111	2148	2219	2183	2206	2231	2322	2275	2371	2351	2407	2387	2411	2451	2499	2471	2479	2515	2523	2606	2647	2618	2668	2683	2743	2754	2734	2806	2782	2863	2899	2878	2891	2911	2935	2983	3026	2990	2998	3087	3070	3068	3139	3155	3135	3179	3154	3167	3182	3251	3251	3267	3262	3279	3335	3323	3335	3314	3371	3374	3347	3371	3362	3408	3419	3379	3390	3451	3411	3427	3478	3418	3442	3487	3439	3458	3451	3482	3454	3454	3443	3475	3474	3530	3463	3443	3463	3515	3474	3495	3502	3442	3495	3478	3499	3478	3458	3435	3463	3414	3431	3478	3417	3407	3447	3454	3443	3442	3371	3430	3379	3419	3407	3379	3406	3423	3346	3327	3323	3331	3359	3374	3355	3374	3351	3327	3294	3339	3282	3306	3307	3263	3287	3315	3231	3220	3235	3251	3222	3206	3215	3179	3187	3218	3214	3175	3155	3171	3145	3198	3155	3162	3159	3095	3106	3107	3087	3071	3131	3095	3119	3062	3054	3083	3122	3111	3075	3063	3031	3047	3043	3051	3050	3043	2994	3018	3047	3023	2983	2991	3047	2994	2963	2959	2995	3023	2952	2999	2952	2934	2983	2982	2915	2995	2946	2947	2899	2887	2938	2907	2906	2939	2863	2890	2907	2911	2908	2911	2895	2899	2843	2859	2886	2874	2802	2872	2843	2863	2811	2783	2822	2779	2830	2783	2783	2775	2775	2775	2727	2791	2718	2719	2778	2739	2758	2735	2750	2682	2695	2723	2659	2727	2690	2679	2655	2691	2687	2659	2719	2630	2646	2646	2667	2687	2682	2674	2639	2619	2627	2630	2606	2671	2603	2575	2638	2570	2637	2583	2630	2559	2588	2599	2553	2602	2551	2551	2550	2591	2534	2587	2547	2526	2530	2590	2543	2595	2535	2515	2559	2515	2575	2506	2571	2550	2531	2574	2566	2535	2530	2507	2547	2539	2544	2502	2498	2488	2501	2494	2551	2499	2567	2507	2539	2566	2535	2519	2487	2547	2562	2527	2543	2534	2543	2502	2515	2527	2503	2552	2491	2475	2547	2503	2547	2523	2547	2538	2531	2531	2547	2542	2475	2474	2498	2523	2487	2515	2503	2482	2503	2495	2515	2510	2503	2458	2460	2527	2531	2487	2499	2443	2495	2447	2494	2507	2435	2435	2434	2431	2478	2435	2422	2459	2495	2423	2411	2410	2447	2450	2471	2438	2435	2414	2398	2412	2430	2455	2394	2403	2370	2447	2439	2402	2390	2419	2390	2391	2335	2418	2383	2419	2339	2415	2363	2335	2343	2387	2383	2343	2378	2343	2299	2343	2334	2346	2359	2306	2319	2339	2347	2351	2307	2290	2335	2315	2266	2267	2255	2242	2327	2255	2311	2283	2251	2255	2266	2310	2295	2222	2218	2231	2247	2202	2215	2227	2199	2255	2171	2223	2214	2187	2247	2239	2211	2170	2211	2218	2179	2171	2158	2159	2199	2190	2151	2211	2227	2179	2154	2159	2140	2171	2155	2118	2187	2179	2115	2179	2170	2186	2191	2111	2098	2123	2146	2119	2147	2103	2126	2119	2151	2103	2107	2082	2104	2083	2079	2067	2150	2155	2079	2066	2088	2090	2111	2142	2070	2115	2047	2111	2083	2062	2070	2106	2034	2111	2115	2071	2030	2066	2038	2059	2046	2114	2038	2067	2067	2083	2035	2039	2062	2063	2016	2066	2055	2014	2023	2083	2063	1995	1995	2070	2034	2067	2047	2054	1998	2055	2045	2074	2031	1974	2043	1991	2003	1975	2054	2063	2034	1987	2022	2032	2031	2027	2039	2035	1991	2047	1959	2006	2015	1979	1960	1978	1963	1962	1979	2042	1973	1983	1966	2019	2047	2007	1959	2046	1974	2042	1994	1991	1991	1994	2011	2023	1967	2018	2027	1986	1986	1975	1995	2002	1939	1986	1955	2003	1935	1960	1999	2011	1983	1950	1943	2022	1995	1954	2015	1975	2022	2035	2066	2056	2051	2091	2067	2042	2131	2139	2103	2119	2111	2159	2203	2179	2183	2210	2288	2307	2326	2275	2339	2318	2383	2420	2454	2439	2468	2494	2550	2526	2590	2575	2627	2602	2635	2684	2758	2754	2766	2787	2763	2823	2870	2930	2867	2915	2919	2935	2978	3006	3023	3095	3083	3079	3119	3103	3167	3171	3139	3210	3182	3242	3256	3239	3234	3251	3315	3283	3327	3294	3319	3359	3323	3383	3363	3375	3403	3395	3448	3463	3443	3447	3419	3451	3475	3435	3450	3467	3483	3490	3455	3459	3475	3519	3458	3518	3506	3487	3491	3502	3483	3483	3470	3494	3514	3483	3434	3475	3491	3479	3467	3491	3451	3447	3483	3440	3451	3440	3399	3447	3467	3426	3442	3371	3371	3367	3354	3414	3355	3350	3335	3359	3339	3323	3331	3304	3339	3291	3315	3303	3306	3307	3279	3254	3243	3267	3258	3247	3251	3219	3247	3239	3223	3211	3175	3240	3191	3199	3159	3194	3159	3171	3207	3130	3190	3111	3183	3130	3123	3159	3162	3115	3106	3127	3086	3067	3103	3071	3059	3091	3094	3115	3055	3062	3063	3087	3010	3031	3066	3063	3062	3015	3023	3035	3031	2979	3007	3015	2970	2955	3026	3003	3011	2987	2943	2991	2991	2963	2943	2942	2931	2922	2942	2926	2963	2895	2943	2926	2922	2882	2943	2880	2887	2903	2927	2923	2846	2871	2895	2818	2899	2850	2890	2835	2871	2803	2806	2850	2790	2803	2806	2847	2807	2823	2830	2750	2762	2743	2810	2751	2750	2771	2778	2771	2759	2710	2743	2767	2755	2730	2750	2671	2727	2706	2727	2715	2682	2695	2627	2695	2682	2679	2643	2630	2634	2614	2615	2630	2615	2603	2603	2599	2658	2591	2619	2583	2606	2647	2635	2595	2623	2626	2599	2615	2556	2612	2606	2568	2559	2558	2583	2615	2550	2559	2547	2546	2539	2559	2531	2547	2600	2606	2510	2579	2578	2587	2571	2562	2511	2575	2554	2510	2535	2542	2539	2554	2523	2539	2571	2551	2564	2524	2531	2526	2554	2498	2539	2539	2567	2498	2571	2479	2503	2559	2487	2494	2555	2566	2518	2483	2531	2543	2547	2534	2479	2487	2539	2487	2478	2483	2511	2511	2462	2458	2467	2547	2535	2535	2543	2446	2458	2511	2506	2517	2502	2491	2499	2502	2458	2435	2443	2462	2439	2487	2426	2431	2459	2439	2486	2423	2487	2479	2403	2443	2443	2462	2391	2411	2411	2411	2384	2431	2394	2390	2375	2435	2422	2434	2398	2424	2375	2367	2367	2411	2371	2395	2367	2360	2331	2319	2378	2386	2355	2343	2335	2302	2366	2335	2291	2294	2315	2358	2311	2326	2307	2319	2331	2254	2294	2295	2267	2303	2266	2286	2259	2242	2250	2299	2295	2227	2230	2250	2283	2287	2243	2290	2254	2278	2207	2231	2199	2215	2270	2242	2255	2207	2231	2254	2187	2183	2227	2167	2231	2231	2182	2203	2222	2231	2219	2147	2143	2167	2195	2167	2163	2151	2190	2147	2127	2171	2203	2191	2126	2103	2139	2134	2150	2166	2111	2127	2094	2151	2118	2125	2146	2174	2091	2075	2158	2075	2075	2154	2151	2091	2074	2064	2139	2087	2098	2103	2111	2130	2072	2110	2067	2059	2054	2111	2060	2059	2047	2067	2079	2035	2040	2030	2094	2017	2015	2018	2051	2071	2007	2027	2064	2066	2003	2018	2011	2062	2047	2011	2035	2022	1991	1990	1967	2003	1990	1986	2010	2026	2066	2038	1986	2062	2038	1975	2007	2019	1983	2006	2034	2019	1982	1963	2026	1991	2047	2023	1971	2031	2038	1999	2018	2019	1991	1983	1960	1971	2018	2014	1952	1951	1966	2034	2035	1979	1991	1978	1970	2026	2014	1963	2034	2027	1954	2015	1983	1962	1958	1994	2019	1954	1962	2038	1991	1951	2023	1958	2002	1963	2038	1955	2027	1978	1979	2017	1970	1971	1966	1979	2042	2011	2011	2031	1987	2078	2042	2055	2071	2055	2111	2082	2135	2122	2150	2190	2150	2175	2175	2214	2294	2303	2311	2282	2323	2343	2415	2403	2382	2499	2446	2530	2511	2571	2615	2587	2647	2614	2651	2679	2739	2739	2743	2762	2803	2882	2811	2850	2943	2915	2926	2998	2979	3030	3015	3027	3035	3058	3086	3139	3107	3127	3163	3143	3199	3243	3243	3211	3262	3231	3340	3335	3310	3302	3319	3383	3363	3407	3379	3383	3379	3407	3390	3379	3450	3447	3423	3455	3507	3490	3470	3451	3507	3443	3490	3463	3499	3472	3455	3435	3450	3494	3451	3426	3455	3503	3491	3431	3475	3431	3427	3446	3446	3507	3451	3423	