2174	2205	2203	2131	2134	2191	2147	2202	2151	2147	2163	2166	2111	2170	2182	2120	2174	2178	2137	2114	2151	2111	2104	2099	2159	2127	2143	2172	2080	2119	2155	2139	2135	2131	2163	2107	2146	2070	2146	2150	2139	2159	2164	2146	2095	2162	2162	2130	2110	2171	2111	2194	2131	2190	2150	2131	2190	2188	2174	2243	2246	2195	2278	2299	2290	2287	2367	2319	2320	2371	2350	2375	2443	2454	2434	2484	2531	2503	2546	2630	2647	2603	2619	2682	2727	2703	2791	2743	2823	2819	2822	2851	2918	2895	2903	2950	2986	3038	3027	3059	3075	3046	3107	3103	3111	3122	3150	3139	3175	3182	3235	3282	3223	3303	3271	3286	3342	3339	3371	3374	3383	3387	3410	3418	3399	3427	3454	3455	3480	3435	3458	3424	3483	3459	3514	3511	3498	3447	3474	3490	3475	3478	3538	3527	3487	3479	3519	3543	3503	3503	3523	3531	3518	3514	3514	3507	3483	3483	3543	3511	3475	3471	3483	3443	3438	3470	3486	3483	3442	3427	3411	3407	3475	3411	3450	3407	3411	3398	3382	3367	3376	3335	3354	3343	3327	3371	3398	3363	3359	3295	3354	3363	3282	3331	3259	3278	3283	3271	3263	3263	3287	3270	3287	3275	3211	3227	3207	3263	3191	3218	3235	3147	3163	3206	3139	3206	3210	3167	3142	3187	3170	3142	3155	3154	3134	3087	3146	3095	3087	3111	3127	3102	3071	3087	3071	3071	3055	3054	3095	3071	3051	3031	3043	3103	3091	3023	3035	3055	3007	3011	2992	2978	3006	3043	2999	2979	2958	3003	2966	3003	2994	3010	2939	2951	2959	2971	2931	2930	2919	2894	2971	2970	2942	2955	2927	2886	2867	2867	2926	2936	2907	2915	2859	2903	2839	2835	2810	2871	2815	2791	2811	2863	2859	2839	2822	2787	2782	2750	2779	2779	2734	2755	2783	2803	2771	2715	2767	2715	2763	2755	2702	2722	2750	2743	2760	2682	2735	2679	2710	2659	2703	2687	2727	2735	2719	2714	2643	2691	2675	2692	2650	2695	2671	2603	2606	2607	2614	2651	2587	2579	2655	2666	2579	2606	2607	2634	2603	2598	2592	2571	2583	2579	2631	2618	2590	2623	2639	2575	2571	2574	2582	2570	2623	2543	2590	2567	2579	2550	2563	2566	2595	2592	2579	2594	2583	2531	2554	2531	2584	2543	2559	2523	2543	2579	2575	2592	2579	2531	2590	2571	2579	2595	2523	2587	2514	2523	2551	2515	2554	2535	2559	2546	2547	2570	2555	2559	2527	2535	2507	2523	2554	2487	2506	2550	2538	2555	2522	2567	2495	2546	2515	2546	2475	2551	2530	2491	2471	2535	2467	2454	2459	2471	2438	2499	2502	2511	2443	2495	2455	2483	2491	2423	2511	2410	2427	2483	2459	2427	2431	2439	2451	2488	2470	2399	2435	2455	2430	2471	2391	2415	2379	2430	2450	2446	2367	2394	2439	2415	2343	2354	2375	2384	2367	2400	2347	2347	2382	2403	2354	2362	2390	2319	2359	2378	2303	2335	2378	2298	2339	2352	2306	2296	2306	2294	2338	2259	2314	2343	2327	2295	2322	2283	2287	2286	2271	2263	2279	2243	2219	2246	2234	2227	2279	2299	2270	2208	2235	2214	2299	2199	2227	2278	2211	2190	2194	2267	2199	2179	2243	2236	2202	2191	2246	2206	2190	2192	2190	2162	2190	2175	2226	2238	2143	2195	2216	2151	2210	2198	2179	2208	2211	2187	2134	2148	2123	2190	2195	2183	2154	2118	2151	2167	2158	2183	2154	2171	2163	2115	2179	2127	2167	2130	2106	2078	2083	2111	2170	2072	2154	2146	2112	2130	2115	2078	2104	2103	2094	2063	2075	2075	2119	2142	2123	2111	2134	2099	2055	2075	2087	2107	2083	2059	2055	2067	2119	2058	2051	2047	2095	2067	2110	2062	2079	2059	2071	2087	2091	2031	2019	2091	2059	2055	2075	2051	2071	2016	2055	2071	2074	2002	2007	2062	2006	1974	2027	1983	2066	2011	1987	2039	1991	1978	1970	2014	1978	2042	1964	1974	1971	2035	2047	2043	1986	2042	2055	2056	2030	2026	2095	2018	2083	2082	2103	2070	2159	2095	2100	2115	2170	2155	2223	2243	2191	2234	2226	2274	2338	2311	2355	2403	2391	2415	2483	2438	2507	2483	2502	2534	2562	2595	2674	2635	2648	2743	2690	2774	2775	2827	2778	2839	2882	2856	2906	2879	2982	3003	3003	2975	3054	3055	3095	3099	3094	3154	3146	3155	3167	3215	3175	3227	3187	3219	3247	3251	3239	3289	3312	3318	3303	3311	3379	3330	3387	3330	3367	3375	3355	3423	3366	3376	3427	3411	3439	3439	3455	3455	3479	3439	3479	3486	3447	3435	3410	3430	3415	3455	3455	3423	3446	3431	3419	3467	3487	3435	3451	3424	3459	3427	3467	3458	3383	3399	3391	3446	3395	3394	3387	3367	3383	3350	3387	3398	3355	3399	3374	3338	3387	3383	3339	3303	3299	3322	3342	3274	3291	3266	3270	3259	3280	3278	3259	3315	3250	3279	3272	3235	3267	3239	3263	3238	3239	3206	3240	3239	3231	3186	3154	3191	3175	3151	3147	3167	3171	3118	3134	3103	3179	3118	3159	3162	3143	3119	3098	3067	3135	3087	3087	3063	3131	3075	3058	3083	3066	3058	3039	3071	3071	3051	3015	3075	3019	3079	3004	3063	3030	3047	3060	2994	3059	3046	2974	3039	3010	3006	2998	2982	3010	2987	2967	2947	2937	3002	2923	2979	2919	2931	2967	2935	2910	2919	2928	2898	2969	2899	2939	2911	2926	2851	2907	2883	2871	2927	2896	2864	2819	2899	2827	2802	2879	2839	2819	2814	2770	2859	2843	2823	2762	2815	2803	2802	2803	2767	2799	2794	2714	2755	2754	2767	2707	2727	2703	2695	2734	2723	2714	2754	2706	2683	2659	2679	2671	2703	2682	2683	2647	2710	2706	2627	2663	2699	2630	2663	2650	2678	2663	2648	2599	2663	2606	2584	2627	2659	2642	2579	2643	2623	2650	2623	2591	2582	2555	2567	2579	2623	2558	2579	2619	2631	2579	2571	2562	2539	2599	2551	2607	2534	2543	2555	2526	2554	2595	2531	2574	2579	2590	2610	2534	2528	2602	2526	2539	2543	2563	2535	2575	2567	2539	2543	2502	2574	2511	2499	2584	2502	2527	2507	2559	2543	2534	2495	2479	2507	2518	2522	2478	2531	2510	2452	2467	2530	2494	2463	2466	2511	2490	2530	2458	2511	2479	2447	2427	2483	2503	2498	2479	2458	2427	2494	2407	2479	2443	2415	2438	2467	2422	2399	2446	2386	2426	2447	2379	2447	2390	2367	2359	2395	2434	2443	2351	2370	2343	2347	2399	2399	2338	2338	2395	2334	2375	2360	2322	2394	2363	2351	2378	2375	2339	2291	2318	2307	2335	2298	2335	2359	2299	2331	2284	2358	2343	2296	2331	2299	2250	2286	2310	2243	2239	2242	2234	2239	2247	2238	2227	2262	2295	2218	2295	2263	2241	2230	2203	2254	2238	2222	2194	2232	2218	2259	2238	2218	2247	2183	2202	2258	2235	2179	2199	2171	2219	2210	2171	2236	2160	2224	2214	2147	2182	2211	2163	2227	2158	2178	2155	2218	2155	2182	2210	2158	2155	2143	2183	2219	2179	2191	2200	2195	2194	2195	2166	2191	2193	2175	2179	2191	2119	2147	2127	2131	2183	2122	2163	2175	2158	2167	2147	2091	2122	2090	2156	2135	2091	2102	2123	2075	2135	2114	2122	2138	2075	2127	2099	2099	2063	2095	2135	2119	2142	2063	2055	2130	2123	2131	2063	2127	2126	2083	2075	2062	2115	2071	2031	2067	2091	2120	2042	2110	2071	2047	2051	2054	2046	2066	2115	2038	2038	2047	2107	2111	2035	2027	2039	2103	2030	2062	2043	2042	2035	2095	2090	2018	2047	2035	2054	2011	2018	2038	2027	2082	2015	2067	2059	2079	2079	2079	2080	2035	2002	2031	2043	2058	2056	2062	2074	2038	2071	2034	2015	2035	2054	2034	1983	2063	1999	1991	2011	2023	2015	2010	2051	2047	2055	2055	2030	2070	2047	2058	2088	2071	2086	2159	2134	2204	2143	2191	2179	2210	2218	2286	2291	2350	2370	2338	2383	2435	2383	2474	2463	2523	2488	2559	2531	2634	2639	2658	2651	2662	2706	2747	2803	2831	2815	2842	2883	2859	2911	2982	2999	3027	2987	3026	3094	3051	3127	3175	3118	3155	3162	3234	3191	3199	3266	3278	3315	3335	3331	3303	3323	3346	3371	3415	3362	3431	3470	3447	3434	3451	3447	3486	3522	3483	3527	3538	3526	3543	3547	3514	3519	3586	3543	3579	3554	3599	3546	3619	3551	3546	3603	3623	3567	3582	3579	3615	3555	3543	3563	3550	3571	3603	3587	3578	3566	3563	3582	3575	3507	3579	3543	3547	3542	3514	3495	3551	3543	3511	3523	3499	3486	3475	3528	3507	3431	3503	3427	3430	3458	3451	3480	3430	3390	3391	3366	3363	3374	3359	3411	3375	3359	3351	3347	3343	3375	3323	3355	3367	3330	3311	3295	3287	3323	3251	3315	3247	3246	3259	3283	3279	3263	3275	3219	3222	3231	3203	3247	3191	3227	3190	3187	3155	3163	3211	3183	3206	3210	3143	3206	3151	3191	3130	3167	3174	3104	3182	3104	3087	3146	3096	3135	3139	3071	3135	3111	3103	3111	3090	3083	3131	3115	3127	3083	3027	3067	3082	3039	3067	3054	3090	3027	3051	3054	3006	3039	3015	3043	2983	3015	2966	3015	3006	2971	2960	3019	2943	2991	2999	2942	2939	2935	2923	2943	2907	2895	2903	2923	2926	2871	2911	2895	2943	2839	2835	2895	2871	2846	2855	2848	2863	2803	2858	2843	2770	2770	2778	2794	2803	2758	2751	2782	2747	2782	2726	2763	2719	2715	2699	2699	2707	2698	2759	2675	2688	2682	2674	2723	2702	2643	2671	2663	2702	2695	2707	2638	2639	2679	2659	2607	2667	2635	2624	2627	2627	2615	2638	2626	2603	2591	2611	2623	2598	2587	2578	2587	2567	2594	2575	2595	2614	2618	2575	2643	2579	2587	2579	2627	2619	2611	2583	2638	2630	2635	2614	2578	2619	2611	2539	2591	2595	2535	2571	2575	2527	2547	2595	2600	2571	2579	2579	2546	2583	2586	2546	2526	2554	2519	2527	2579	2511	2514	2548	2507	2539	2506	2547	2575	2559	2495	2574	2564	2503	2543	2559	2550	2498	2555	2527	2477	2472	2523	2530	2475	2518	2463	2475	2455	2526	2447	2534	2467	2479	2431	2471	2451	2439	2483	2414	2494	2471	2431	2475	2414	2419	2419	2442	2399	2459	2438	2395	2432	2416	2391	2404	2442	2427	2410	2411	2399	2414	2379	2343	2419	2410	2351	2406	2386	2366	2328	2334	2406	2359	2346	2320	2303	2318	2302	2311	2363	2302	2352	2354	2314	2359	2283	2339	2279	2334	2323	2286	2299	2280	2275	2291	2239	2290	2247	2294	2311	2259	2238	2283	2231	2215	2202	2297	2211	2203	2222	2235	2258	2272	2206	2195	2247	2247	2198	2247	2259	2195	2235	2218	2215	2239	2163	2167	2227	2231	2159	2182	2222	2170	2211	2183	2227	2135	2135	2193	2159	2167	2186	2203	2142	2147	2131	2119	2131	2171	2182	2123	2106	2175	2171	2102	2171	2110	2095	2118	2082	2087	2106	2083	2111	2139	2075	2082	2066	2086	2059	2074	2082	2054	2047	2086	2063	2115	2066	2083	2043	2047	2047	2042	2108	2054	2039	2043	2070	2019	2015	2095	2102	2079	2035	2071	2090	2043	2054	2100	2058	2039	2002	2067	2055	2031	2063	2011	2022	2062	2062	2011	2066	2050	1993	2047	2014	1991	1991	2011	1967	1987	2047	2022	2055	2051	2023	2026	2014	1986	1991	1975	1962	2043	2011	2031	1967	2035	1966	2023	2030	1979	1987	1995	1979	1986	1939	1987	2043	1958	1955	1999	1970	1950	1951	1950	2018	1942	1955	1983	1975	1918	1979	1938	1935	1991	1971	1995	1955	1938	1930	2003	1974	1927	2003	1923	1935	2002	2006	2007	2018	1943	2003	2043	2055	2070	2074	2090	2091	2051	2051	2123	2131	2174	2126	2191	2211	2223	2230	2203	2288	2311	2271	2315	2367	2338	2411	2463	2427	2435	2511	2531	2503	2591	2571	2655	2650	2663	2659	2703	2770	2736	2806	2783	2854	2863	2851	2883	2927	2927	3002	3019	3018	3063	3071	3131	3103	3098	3171	3138	3214	3195	3239	3224	3251	3279	3326	3315	3347	3346	3295	3319	3335	3383	3427	3379	3431	3463	3414	3446	3447	3431	3467	3451	3443	3531	3518	3523	3506	3502	3490	3475	3519	3491	3498	3512	3519	3503	3526	3507	3558	3499	3538	3487	3526	3558	3475	3531	3495	3495	3511	3530	3539	3490	3507	3451	3479	3491	3495	3447	3511	3443	3487	3475	3483	3407	3471	3438	3455	3438	3442	3375	3355	3359	3403	3367	3387	3398	3338	3395	3319	3362	3347	3299	3327	3279	3290	3303	3274	3267	3272	3251	3238	3267	3263	3199	3203	3239	3266	3239	3194	3244	3195	3243	3174	3206	3152	3199	3174	3178	3131	3131	3115	3119	3171	3103	3159	3103	3096	3095	3099	3119	3067	3082	3055	3120	