2667	2671	2643	2666	2627	2627	2663	2626	2606	2626	2622	2619	2602	2614	2635	2595	2591	2591	2574	2592	2603	2583	2606	2602	2608	2551	2578	2578	2559	2555	2566	2555	2583	2551	2590	2583	2555	2575	2563	2567	2546	2563	2531	2546	2527	2546	2527	2519	2522	2538	2527	2530	2498	2491	2539	2539	2516	2515	2506	2510	2471	2471	2496	2503	2510	2511	2491	2483	2475	2498	2511	2511	2503	2503	2459	2471	2495	2447	2439	2455	2487	2495	2454	2487	2439	2467	2471	2434	2463	2422	2423	2442	2419	2419	2438	2431	2448	2462	2414	2430	2447	2423	2427	2423	2423	2455	2427	2403	2419	2383	2415	2459	2455	2451	2415	2439	2415	2410	2402	2443	2451	2438	2423	2403	2431	2438	2395	2419	2406	2423	2406	2378	2391	2376	2434	2395	2395	2406	2410	2402	2387	2406	2395	2407	2379	2383	2407	2375	2394	2402	2371	2394	2375	2411	2395	2351	2411	2399	2383	2378	2374	2367	2415	2358	2358	2351	2371	2399	2391	2383	2343	2350	2352	2378	2335	2399	2403	2387	2355	2355	2347	2383	2383	2346	2358	2342	2334	2343	2339	2327	2334	2363	2335	2355	2342	2363	2367	2366	2351	2335	2383	2358	2363	2374	2350	2319	2351	2347	2326	2355	2335	2351	2355	2335	2310	2354	2339	2342	2358	2319	2351	2355	2323	2370	2327	2323	2315	2342	2335	2327	2327	2343	2315	2310	2318	2370	2367	2330	2347	2332	2363	2335	2323	2322	2318	2347	2307	2346	2299	2298	2314	2347	2338	2346	2307	2367	2335	2359	2363	2322	2322	2362	2323	2354	2363	2311	2355	2315	2354	2363	2319	2298	2355	2314	2343	2350	2311	2299	2311	2335	2350	2355	2318	2370	2315	2303	2310	2342	2344	2304	2291	2359	2362	2294	2351	2319	2296	2335	2334	2334	2339	2342	2338	2319	2346	2303	2283	2327	2326	2303	2286	2307	2331	2331	2291	2295	2343	2295	2282	2334	2347	2311	2295	2306	2339	2323	2299	2279	2319	2314	2304	2271	2323	2275	2279	2290	2287	2327	2335	2315	2330	2299	2291	2263	2311	2255	2294	2313	2267	2298	2295	2310	2271	2300	2318	2275	2258	2282	2270	2299	2283	2282	2283	2258	2259	2259	2275	2271	2246	2238	2267	2278	2239	2270	2258	2251	2279	2255	2275	2255	2262	2256	2247	2275	2235	2283	2279	2203	2239	2226	2244	2239	2251	2264	2242	2234	2295	2247	2259	2270	2290	2223	2291	2255	2251	2271	2287	2235	2266	2263	2259	2316	2311	2306	2335	2351	2290	2327	2346	2334	2347	2363	2355	2403	2395	2379	2383	2415	2458	2418	2454	2466	2451	2467	2479	2507	2503	2511	2578	2559	2579	2591	2599	2619	2630	2603	2643	2675	2695	2694	2686	2718	2715	2723	2730	2758	2796	2787	2807	2823	2835	2847	2883	2847	2903	2887	2878	2932	2910	2959	2935	2943	2987	2995	3006	3019	3023	3062	3039	3059	3071	3083	3087	3086	3103	3115	3095	3103	3126	3126	3147	3147	3167	3200	3175	3195	3191	3191	3218	3219	3239	3220	3251	3262	3267	3247	3255	3282	3251	3303	3267	3271	3267	3295	3339	3291	3306	3283	3323	3320	3306	3315	3315	3323	3347	3319	3323	3314	3330	3319	3331	3311	3350	3342	3311	3306	3299	3319	3303	3323	3307	3336	3339	3306	3299	3323	3307	3319	3299	3311	3306	3334	3295	3283	3302	3307	3312	3303	3290	3294	3315	3267	3298	3255	3270	3267	3258	3283	3259	3238	3235	3262	3267	3235	3278	3227	3267	3255	3259	3255	3260	3235	3239	3243	3211	3211	3194	3206	3239	3207	3202	3215	3194	3226	3235	3178	3191	3163	3210	3187	3194	3191	3207	3211	3198	3135	3158	3174	3162	3139	3131	3199	3151	3130	3154	3175	3178	3139	3130	3162	3131	3119	3159	3154	3167	3122	3127	3131	3099	3126	3130	3144	3095	3111	3098	3106	3111	3099	3091	3071	3068	3135	3091	3091	3099	3079	3070	3074	3094	3051	3051	3079	3051	3090	3054	3079	3047	3067	3078	3027	3059	3042	3023	3018	3027	3015	3003	3015	3003	3023	2983	3014	3014	2978	3027	3027	2979	2999	2986	2987	2995	2975	2958	2955	2971	2938	2971	2922	2934	2923	2963	2955	2951	2947	2954	2919	2914	2923	2943	2930	2903	2898	2938	2922	2927	2911	2883	2919	2899	2911	2911	2907	2894	2923	2891	2907	2931	2883	2903	2911	2906	2895	2859	2851	2871	2911	2855	2864	2898	2855	2898	2863	2831	2871	2863	2851	2859	2872	2879	2882	2891	2871	2891	2919	2851	2903	2887	2843	2867	2851	2859	2858	2879	2895	2871	2878	2871	2895	2866	2902	2859	2890	2906	2891	2903	2859	2883	2863	2879	2871	2883	2899	2872	2882	2895	2903	2903	2879	2894	2895	2910	2878	2855	2882	2871	2891	2899	2879	2910	2871	2871	2851	2867	2871	2871	2903	2899	2866	2907	2887	2874	2882	2867	2878	2902	2883	2867	2891	2879	2860	2842	2855	2850	2842	2874	2883	2847	2854	2863	2855	2854	2883	2831	2843	2847	2854	2827	2839	2830	2854	2835	2858	2830	2819	2850	2826	2806	2851	2803	2851	2807	2818	2819	2815	2839	2835	2770	2782	2799	2806	2786	2819	2822	2786	2798	2815	2811	2800	2778	2783	2791	2794	2786	2763	2734	2727	2787	2746	2722	2730	2742	2714	2719	2734	2746	2743	2707	2715	2715	2718	2719	2703	2694	2723	2703	2675	2720	2706	2711	2719	2711	2703	2667	2664	2699	2671	2675	2647	2698	2690	2666	2663	2615	2655	2631	2663	2623	2623	2635	2622	2611	2642	2608	2623	2647	2619	2635	2642	2594	2623	2618	2595	2599	2611	2631	2555	2600	2587	2595	2594	2607	2571	2543	2551	2574	2567	2566	2539	2543	2551	2562	2571	2563	2571	2530	2519	2543	2534	2526	2554	2544	2499	2523	2531	2507	2566	2510	2491	2542	2527	2511	2531	2498	2508	2490	2499	2503	2467	2463	2459	2474	2499	2495	2466	2506	2455	2467	2455	2450	2486	2495	2494	2459	2423	2463	2478	2483	2495	2483	2446	2429	2454	2422	2455	2451	2422	2455	2455	2439	2439	2422	2451	2478	2430	2455	2399	2415	2430	2396	2398	2411	2407	2399	2406	2399	2431	2423	2418	2402	2411	2383	2410	2414	2435	2427	2391	2415	2427	2407	2374	2411	2382	2403	2399	2371	2398	2406	2371	2358	2387	2383	2383	2382	2355	2379	2395	2402	2384	2355	2374	2379	2367	2386	2366	2363	2335	2383	2362	2391	2375	2415	2351	2371	2375	2371	2383	2359	2391	2392	2336	2370	2363	2339	2406	2335	2387	2375	2359	2359	2351	2354	2347	2395	2355	2330	2367	2403	2355	2375	2358	2387	2359	2382	2342	2356	2375	2327	2343	2355	2334	2347	2387	2378	2343	2339	2339	2342	2347	2390	2362	2367	2311	2375	2351	2351	2334	2379	2327	2379	2343	2340	2323	2339	2331	2334	2355	2315	2338	2331	2379	2334	2347	2359	2307	2370	2343	2327	2339	2370	2323	2351	2339	2323	2346	2327	2318	2351	2343	2367	2351	2343	2342	2314	2327	2358	2363	2342	2331	2370	2352	2370	2306	2331	2347	2371	2351	2359	2303	2335	2315	2331	2350	2319	2312	2351	2359	2326	2338	2351	2346	2330	2299	2315	2335	2307	2336	2303	2318	2335	2354	2327	2342	2306	2326	2335	2311	2302	2367	2327	2367	2323	2307	2311	2323	2278	2302	2287	2311	2302	2334	2327	2351	2307	2331	2311	2283	2318	2347	2338	2331	2295	2319	2314	2294	2314	2323	2263	2314	2291	2335	2307	2282	2275	2275	2282	2267	2335	2283	2290	2315	2254	2254	2279	2280	2271	2323	2259	2286	2264	2295	2291	2294	2283	2315	2255	2290	2283	2251	2267	2271	2310	2290	2286	2267	2278	2262	2231	2226	2263	2263	2282	2279	2286	2226	2231	2243	2231	2247	2246	2254	2238	2260	2258	2239	2258	2259	2216	2243	2267	2238	2235	2235	2275	2248	2223	2223	2231	2227	2258	2242	2254	2286	2287	2259	2287	2303	2319	2299	2327	2343	2315	2347	2339	2302	2375	2390	2375	2395	2363	2383	2427	2419	2430	2463	2423	2435	2455	2475	2483	2502	2503	2546	2538	2568	2574	2571	2615	2623	2587	2619	2655	2658	2659	2674	2698	2723	2719	2711	2723	2742	2743	2771	2818	2814	2810	2818	2843	2871	2878	2878	2922	2898	2955	2922	2943	2951	2999	2986	3022	3014	3042	3030	3031	3039	3067	3102	3110	3106	3119	3111	3126	3134	3147	3155	3154	3134	3196	3191	3199	3226	3219	3202	3198	3255	3211	3279	3203	3271	3231	3243	3290	3279	3303	3259	3294	3283	3287	3319	3279	3279	3294	3293	3275	3298	3323	3319	3327	3327	3318	3322	3314	3339	3307	3315	3335	3307	3286	3352	3354	3334	3355	3311	3315	3327	3319	3318	3327	3339	3307	3343	3311	3355	3335	3307	3311	3303	3299	3279	3323	3311	3290	3259	3267	3275	3294	3295	3267	3287	3267	3271	3295	3302	3263	3251	3271	3267	3242	3267	3250	3239	3246	3274	3259	3223	3247	3259	3246	3235	3243	3246	3219	3239	3223	3206	3231	3187	3210	3202	3190	3194	3215	3191	3190	3163	3175	3174	3167	3166	3159	3175	3170	3155	3151	3142	3139	3135	3179	3167	3147	3151	3151	3158	3143	3139	3126	3148	3131	3147	3128	3127	3099	3118	3111	3130	3099	3123	3119	3103	3110	3110	3119	3127	3103	3111	3091	3091	3090	3103	3083	3063	3088	3102	3083	3046	3071	3074	3063	3067	3055	3039	3051	3071	3047	3059	3023	3047	3050	2999	3007	3035	3026	3006	2999	3019	3003	2979	2991	2954	2975	2986	2975	2958	2974	3002	2995	2987	2994	2966	2946	2967	2962	2947	2958	2927	2915	2930	2918	2887	2918	2935	2935	2910	2943	2894	2942	2887	2895	2919	2915	2902	2876	2910	2859	2875	2894	2899	2859	2866	2874	2899	2866	2883	2835	2870	2855	2871	2878	2855	2911	2859	2843	2879	2871	2884	2863	2886	2886	2850	2874	2863	2891	2851	2842	2835	2855	2864	2848	2871	2843	2855	2883	2882	2863	2899	2882	2880	2891	2839	2874	2855	2882	2847	2871	2847	2838	2871	2894	2879	2871	2867	2839	2867	2859	2846	2884	2883	2847	2851	2842	2903	2855	2883	2879	2883	2907	2882	2903	2854	2886	2890	2870	2898	2866	2874	2863	2883	2895	2866	2875	2882	2839	2835	2858	2883	2879	2903	2895	2851	2863	2903	2850	2863	2891	2875	2867	2834	2870	2838	2879	2855	2843	2867	2859	2867	2871	2839	2863	2842	2819	2890	2863	2822	2863	2827	2846	2830	2842	2835	2806	2815	2835	2814	2823	2795	2832	2831	2823	2799	2780	2858	2815	2797	2798	2822	2803	2771	2779	2802	2770	2751	2791	2791	2774	2750	2787	2762	2767	2771	2770	2743	2772	2744	2743	2727	2739	2716	2718	2743	2735	2732	2694	2723	2732	2706	2746	2747	2710	2738	2727	2735	2710	2703	2683	2726	2671	2690	2690	2655	2691	2679	2672	2651	2656	2650	2680	2718	2686	2630	2659	2691	2658	2627	2642	2646	2619	2651	2603	2619	2623	2611	2603	2655	2631	2611	2615	2579	2587	2583	2592	2602	2578	2575	2615	2591	2583	2579	2554	2539	2559	2539	2543	2552	2586	2555	2567	2539	2551	2535	2580	2529	2552	2578	2538	2559	2527	2519	2539	2511	2546	2530	2531	2502	2551	2527	2506	2479	2490	2502	2518	2503	2490	2502	2462	2507	2475	2451	2495	2487	2486	2475	2451	2499	2440	2510	2443	2503	2447	2467	2479	2443	2431	2442	2426	2443	2487	2427	2415	2423	2423	2455	2439	2470	2414	2451	2458	2414	2434	2410	2423	2467	2403	2423	2446	2455	2446	2431	2418	2407	2431	2398	2390	2407	2414	2415	2391	2406	2429	2395	2418	2427	2427	2371	2424	2423	2411	2359	2359	2403	2387	2406	2403	2387	2367	2411	2410	2379	2411	2411	2374	2395	2350	2363	2383	2411	2407	2387	2351	2395	2379	2362	2355	2399	2391	2394	2387	2371	2363	2371	2382	2371	2379	2359	2359	2343	2387	2343	2399	2347	2359	2358	2398	2387	2383	2391	2368	2379	2343	2383	2362	2391	2391	2342	2367	2342	2367	2350	2339	2326	2383	2379	2390	2330	2346	2382	2395	2323	2362	2379	2359	2339	2366	2382	2371	2390	2358	2323	2326	2331	2343	2363	2343	2319	2363	2363	2343	2331	2338	2335	2359	2351	2346	2355	2346	2311	2343	2358	2330	2346	2339	2343	2322	2327	2331	2311	2367	2326	2350	2363	2354	2326	2367	2339	2306	2323	2323	2319	2307	2338	2310	2330	2360	2347	2351	2307	2366	2319	2327	2335	2346	2315	2306	2326	2323	2318	2287	2296	2306	2358	2330	2330	2302	2298	2314	2322	2310	2327	2327	2326	2306	2326	2343	2286	2298	2287	2318	2327	2331	2339	2350	2295	2319	2338	2287	2315	2299	2323	2275	2270	2339	2323	