2154	2163	2119	2119	2119	2106	2111	2115	2142	2107	2150	2138	2143	2147	2115	2127	2134	2102	2138	2134	2135	2083	2094	2123	2126	2127	2091	2091	2127	2091	2124	2087	2091	2127	2107	2120	2131	2076	2119	2095	2131	2118	2103	2071	2075	2107	2098	2067	2075	2118	2115	2063	2067	2099	2070	2091	2075	2079	2079	2095	2078	2066	2107	2071	2075	2107	2102	2087	2055	2103	2115	2098	2095	2063	2107	2082	2123	2095	2095	2114	2094	2067	2079	2076	2079	2080	2063	2119	2102	2097	2112	2123	2116	2107	2130	2114	2079	2067	2110	2075	2087	2079	2050	2115	2095	2091	2067	2094	2059	2122	2084	2075	2115	2106	2136	2063	2047	2116	2074	2095	2062	2071	2119	2059	2067	2110	2119	2099	2070	2114	2111	2111	2095	2067	2083	2058	2087	2087	2102	2066	2062	2119	2066	2091	2083	2074	2118	2102	2066	2107	2067	2123	2098	2063	2095	2107	2079	2097	2074	2070	2083	2102	2086	2067	2114	2058	2126	2098	2111	2139	2123	2119	2103	2118	2106	2122	2160	2170	2146	2123	2142	2135	2186	2148	2175	2171	2207	2199	2194	2171	2187	2242	2239	2251	2242	2264	2267	2275	2278	2275	2282	2315	2339	2327	2315	2346	2311	2368	2367	2359	2383	2390	2380	2423	2407	2422	2411	2442	2487	2448	2451	2486	2474	2499	2519	2499	2507	2575	2559	2582	2588	2555	2623	2599	2603	2638	2659	2647	2663	2635	2663	2675	2699	2677	2687	2704	2735	2754	2715	2722	2767	2727	2774	2738	2763	2755	2775	2810	2771	2787	2815	2791	2811	2815	2842	2823	2815	2830	2815	2827	2863	2851	2867	2858	2875	2850	2891	2891	2851	2890	2914	2891	2870	2919	2867	2874	2875	2899	2871	2871	2943	2890	2895	2907	2899	2906	2895	2887	2872	2911	2915	2871	2891	2903	2907	2927	2894	2907	2923	2907	2874	2899	2902	2915	2887	2882	2903	2919	2882	2895	2883	2891	2874	2843	2859	2875	2899	2878	2854	2846	2895	2887	2879	2839	2862	2867	2875	2822	2826	2860	2823	2839	2854	2839	2835	2826	2818	2835	2830	2815	2791	2814	2819	2791	2831	2794	2787	2815	2782	2783	2806	2771	2827	2771	2754	2799	2767	2790	2799	2763	2794	2775	2767	2755	2775	2755	2759	2779	2747	2802	2735	2750	2730	2759	2760	2731	2770	2751	2727	2707	2735	2735	2731	2775	2727	2735	2702	2715	2687	2695	2743	2722	2689	2683	2682	2687	2719	2718	2714	2728	2710	2698	2698	2671	2690	2702	2663	2695	2707	2651	2682	2679	2639	2651	2666	2657	2678	2678	2619	2638	2642	2619	2656	2655	2646	2650	2627	2643	2619	2663	2630	2591	2622	2622	2595	2599	2591	2619	2586	2602	2623	2579	2599	2603	2599	2559	2607	2611	2543	2574	2559	2591	2555	2551	2543	2587	2590	2522	2570	2563	2534	2574	2571	2567	2563	2538	2555	2559	2531	2522	2554	2543	2507	2523	2574	2551	2547	2563	2554	2539	2559	2542	2559	2538	2523	2528	2558	2534	2534	2570	2551	2551	2535	2539	2551	2527	2535	2555	2555	2574	2520	2571	2536	2523	2550	2526	2519	2555	2554	2527	2582	2535	2567	2528	2538	2514	2528	2555	2558	2566	2575	2527	2547	2563	2563	2579	2558	2583	2563	2543	2571	2586	2567	2561	2590	2603	2562	2563	2571	2543	2554	2611	2591	2567	2543	2587	2590	2599	2544	2547	2559	2558	2595	2559	2595	2610	2555	2543	2542	2574	2579	2583	2555	2571	2579	2595	2571	2599	2543	2547	2567	2539	2543	2566	2538	2558	2551	2535	2531	2571	2575	2579	2540	2575	2519	2583	2531	2559	2574	2523	2522	2526	2526	2555	2511	2544	2553	2523	2535	2539	2563	2538	2534	2539	2507	2515	2498	2490	2519	2494	2523	2479	2507	2486	2494	2478	2490	2515	2471	2526	2499	2482	2503	2478	2478	2518	2479	2514	2507	2474	2494	2471	2455	2463	2486	2463	2491	2490	2451	2478	2451	2495	2491	2482	2443	2463	2439	2439	2438	2467	2459	2455	2410	2451	2414	2440	2455	2462	2439	2463	2443	2386	2403	2447	2427	2395	2451	2451	2394	2399	2383	2395	2411	2423	2410	2398	2411	2398	2382	2362	2387	2383	2383	2378	2379	2351	2347	2375	2359	2387	2379	2323	2387	2331	2351	2362	2343	2324	2339	2363	2311	2314	2310	2311	2335	2367	2335	2355	2315	2335	2331	2299	2327	2327	2334	2294	2292	2335	2255	2312	2294	2294	2267	2295	2298	2275	2299	2271	2279	2274	2294	2255	2303	2263	2258	2300	2298	2251	2242	2267	2263	2259	2286	2290	2251	2262	2243	2255	2251	2243	2271	2267	2223	2263	2223	2207	2279	2234	2231	2250	2219	2219	2267	2230	2230	2266	2234	2235	2199	2222	2230	2262	2203	2251	2247	2214	2223	2214	2215	2199	2260	2239	2243	2202	2202	2214	2259	2210	2219	2215	2199	2190	2199	2226	2174	2198	2226	2231	2218	2234	2210	2235	2203	2206	2226	2243	2191	2231	2196	2215	2223	2215	2232	2199	2194	2208	2187	2227	2187	2235	2183	2218	2195	2239	2211	2191	2199	2235	2215	2223	2195	2206	2219	2191	2227	2206	2211	2235	2186	2190	2250	2186	2219	2175	2182	2195	2199	2239	2227	2187	2239	2223	2222	2203	2211	2223	2182	2238	2211	2192	2252	2223	2187	2191	2238	2251	2227	2195	2179	2190	2211	2242	2199	2202	2234	2215	2200	2242	2183	2206	2190	2231	2231	2198	2223	2210	2206	2246	2219	2231	2183	2186	2232	2239	2202	2191	2187	2230	2195	2247	2195	2251	2191	2199	2186	2215	2187	2190	2186	2230	2235	2191	2194	2191	2227	2219	2223	2226	2230	2223	2218	2179	2193	2179	2247	2211	2207	2206	2235	2199	2182	2186	2211	2194	2206	2223	2215	2203	2186	2255	2266	2202	2243	2210	2255	2227	2211	2247	2274	2227	2230	2266	2236	2235	2294	2252	2255	2259	2267	2314	2290	2335	2327	2331	2370	2363	2343	2382	2402	2410	2367	2386	2375	2415	2400	2459	2407	2451	2479	2474	2471	2495	2487	2503	2507	2547	2539	2531	2534	2611	2559	2601	2591	2618	2651	2611	2618	2687	2667	2650	2704	2687	2690	2686	2758	2751	2782	2755	2734	2799	2755	2787	2811	2822	2810	2827	2864	2807	2819	2872	2907	2867	2859	2870	2887	2922	2886	2875	2895	2946	2927	2926	2926	2919	2927	2966	2954	2946	2943	2931	2970	2960	2979	2971	3027	2995	2963	2966	2967	3015	3010	2971	3011	3018	2986	3018	2995	2994	3011	3003	3055	3031	3003	3043	3019	3003	2999	3007	3014	3014	3030	3035	3006	3010	2998	2979	3051	3023	2999	2999	3030	2996	3014	3019	3027	2987	3039	2966	2995	3030	2978	3015	3011	3019	2968	2991	2971	2973	2986	2955	2983	2971	2975	2971	2943	2943	2935	2947	2935	2950	2919	2922	2935	2923	2935	2915	2935	2914	2911	2947	2927	2915	2895	2938	2903	2943	2926	2911	2931	2898	2927	2867	2878	2915	2859	2914	2883	2919	2879	2887	2863	2866	2902	2875	2895	2850	2854	2871	2887	2831	2819	2878	2863	2882	2843	2855	2835	2881	2846	2823	2887	2878	2838	2863	2838	2859	2834	2835	2847	2835	2855	2823	2811	2811	2815	2795	2822	2787	2775	2819	2814	2787	2811	2775	2787	2823	2787	2766	2787	2767	2795	2751	2750	2783	2794	2770	2779	2755	2782	2734	2715	2735	2739	2727	2759	2731	2731	2742	2743	2727	2747	2699	2707	2719	2743	2703	2714	2742	2731	2691	2690	2699	2691	2711	2703	2679	2691	2710	2691	2670	2706	2655	2655	2682	2691	2679	2658	2674	2635	2683	2635	2686	2640	2671	2654	2655	2646	2643	2654	2672	2654	2671	2643	2627	2626	2659	2624	2663	2630	2667	2647	2659	2634	2619	2671	2666	2659	2623	2632	2659	2626	2634	2642	2607	2618	2622	2646	2639	2635	2655	2683	2646	2643	2671	2647	2671	2683	2631	2631	2643	2646	2663	2631	2626	2655	2634	2670	2639	2675	2667	2647	2666	2699	2631	2643	2675	2695	2667	2706	2663	2679	2675	2631	2643	2648	2663	2643	2687	2651	2687	2695	2659	2679	2674	2703	2651	2687	2678	2686	2679	2651	2706	2642	2658	2683	2668	2643	2663	2691	2687	2651	2699	2651	2679	2655	2654	2699	2678	2646	2680	2678	2700	2671	2666	2642	2638	2662	2667	2675	2651	2647	2635	2694	2627	2662	2643	2679	2622	2638	2639	2658	2623	2658	2607	2659	2682	2631	2666	2651	2615	2623	2606	2650	2627	2611	2615	2623	2643	2643	2611	2622	2615	2587	2608	2619	2627	2607	2599	2642	2563	2603	2627	2611	2554	2579	2550	2563	2563	2586	2555	2546	2563	2571	2555	2578	2595	2555	2578	2530	2586	2547	2562	2531	2535	2571	2551	2551	2567	2523	2535	2515	2494	2526	2487	2503	2534	2527	2530	2479	2490	2503	2510	2494	2511	2491	2522	2495	2478	2455	2503	2459	2479	2478	2451	2458	2478	2455	2499	2443	2455	2443	2475	2459	2467	2454	2438	2434	2451	2450	2455	2451	2423	2446	2391	2415	2439	2446	2419	2414	2398	2375	2402	2423	2415	2443	2395	2391	2366	2388	2383	2370	2374	2358	2383	2403	2378	2406	2415	2387	2394	2376	2387	2390	2399	2372	2343	2342	2347	2350	2342	2370	2379	2363	2359	2347	2352	2319	2371	2344	2386	2375	2375	2318	2315	2354	2371	2366	2363	2331	2314	2319	2319	2302	2358	2335	2351	2319	2311	2287	2299	2316	2306	2318	2334	2335	2322	2339	2285	2303	2270	2296	2289	2314	2271	2314	2298	2303	2286	2270	2308	2336	2288	2295	2267	2286	2295	2311	2279	2263	2327	2278	2255	2279	2247	2247	2271	2299	2250	2307	2299	2251	2258	2256	2283	2251	2239	2267	2259	2286	2267	2251	2303	2280	2263	2267	2262	2267	2258	2251	2255	2263	2284	2237	2240	2276	2274	2255	2230	2259	2290	2240	2215	2251	2242	2203	2278	2270	2206	2223	2266	2250	2256	2223	2218	2250	2266	2230	2267	2235	2234	2198	2263	2207	2231	2260	2264	2254	2246	2262	2247	2218	2259	2223	2262	2214	2211	2199	2198	2231	2199	2231	2243	2231	2191	2243	2231	2259	2267	2199	2227	2191	2226	2202	2226	2236	2215	2195	2254	2243	2258	2195	2247	2206	2223	2227	2198	2246	2218	2240	2190	2202	2247	2230	2243	2231	2207	2199	2214	2190	2251	2227	2219	2183	2223	2203	2171	2179	2232	2182	2207	2187	2183	2198	2198	2243	2207	2199	2163	2191	2219	2165	2231	2186	2211	2191	2194	2175	2171	2207	2186	2183	2202	2167	2215	2186	2211	2215	2159	2206	2175	2223	2178	2186	2211	2164	2163	2182	2207	2206	2195	2227	2175	2211	2171	2199	2175	2159	2171	2203	2187	2159	2179	2183	2199	2174	2227	2167	2247	2202	2206	2243	2246	2218	2267	2223	2267	2247	2231	2275	2286	2319	2327	2298	2343	2318	2323	2379	2358	2351	2411	2415	2426	2391	2377	2434	2455	2439	2455	2419	2470	2446	2455	2486	2479	2482	2495	2555	2527	2583	2579	2570	2559	2590	2619	2607	2643	2614	2619	2622	2671	2635	2695	2674	2683	2707	2686	2706	2751	2727	2726	2739	2763	2752	2779	2807	2799	2798	2811	2791	2811	2807	2842	2834	2831	2843	2894	2855	2847	2887	2883	2863	2883	2907	2910	2918	2927	2883	2907	2907	2947	2911	2907	2950	2915	2923	2962	2951	2942	2959	2979	2944	2951	2982	2951	3003	2959	3003	2979	2959	2955	2963	2963	2970	2983	2982	2975	2951	2999	2951	2999	2970	2975	2994	2954	2947	2943	2955	2947	2959	2931	2934	2959	2926	2919	2967	2935	2947	2919	2915	2946	2931	2979	2930	2931	2955	2963	2947	2939	2931	2906	2903	2894	2895	2923	2891	2926	2883	2867	2918	2858	2899	2907	2872	2855	2899	2882	2879	2875	2862	2882	2862	2839	2875	2835	2870	2846	2819	2850	2835	2815	2854	2859	2831	2843	2814	2859	2799	2803	2807	2839	2839	2783	2804	2791	2803	2799	2782	2791	2795	2791	2784	2806	2814	2767	2803	2787	2779	2811	2746	2768	2791	2743	2767	2747	2747	2783	2747	2783	2751	2755	2775	2755	2743	2723	2739	2743	2734	2731	2727	2735	2744	2734	2718	2722	2735	2727	2747	2717	2715	2726	2700	2731	2674	2722	2679	2695	2723	2695	2734	2694	2662	2659	2667	2703	2671	2667	2651	2646	2691	2675	2658	2670	2691	2682	2694	2651	2639	2635	2651	2659	2619	2623	2638	2643	2643	2611	2655	2654	2595	2638	2659	2623	2612	2623	2630	2595	2627	2603	2623	2594	2583	2607	2595	2631	2586	2622	2619	2599	2615	2627	2603	2627	2596	2667	2602	2591	2583	2590	2590	2583	2631	2586	2575	2574	2610	2628	2602	2611	2602	2643	2618	2639	2606	2582	2583	2634	2631	2582	2619	2611	