2351	2354	2372	2375	2371	2355	2343	2371	2351	2379	2355	2350	2391	2383	2375	2383	2350	2390	2342	2374	2343	2378	2342	2335	2395	2371	2339	2351	2382	2366	2375	2343	2339	2399	2375	2358	2371	2335	2367	2334	2378	2375	2374	2351	2342	2386	2351	2374	2382	2358	2345	2327	2363	2375	2354	2350	2395	2343	2363	2310	2307	2347	2314	2337	2327	2324	2299	2323	2359	2302	2311	2319	2334	2323	2355	2334	2326	2335	2291	2303	2331	2343	2307	2351	2312	2338	2347	2343	2319	2335	2307	2330	2314	2327	2347	2298	2327	2307	2315	2314	2331	2326	2318	2318	2343	2318	2334	2383	2355	2343	2359	2375	2375	2403	2427	2366	2414	2363	2391	2387	2443	2447	2443	2426	2448	2483	2498	2492	2496	2543	2498	2510	2550	2535	2584	2570	2571	2579	2576	2603	2666	2638	2642	2663	2670	2666	2714	2739	2761	2722	2779	2759	2779	2815	2783	2847	2855	2867	2855	2882	2906	2911	2943	2967	2931	2943	2979	2988	2986	2995	3047	3075	3091	3066	3111	3086	3111	3127	3123	3131	3167	3183	3186	3219	3207	3218	3258	3235	3242	3240	3274	3267	3258	3299	3299	3299	3331	3326	3319	3331	3330	3343	3367	3383	3406	3394	3399	3390	3399	3395	3387	3379	3426	3431	3396	3411	3407	3407	3443	3419	3426	3426	3426	3427	3446	3431	3467	3442	3462	3470	3454	3438	3459	3466	3451	3464	3423	3426	3467	3431	3447	3431	3459	3466	3431	3411	3454	3459	3430	3435	3451	3432	3415	3427	3406	3399	3419	3446	3399	3374	3399	3423	3423	3403	3379	3379	3370	3379	3391	3407	3407	3390	3391	3354	3379	3336	3371	3358	3366	3322	3327	3344	3374	3315	3311	3298	3302	3311	3318	3279	3315	3298	3287	3319	3267	3279	3283	3263	3255	3263	3259	3258	3254	3283	3239	3235	3235	3243	3244	3222	3230	3231	3211	3242	3210	3191	3230	3219	3219	3190	3231	3203	3214	3162	3187	3203	3174	3167	3215	3175	3178	3158	3155	3175	3164	3150	3138	3147	3127	3162	3135	3139	3118	3159	3111	3110	3103	3106	3134	3134	3103	3082	3087	3111	3070	3078	3071	3111	3086	3071	3043	3056	3071	3062	3067	3047	3075	3086	3046	3063	3075	3067	3015	3031	3027	3047	3055	3019	3031	3020	3023	2988	2983	3006	2994	2979	2995	2986	2974	3010	3002	3014	3007	2959	2987	2962	2983	2994	2951	2951	2954	2951	2959	2971	2947	2926	2939	2959	2951	2976	2939	2955	2930	2927	2923	2943	2910	2919	2939	2914	2930	2959	2906	2911	2914	2907	2903	2918	2918	2891	2899	2918	2871	2891	2923	2899	2879	2922	2891	2895	2887	2878	2887	2907	2908	2867	2883	2879	2919	2890	2883	2935	2875	2919	2895	2882	2858	2879	2867	2895	2890	2911	2915	2895	2886	2887	2887	2919	2926	2910	2874	2870	2907	2895	2883	2871	2896	2907	2887	2911	2898	2887	2919	2871	2898	2871	2922	2934	2915	2895	2890	2919	2898	2903	2897	2883	2906	2907	2882	2907	2931	2890	2882	2912	2923	2894	2915	2911	2903	2918	2878	2922	2899	2903	2891	2903	2910	2882	2888	2895	2902	2915	2931	2915	2882	2907	2883	2927	2923	2890	2895	2882	2899	2850	2911	2931	2899	2867	2923	2886	2859	2911	2855	2855	2899	2864	2898	2847	2855	2862	2855	2862	2838	2851	2858	2863	2842	2854	2879	2839	2868	2835	2819	2874	2819	2835	2842	2848	2850	2814	2859	2848	2827	2831	2827	2838	2796	2774	2811	2811	2787	2815	2774	2815	2787	2787	2775	2786	2775	2794	2771	2767	2759	2754	2771	2783	2791	2752	2731	2719	2762	2742	2742	2736	2718	2731	2738	2750	2706	2719	2723	2730	2734	2699	2719	2723	2703	2750	2683	2718	2687	2676	2695	2703	2695	2694	2703	2699	2674	2679	2682	2694	2663	2682	2643	2653	2662	2674	2671	2662	2656	2635	2639	2650	2623	2623	2615	2599	2622	2623	2646	2634	2619	2611	2618	2623	2571	2623	2619	2631	2631	2570	2611	2599	2563	2554	2590	2570	2603	2594	2559	2558	2559	2574	2534	2559	2579	2566	2495	2552	2543	2542	2558	2539	2503	2513	2523	2518	2514	2491	2494	2527	2507	2471	2494	2474	2463	2486	2519	2474	2471	2483	2472	2459	2466	2459	2466	2439	2439	2467	2426	2483	2462	2462	2462	2447	2434	2435	2442	2427	2446	2418	2427	2411	2415	2411	2407	2423	2415	2366	2403	2411	2387	2419	2375	2394	2403	2399	2379	2359	2394	2391	2350	2371	2331	2354	2375	2331	2343	2363	2363	2355	2346	2339	2335	2318	2330	2343	2366	2331	2323	2306	2331	2307	2326	2315	2295	2348	2318	2346	2327	2310	2312	2326	2279	2338	2338	2303	2287	2286	2287	2310	2267	2283	2267	2275	2275	2307	2251	2275	2295	2294	2263	2299	2240	2286	2234	2267	2263	2239	2271	2262	2259	2243	2247	2227	2247	2235	2239	2267	2211	2228	2235	2203	2218	2254	2198	2239	2223	2235	2212	2191	2211	2211	2152	2199	2175	2202	2211	2210	2178	2175	2171	2223	2231	2183	2187	2175	2191	2178	2199	2151	2191	2159	2163	2187	2152	2152	2186	2187	2163	2179	2179	2135	2139	2166	2122	2134	2131	2130	2151	2151	2123	2154	2142	2119	2127	2171	2162	2147	2143	2143	2123	2154	2131	2160	2106	2143	2119	2107	2143	2126	2102	2150	2151	2151	2126	2130	2150	2114	2115	2126	2147	2160	2118	2106	2107	2134	2127	2151	2087	2138	2109	2127	2135	2110	2130	2091	2110	2122	2090	2150	2143	2103	2099	2134	2123	2110	2111	2107	2104	2138	2091	2094	2127	2151	2123	2127	2132	2102	2115	2115	2095	2130	2135	2147	2139	2106	2131	2131	2126	2115	2132	2111	2103	2114	2146	2091	2098	2086	2095	2111	2146	2143	2078	2142	2163	2103	2139	2090	2127	2119	2131	2107	2103	2119	2107	2147	2123	2098	2126	2136	2146	2087	2131	2123	2071	2082	2127	2119	2083	2111	2126	2111	2130	2098	2127	2079	2103	2095	2099	2134	2139	2107	2099	2119	2127	2138	2118	2110	2142	2119	2140	2139	2118	2143	2178	2130	2194	2150	2203	2203	2206	2227	2216	2214	2227	2214	2242	2271	2278	2262	2279	2287	2306	2319	2312	2351	2346	2375	2396	2398	2379	2401	2406	2419	2462	2491	2515	2490	2531	2523	2559	2591	2586	2595	2635	2635	2623	2654	2667	2662	2666	2706	2734	2730	2791	2762	2746	2815	2807	2799	2831	2843	2867	2902	2903	2903	2946	2911	2931	2992	2943	2987	3010	3015	3003	3011	3043	3059	3071	3066	3083	3099	3127	3130	3123	3147	3146	3154	3186	3217	3214	3182	3214	3187	3212	3230	3219	3238	3223	3243	3270	3280	3275	3283	3279	3287	3287	3315	3290	3302	3299	3318	3318	3302	3359	3359	3355	3338	3322	3359	3339	3351	3343	3386	3355	3366	3330	3358	3355	3351	3358	3343	3358	3371	3367	3352	3339	3356	3375	3351	3343	3371	3362	3334	3319	3358	3319	3319	3338	3326	3335	3338	3323	3335	3311	3294	3323	3338	3307	3335	3351	3302	3295	3331	3303	3331	3319	3279	3271	3288	3307	3251	3271	3267	3279	3262	3259	3236	3223	3230	3239	3259	3226	3239	3238	3211	3215	3202	3219	3219	3175	3235	3214	3194	3202	3182	3222	3195	3170	3159	3183	3155	3190	3167	3163	3170	3139	3131	3159	3135	3143	3127	3135	3151	3135	3135	3095	3134	3111	3120	3098	3123	3071	3079	3150	3095	3094	3096	3075	3071	3083	3105	3079	3071	3047	3055	3091	3051	3062	3018	3075	3038	3007	3019	3019	3055	3042	3071	3039	3031	2983	2995	3007	3022	2967	2991	2975	3007	2962	2986	2966	2970	2994	2970	2963	2962	2986	2930	2951	2962	2963	2959	2919	2931	2935	2935	2903	2915	2899	2922	2903	2883	2902	2919	2895	2879	2882	2871	2915	2910	2898	2907	2859	2891	2895	2883	2859	2858	2854	2866	2851	2842	2847	2850	2840	2842	2842	2859	2835	2887	2859	2854	2863	2870	2874	2864	2854	2819	2831	2834	2811	2843	2863	2827	2870	2858	2855	2878	2870	2866	2851	2839	2843	2870	2838	2839	2867	2835	2854	2827	2855	2851	2871	2866	2848	2894	2850	2843	2882	2855	2871	2875	2819	2899	2863	2851	2871	2851	2863	2891	2895	2868	2871	2863	2883	2898	2895	2902	2911	2882	2874	2895	2899	2906	2871	2870	2898	2866	2871	2898	2918	2890	2903	2934	2918	2931	2934	2930	2892	2924	2914	2915	2879	2918	2942	2918	2903	2887	2903	2911	2887	2907	2915	2891	2895	2895	2918	2887	2915	2883	2886	2915	2939	2898	2879	2915	2918	2907	2879	2887	2927	2931	2871	2903	2899	2943	2902	2910	2902	2879	2875	2915	2887	2906	2888	2871	2883	2839	2903	2879	2867	2867	2863	2851	2890	2871	2891	2866	2887	2867	2875	2823	2867	2846	2851	2834	2871	2835	2835	2819	2862	2835	2859	2823	2839	2803	2839	2803	2791	2814	2795	2831	2826	2831	2798	2815	2811	2819	2791	2818	2775	2835	2806	2762	2794	2783	2775	2754	2770	2798	2795	2751	2742	2723	2726	2767	2755	2730	2711	2751	2767	2755	2743	2754	2719	2731	2710	2746	2735	2679	2667	2695	2731	2707	2691	2675	2719	2691	2652	2662	2699	2694	2686	2674	2650	2662	2683	2699	2683	2654	2686	2675	2663	2615	2666	2643	2615	2634	2616	2627	2602	2638	2595	2614	2600	2606	2590	2622	2619	2626	2574	2579	2606	2602	2595	2562	2583	2603	2554	2559	2599	2614	2567	2607	2539	2589	2571	2582	2543	2559	2571	2599	2531	2563	2579	2543	2518	2555	2559	2527	2518	2555	2563	2531	2511	2522	2566	2527	2523	2506	2502	2503	2487	2499	2491	2495	2542	2483	2499	2479	2511	2475	2494	2511	2495	2519	2479	2483	2475	2474	2510	2490	2466	2494	2472	2467	2498	2487	2479	2510	2482	2500	2467	2464	2466	2459	2463	2463	2479	2487	2478	2438	2466	2451	2490	2467	2437	2454	2439	2439	2447	2427	2439	2486	2418	2451	2447	2431	2438	2471	2430	2424	2482	2450	2410	2446	2415	2446	2423	2403	2427	2450	2446	2419	2467	2415	2435	2442	2442	2410	2475	2422	2394	2430	2443	2423	2451	2399	2442	2430	2431	2423	2414	2419	2430	2427	2442	2414	2415	2451	2430	2435	2443	2447	2434	2419	2454	2458	2459	2459	2454	2459	2454	2458	2422	2427	2451	2411	2410	2406	2438	2419	2447	2422	2443	2419	2408	2435	2403	2422	2435	2453	2447	2459	2430	2463	2463	2442	2462	2411	2415	2447	2447	2455	2411	2434	2450	2439	2438	2415	2443	2455	2443	2403	2463	2459	2450	2435	2451	2439	2407	2431	2415	2423	2410	2411	2426	2427	2412	2438	2479	2439	2435	2443	2423	2430	2423	2442	2435	2454	2419	2419	2419	2463	2451	2438	2414	2447	2447	2435	2427	2471	2454	2483	2456	2459	2446	2454	2451	2467	2435	2487	2463	2483	2487	2487	2507	2475	2515	2502	2511	2535	2530	2542	2522	2567	2535	2543	2567	2607	2570	2623	2595	2622	2631	2635	2647	2643	2663	2687	2703	2739	2723	2730	2726	2764	2755	2787	2806	2819	2823	2859	2831	2847	2878	2894	2895	2915	2918	2931	2951	2979	2990	2991	3023	3035	3042	3032	3054	3067	3063	3124	3115	3115	3151	3127	3143	3163	3155	3182	3190	3203	3238	3227	3275	3259	3282	3271	3287	3327	3302	3310	3326	3370	3338	3343	3366	3355	3390	3371	3407	3411	3379	3407	3406	3407	3475	3419	3431	3451	3431	3442	3472	3454	3455	3486	3455	3455	3451	3467	3483	3519	3498	3499	3507	3507	3547	3480	3523	3479	3499	3506	3507	3499	3542	3487	3490	3511	3483	3511	3503	3498	3487	3511	3487	3515	3522	3488	3507	3491	3454	3447	3479	3483	3467	3438	3450	3442	3470	3452	3438	3415	3479	3438	3419	3434	3402	3440	3391	3428	3443	3382	3378	3398	3395	3408	3398	3364	3399	3371	3363	3367	3355	3347	3375	3334	3355	3351	3335	3330	3318	3331	3295	3295	3315	3295	3303	3295	3295	3322	3287	3291	3263	3271	3266	3271	3235	3263	3274	3238	3243	3263	3262	3226	3242	3202	3219	3247	3190	3199	3223	3223	3203	3203	3171	3191	3178	3159	3187	3195	3146	3155	3147	3159	3175	3143	3143	3135	3131	3155	3118	3119	3150	3135	3115	3131	3110	3167	3086	3086	3099	3103	3095	3051	3106	3087	3047	3051	3071	3071	3062	3083	3054	3063	3051	3034	3019	3023	3046	3003	2999	3019	3039	3027	3035	3027	2987	2974	2967	2975	2970	2968	2946	2967	2974	2975	2967	2971	2959	2938	2946	2939	2954	2923	2911	2955	2903	2911	2924	2915	2910	2907	2915	2879	2931	2911	2899	2895	2910	2943	2890	2879	2894	2882	2883	2875	2867	2895	