2646	2626	2590	2527	2598	2618	2515	2503	2594	2498	2599	2535	2511	2527	2547	2499	2510	2483	2555	2578	2530	2551	2570	2474	2551	2535	2531	2463	2443	2507	2543	2539	2495	2443	2494	2426	2419	2439	2443	2439	2503	2403	2499	2462	2490	2411	2442	2435	2474	2507	2441	2477	2474	2495	2411	2506	2483	2447	2482	2402	2487	2406	2382	2426	2471	2475	2395	2467	2391	2383	2331	2350	2363	2438	2403	2423	2319	2339	2315	2431	2307	2314	2363	2295	2360	2291	2291	2378	2391	2387	2358	2259	2282	2270	2312	2339	2335	2323	2239	2334	2287	2226	2223	2267	2303	2287	2203	2214	2235	2171	2175	2286	2186	2282	2268	2179	2183	2211	2247	2207	2162	2146	2127	2138	2183	2171	2211	2142	2195	2154	2128	2122	2175	2170	2090	2110	2130	2138	2170	2087	2155	2099	2115	2070	2139	2102	2142	2107	2039	2095	2047	2050	2047	2111	2062	2107	2019	1991	2066	2071	2006	1998	2000	1999	1983	2062	2006	2050	1963	2030	2034	1984	2063	1970	2038	2034	1975	1935	1919	2030	2007	2023	1923	1936	1955	1991	1978	1895	1923	1963	1954	1915	1895	1990	1983	1934	1954	1947	1886	1986	1867	1914	1971	1970	1859	1926	1855	1963	1850	1887	1926	1842	1914	1895	1954	1874	1838	1947	1931	1855	1838	1886	1883	1870	1935	1854	1855	1854	1846	1855	1827	1815	1894	1898	1847	1910	1866	1902	1883	1879	1847	1827	1850	1807	1907	1882	1838	1899	1870	1890	1823	1823	1815	1827	1887	1803	1843	1882	1886	1906	1835	1898	1835	1862	1878	1862	1782	1782	1910	1875	1894	1790	1858	1899	1838	1846	1787	1790	1833	1823	1774	1855	1843	1782	1767	1791	1787	1811	1887	1807	1827	1766	1776	1775	1842	1843	1791	1842	1878	1874	1794	1750	1867	1762	1866	1749	1871	1760	1862	1839	1778	1850	1855	1859	1814	1783	1835	1836	1754	1847	1739	1763	1831	1747	1803	1775	1726	1767	1779	1767	1726	1751	1722	1722	1726	1815	1811	1795	1752	1706	1715	1810	1702	1814	1722	1738	1770	1763	1699	1714	1771	1774	1699	1683	1783	1755	1699	1691	1711	1794	1719	1683	1783	1791	1763	1679	1778	1726	1763	1712	1675	1682	1715	1679	1679	1776	1687	1790	1722	1754	1735	1808	1730	1715	1763	1715	1731	1750	1746	1823	1823	1858	1835	1802	1798	1827	1826	1928	1953	1906	1883	1958	1999	2047	2043	2019	1998	2102	2162	2186	2211	2184	2166	2286	2239	2311	2398	2386	2328	2427	2406	2438	2486	2531	2542	2571	2691	2735	2667	2794	2834	2866	2887	2890	2855	2875	2899	3030	2959	3098	3035	3087	3163	3099	3170	3175	3287	3322	3338	3347	3359	3326	3411	3391	3471	3487	3407	3431	3436	3458	3519	3587	3579	3514	3547	3594	3600	3659	3585	3671	3643	3631	3599	3611	3715	3627	3658	3666	3682	3711	3731	3670	3763	3711	3670	3655	3671	3683	3779	3731	3671	3767	3762	3719	3699	3731	3667	3671	3683	3770	3715	3671	3683	3690	3666	3774	3739	3742	3771	3699	3690	3663	3770	3679	3747	3750	3683	3655	3639	3671	3743	3739	3675	3739	3699	3722	3715	3671	3695	3646	3643	3631	3615	3703	3599	3630	3687	3626	3607	3655	3599	3582	3595	3582	3687	3611	3675	3614	3678	3555	3671	3659	3558	3563	3627	3543	3579	3615	3639	3571	3527	3535	3558	3522	3530	3519	3511	3559	3626	3611	3579	3555	3519	3495	3495	3579	3555	3551	3551	3494	3526	3547	3458	3562	3495	3547	3440	3475	3551	3427	3475	3478	3495	3418	3511	3434	3483	3451	3395	3398	3487	3411	3371	3483	3363	3363	3383	3387	3399	3403	3327	3327	3322	3382	3375	3315	3395	3267	3315	3367	3351	3327	3295	3283	3319	3263	3243	3274	3226	3267	3151	3215	3158	3207	3182	3171	3087	3182	3102	3150	3091	3126	3019	3114	3112	3071	3030	2975	2991	3027	2971	3048	2915	2911	3007	2894	2886	2871	2963	2883	2867	2826	2850	2826	2806	2855	2894	2890	2847	2795	2847	2859	2771	2862	2799	2758	2747	2811	2719	2771	2727	2775	2699	2699	2759	2723	2787	2675	2751	2699	2775	2746	2658	2742	2655	2642	2743	2691	2743	2730	2694	2715	2618	2711	2682	2710	2695	2686	2659	2690	2630	2635	2638	2622	2663	2595	2631	2663	2611	2664	2687	2611	2675	2642	2635	2610	2566	2603	2567	2594	2640	2603	2575	2595	2607	2542	2570	2539	2574	2624	2547	2631	2558	2634	2546	2567	2523	2558	2523	2523	2607	2507	2518	2555	2555	2582	2599	2530	2503	2534	2499	2487	2535	2483	2579	2520	2463	2531	2563	2466	2487	2571	2546	2455	2475	2455	2467	2427	2534	2534	2410	2423	2414	2503	2451	2399	2422	2427	2499	2407	2386	2483	2375	2475	2459	2422	2347	2351	2454	2355	2391	2334	2371	2331	2418	2330	2327	2415	2335	2395	2302	2287	2399	2382	2302	2311	2351	2314	2354	2259	2283	2347	2230	2347	2311	2295	2326	2211	2335	2231	2303	2199	2224	2314	2211	2283	2182	2188	2222	2287	2243	2231	2239	2243	2167	2267	2214	2266	2247	2143	2239	2223	2218	2206	2131	2171	2227	2118	2134	2214	2182	2107	2134	2106	2098	2203	2147	2142	2146	2095	2143	2179	2075	2170	2146	2115	2167	2063	2110	2110	2075	2043	2067	2027	2114	2154	2128	2115	2031	2054	2131	2135	2122	2067	2044	2015	2103	2099	2026	2087	2066	1991	1987	2007	2098	2019	2038	2051	2016	2047	2011	2074	2023	1995	1970	2043	1970	1959	2059	2031	1939	1954	1943	2047	2022	2011	1930	2003	1939	2038	1978	1935	2019	1942	1939	1980	2026	2011	2014	1926	2015	1894	1991	1962	2003	1955	1934	1995	1910	1959	1899	1939	1947	1935	1875	1991	1984	1895	1923	1987	1918	1903	1931	1919	1959	1882	1943	1895	1867	1915	1927	1982	1898	1899	1886	1927	1863	1871	1904	1887	1907	1874	1939	1898	1895	1874	1865	1859	1859	1867	1839	1946	1939	1875	1922	1850	1894	1939	1858	1879	1854	1886	1880	1907	1830	1914	1865	1866	1923	1891	1931	1883	1863	1903	1819	1882	1906	1863	1870	1874	1910	1798	1807	1879	1883	1790	1891	1786	1895	1791	1790	1782	1878	1895	1791	1808	1819	1775	1831	1779	1847	1767	1770	1802	1766	1867	1791	1823	1827	1863	1763	1875	1754	1763	1774	1791	1767	1855	1830	1790	1782	1810	1767	1751	1851	1771	1767	1827	1842	1806	1758	1859	1754	1798	1810	1850	1754	1786	1794	1839	1846	1855	1859	1854	1771	1754	1758	1759	1807	1754	1848	1834	1751	1871	1810	1763	1779	1775	1790	1879	1843	1798	1903	1915	1923	1843	1854	1854	1979	1979	1983	1962	2040	1968	2007	2019	2130	2127	2139	2196	2231	2251	2169	2299	2227	2242	2294	2299	2443	2442	2499	2495	2475	2598	2614	2643	2606	2646	2703	2743	2791	2750	2851	2795	2883	2954	2894	2962	2950	3007	3091	3027	3151	3103	3115	3242	3178	3262	3218	3339	3363	3303	3383	3423	3374	3390	3454	3411	3530	3479	3571	3475	3534	3583	3631	3642	3551	3659	3675	3586	3623	3703	3619	3695	3639	3755	3679	3671	3667	3723	3775	3795	3707	3747	3751	3719	3763	3767	3707	3711	3799	3791	3775	3827	3823	3752	3738	3723	3787	3795	3811	3771	3715	3734	3710	3802	3750	3695	3771	3735	3747	3802	3691	3743	3750	3727	3675	3695	3698	3775	3662	3727	3739	3659	3735	3699	3643	3703	3700	3675	3679	3663	3734	3731	3620	3619	3654	3619	3610	3630	3619	3682	3611	3595	3695	3635	3680	3583	3602	3579	3579	3598	3647	3563	3631	3651	3655	3619	3570	3591	3543	3627	3643	3607	3539	3535	3547	3619	3627	3587	3542	3519	3623	3571	3599	3627	3595	3523	3546	3551	3515	3491	3563	3487	3543	3547	3471	3559	3538	3454	3499	3475	3551	3454	3479	3467	3518	3426	3474	3523	3491	3399	3464	3431	3371	3475	3410	3451	3375	3387	3355	3342	3346	3382	3398	3338	3374	3342	3331	3367	3270	3374	3366	3351	3238	3290	3238	3259	3196	3178	3247	3167	3182	3167	3250	3198	3138	3119	3127	3083	3123	3059	3163	3067	3103	3023	3103	3075	3098	2983	3014	3059	2947	2995	3030	2927	2954	2986	2990	3003	2939	2902	2899	2951	2903	2846	2862	2847	2851	2930	2898	2926	2883	2831	2815	2847	2895	2835	2838	2787	2871	2818	2862	2770	2763	2746	2823	2843	2738	2747	2839	2811	2785	2763	2782	2739	2811	2815	2723	2711	2763	2703	2758	2799	2762	2783	2711	2791	2702	2791	2790	2695	2750	2718	2702	2679	2711	2767	2727	2758	2683	2654	2715	2760	2655	2731	2659	2668	2766	2666	2768	2683	2643	2707	2655	2694	2666	2646	2735	2751	2703	2739	2619	2734	2623	2659	2667	2702	2631	2614	2726	2711	2671	2583	2607	2590	2643	2683	2574	2607	2607	2567	2626	2571	2583	2591	2647	2547	2539	2559	2611	2627	2579	2550	2549	2627	2511	2551	2523	2551	2555	2491	2547	2542	2559	2466	2470	2567	2463	2467	2467	2559	2439	2482	2466	2483	2431	2459	2422	2419	2415	2483	2438	2411	2486	2454	2495	2387	2486	2379	2379	2371	2355	2371	2359	2350	2359	2375	2339	2338	2315	2342	2434	2414	2366	2371	2367	2355	2307	2390	2350	2335	2343	2298	2338	2288	2279	2286	2384	2342	2339	2267	2351	2335	2251	2350	2231	2239	2323	2235	2226	2254	2235	2266	2263	2211	2212	2235	2187	2290	2211	2287	2194	2298	2234	2187	2179	2203	2267	2178	2246	2262	2255	2214	2182	2214	2159	2211	2179	2215	2142	2126	2139	2119	2211	2198	2215	2215	2103	2203	2151	2110	2170	2099	2142	2091	2099	2123	2098	2110	2087	2083	2087	2167	2083	2078	2067	2107	2064	2063	2058	2150	2151	2047	2043	2154	2042	2055	2151	2146	2131	2042	2042	2123	2094	2090	2086	2138	2143	2059	2119	2071	2135	2115	2047	2054	2042	2051	2079	2115	2123	2107	2051	2071	2067	2018	2007	2003	2063	2006	2079	2020	2062	2010	2067	1995	1998	2082	2000	2103	2003	2078	2087	2083	1987	1991	2050	2035	1986	1983	1982	2018	2071	2003	2022	2091	1983	2003	2062	2027	2078	2033	2043	2035	2007	1962	2071	2056	1963	2018	2014	2063	2003	1967	1987	1951	1947	1959	1982	2047	1951	1971	1996	2046	2022	1942	1951	1979	2019	2050	2035	2042	1963	1963	2039	2027	1942	2003	2026	2034	2008	2018	2019	1974	1923	1914	1920	1922	1979	2002	1999	1886	1883	1919	1922	1890	1910	1886	2003	1978	1947	1983	1986	1966	1963	1983	1975	1895	1955	1918	1891	1860	1943	1927	1854	1866	1851	1926	1959	1846	1939	1875	1934	1839	1922	1851	1830	1934	1934	1826	1897	1923	1887	1835	1831	1912	1843	1934	1823	1818	1867	1811	1902	1859	1875	1878	1931	1911	1934	1879	1875	1927	1899	1959	1891	1907	1844	1919	1891	1879	1878	1967	1923	1943	1983	2019	1951	2010	2066	2038	2031	2063	2018	2064	2163	2103	2207	2150	2230	2191	2299	2267	2267	2355	2391	2343	2366	2463	2478	2455	2467	2519	2610	2566	2691	2674	2651	2763	2728	2743	2883	2803	2882	2859	2934	3000	2951	3058	3055	3115	3166	3095	3122	3215	3178	3203	3211	3326	3335	3343	3402	3434	3447	3387	3471	3419	3491	3458	3530	3472	3563	3591	3607	3567	3583	3619	3642	3659	3591	3619	3723	3723	3639	3647	3726	3687	3690	3679	3679	3671	3719	3695	3695	3802	3802	3778	3771	3758	3747	3718	3819	3795	3770	3738	3799	3811	3723	3763	3759	3771	3735	3695	3771	3731	3777	3691	3742	3727	3675	3791	3671	3782	3667	3775	3758	3747	3659	3667	3715	3702	3690	3623	3715	3687	3634	3607	3706	3663	3698	3699	3703	3703	3607	3683	3611	3650	3587	3595	3595	3675	3627	3679	3603	3555	3535	3639	3635	3615	3531	3603	3619	3555	3538	3543	3590	3611	3518	3507	3614	3522	3619	3542	3571	3483	3570	3547	3579	3471	3559	3555	3562	3555	3495	3539	3511	3467	3519	3458	3554	3443	3431	3434	3531	3522	3441	3442	3522	3503	3479	3502	3399	3439	3463	3383	3447	3474	3468	3439	3427	3434	3443	3403	3319	3354	3403	3303	3402	3354	3362	3343	3339	3323	3347	3275	3359	3290	3280	3291	3263	3303	3231	3211	3187	3167	3239	3219	3219	3227	3151	3103	3203	3191	3171	3159	3051	3083	3120	3023	3135	3107	3095	3059	3071	3047	2991	3054	2990	3010	2935	2918	3003	2898	2967	2914	2895	2851	2858	2959	2842	2867	2931	2835	2883	2811	2812	2787	2859	2874	2775	2771	2779	2763	2783	2759	2771	2824	2770	2835	2854	2755	