3319	3415	3351	3470	3384	3478	3510	3502	3519	3483	3455	3495	3467	3511	3515	3570	3498	3511	3610	3519	3539	3611	3551	3530	3570	3583	3539	3555	3539	3543	3618	3551	3611	3574	3551	3611	3602	3615	3651	3574	3599	3591	3627	3639	3615	3634	3670	3575	3591	3603	3650	3563	3554	3590	3618	3554	3563	3615	3651	3639	3622	3635	3535	3571	3531	3574	3550	3515	3615	3532	3574	3526	3578	3511	3506	3519	3539	3539	3546	3486	3575	3526	3579	3530	3495	3483	3535	3527	3547	3471	3478	3479	3463	3479	3547	3535	3559	3543	3511	3455	3527	3539	3527	3447	3475	3447	3443	3455	3547	3487	3406	3438	3419	3514	3467	3450	3435	3459	3487	3431	3419	3487	3399	3490	3386	3419	3439	3375	3355	3394	3351	3450	3363	3350	3335	3327	3322	3431	3327	3399	3383	3326	3302	3295	3355	3275	3358	3355	3278	3323	3351	3354	3291	3282	3331	3243	3320	3267	3299	3223	3266	3159	3251	3238	3206	3151	3223	3223	3131	3119	3135	3099	3131	3043	3047	3031	3071	3075	2994	3015	3031	3059	2998	2934	2930	3011	2959	2918	2935	2883	2976	2898	2907	2863	2855	2851	2859	2798	2891	2779	2839	2783	2779	2766	2763	2819	2731	2723	2815	2738	2779	2711	2711	2750	2787	2738	2755	2679	2671	2723	2678	2691	2627	2655	2623	2623	2718	2630	2687	2683	2618	2658	2663	2698	2603	2671	2583	2659	2575	2671	2611	2574	2591	2607	2619	2620	2672	2634	2623	2607	2655	2555	2658	2635	2639	2535	2607	2635	2519	2615	2627	2611	2632	2616	2570	2579	2543	2559	2515	2587	2575	2606	2518	2503	2559	2531	2522	2522	2615	2574	2507	2527	2575	2591	2590	2571	2559	2579	2471	2487	2479	2480	2459	2559	2515	2454	2470	2491	2547	2555	2499	2531	2474	2419	2434	2423	2495	2519	2523	2422	2406	2423	2499	2398	2486	2407	2471	2455	2475	2435	2394	2463	2347	2438	2446	2443	2343	2415	2395	2363	2319	2355	2418	2387	2315	2371	2385	2387	2291	2294	2267	2379	2270	2318	2311	2262	2347	2299	2231	2230	2234	2238	2322	2219	2271	2239	2220	2195	2231	2242	2295	2275	2230	2282	2207	2179	2271	2226	2190	2234	2235	2258	2211	2134	2127	2199	2131	2147	2175	2111	2174	2110	2135	2199	2102	2154	2083	2162	2128	2090	2163	2091	2063	2158	2066	2054	2182	2110	2150	2079	2103	2151	2074	2028	2082	2066	2042	2047	2128	2102	2034	2110	2023	2035	2082	2038	1998	1999	2010	1995	1979	2051	2047	1982	1998	2067	1995	2003	2063	1951	1971	1967	2046	1974	1943	1927	2047	1971	2014	1927	1974	1955	1975	2023	1934	1910	2007	1923	1904	2002	1971	1971	1991	1955	1987	1888	1960	1991	1963	1890	1984	1943	1919	1951	1875	1942	1886	1886	1899	1919	1955	1906	1879	1871	1872	1963	1866	1946	1935	1891	1875	1862	1867	1959	1959	1958	1962	1954	1911	1851	1859	1935	1862	1951	1867	1958	1951	1919	1858	1863	1943	1906	1858	1879	1927	1903	1863	1935	1940	1823	1835	1830	1855	1934	1915	1907	1854	1847	1898	1902	1850	1823	1911	1902	1835	1847	1811	1834	1906	1787	1790	1887	1782	1855	1806	1891	1771	1830	1887	1806	1783	1782	1835	1783	1831	1763	1839	1807	1835	1795	1803	1867	1767	1807	1871	1763	1778	1742	1840	1755	1835	1783	1854	1808	1839	1823	1758	1827	1795	1814	1750	1799	1823	1831	1806	1791	1726	1750	1834	1822	1826	1767	1807	1823	1775	1831	1779	1807	1802	1824	1771	1727	1822	1731	1800	1818	1790	1814	1710	1775	1807	1782	1735	1826	1755	1831	1738	1827	1819	1807	1784	1843	1858	1747	1855	1775	1854	1839	1806	1818	1899	1947	1957	1858	1983	1911	2009	1943	2019	2007	2043	2003	2074	2130	2098	2171	2235	2199	2278	2275	2254	2354	2383	2371	2422	2362	2406	2427	2551	2498	2530	2583	2587	2654	2686	2658	2719	2719	2839	2814	2866	2911	2959	2899	2915	3019	2995	3039	3119	3151	3091	3203	3232	3195	3163	3271	3259	3322	3355	3334	3312	3399	3347	3366	3364	3410	3410	3427	3471	3475	3451	3522	3479	3538	3507	3587	3623	3623	3610	3583	3623	3638	3550	3534	3543	3675	3631	3603	3659	3591	3670	3691	3691	3683	3655	3576	3690	3658	3630	3579	3591	3594	3575	3606	3606	3631	3567	3643	3571	3559	3599	3659	3598	3571	3563	3579	3647	3542	3543	3551	3631	3528	3527	3575	3558	3526	3507	3547	3619	3507	3495	3598	3511	3587	3487	3503	3527	3550	3507	3563	3486	3471	3531	3552	3547	3547	3555	3463	3534	3566	3559	3551	3447	3487	3543	3515	3514	3487	3430	3535	3447	3539	3526	3463	3443	3423	3519	3482	3411	3447	3414	3407	3430	3390	3506	3439	3472	3406	3387	3486	3394	3371	3478	3414	3463	3386	3370	3419	3451	3423	3351	3366	3438	3410	3331	3443	3355	3382	3339	3387	3331	3315	3303	3310	3323	3327	3379	3352	3379	3274	3267	3243	3279	3263	3252	3339	3307	3323	3331	3202	3291	3254	3207	3191	3175	3184	3250	3235	3223	3118	3207	3160	3111	3071	3151	3063	3035	3107	3035	3099	3042	3098	3071	3071	2963	3035	3031	2915	2903	2995	2939	2875	2958	2960	2839	2868	2927	2902	2870	2898	2887	2779	2871	2759	2767	2762	2807	2831	2723	2806	2815	2810	2807	2759	2771	2691	2747	2767	2671	2703	2674	2674	2722	2627	2675	2651	2723	2667	2683	2598	2626	2614	2602	2591	2586	2646	2583	2647	2607	2635	2575	2670	2587	2562	2646	2622	2659	2539	2619	2599	2579	2647	2642	2639	2639	2563	2627	2639	2614	2559	2551	2527	2623	2531	2570	2595	2579	2535	2518	2511	2555	2542	2554	2618	2576	2582	2507	2595	2511	2503	2498	2499	2586	2587	2519	2486	2567	2583	2499	2463	2486	2479	2475	2455	2475	2507	2486	2530	2482	2482	2519	2475	2446	2519	2495	2523	2511	2503	2447	2403	2407	2431	2467	2419	2375	2454	2462	2374	2375	2468	2358	2446	2418	2407	2338	2447	2342	2343	2318	2350	2319	2423	2411	2347	2295	2387	2295	2287	2367	2338	2371	2291	2371	2376	2362	2319	2254	2290	2271	2278	2311	2274	2238	2238	2286	2226	2327	2291	2230	2283	2219	2303	2251	2187	2262	2267	2247	2283	2255	2242	2171	2267	2174	2275	2267	2162	2147	2222	2191	2207	2147	2243	2195	2171	2234	2227	2135	2126	2206	2155	2179	2130	2119	2170	2103	2155	2157	2196	2126	2111	2134	2120	2134	2147	2146	2114	2098	2103	2091	2062	2087	2166	2047	2126	2082	2098	2142	2059	2147	2060	2138	2123	2035	2107	2095	2131	2066	2042	2035	2039	2007	2046	2030	2007	2075	2058	2026	2111	2067	2018	2043	2014	2103	2047	2034	2079	2099	2094	2083	2051	2091	2094	2023	1994	1963	1983	2086	2083	1971	1967	2027	2074	2014	2035	2071	2014	1978	2027	1967	1971	2059	1982	2051	1974	1950	1995	2042	2019	2044	2023	2047	2051	2051	1934	1998	2043	1942	1960	1991	2026	2023	2031	1927	1942	2011	2014	2035	1990	2023	1999	1919	2022	1986	1967	1950	2011	1927	1927	1930	1990	2019	1944	1972	1902	1952	2003	1937	1894	1995	1911	1991	1928	1919	1926	1950	1882	1895	1887	1956	1918	1879	1888	1895	1915	1910	1897	1931	1887	1951	1927	1879	1875	1926	1874	1859	1870	1975	1971	1922	1859	1927	1935	1903	1918	1928	1854	1955	1951	1939	1922	1835	1863	1903	1935	1855	1839	1854	1915	1875	1847	1842	1835	1887	1929	1919	1882	1915	1882	1914	1924	1811	1831	1832	1850	1807	1891	1899	1907	1847	1792	1859	1823	1838	1898	1863	1783	1802	1854	1902	1839	1856	1882	1827	1823	1830	1838	1819	1775	1827	1779	1802	1895	1827	1895	1859	1890	1778	1850	1866	1895	1878	1818	1839	1858	1858	1863	1934	1839	1946	1927	1939	1875	1903	1882	1979	1930	2006	1974	2062	2019	1990	2106	2059	2083	2086	2083	2119	2127	2182	2275	2214	2291	2263	2374	2411	2355	2371	2503	2430	2462	2579	2607	2631	2611	2711	2719	2678	2775	2727	2799	2795	2903	2931	2906	2958	2951	2992	3055	3019	3143	3172	3155	3219	3158	3239	3303	3311	3255	3307	3335	3383	3359	3343	3411	3414	3511	3471	3478	3552	3463	3567	3495	3611	3522	3583	3559	3619	3619	3662	3587	3711	3623	3613	3727	3631	3646	3639	3730	3683	3739	3651	3667	3771	3778	3735	3774	3687	3695	3707	3714	3759	3766	3751	3679	3738	3755	3783	3795	3715	3759	3735	3715	3659	3691	3698	3678	3710	3659	3699	3746	3691	3639	3723	3743	3675	3631	3638	3624	3711	3631	3639	3675	3694	3599	3671	3675	3623	3595	3659	3575	3668	3610	3678	3667	3643	3571	3555	3567	3615	3550	3568	3546	3527	3538	3610	3531	3618	3615	3499	3530	3499	3507	3606	3507	3491	3599	3495	3546	3579	3515	3535	3451	3463	3555	3478	3535	3447	3535	3446	3491	3479	3483	3447	3507	3455	3515	3503	3414	3479	3495	3490	3503	3439	3487	3434	3439	3418	3399	3367	3407	3422	3431	3374	3378	3359	3334	3331	3419	3370	3338	3398	3359	3343	3355	3291	3299	3295	3271	3307	3262	3247	3255	3246	3230	3299	3206	3251	3191	3214	3207	3215	3155	3254	3199	3147	3219	3095	3182	3071	3183	3131	3103	3063	3027	3011	3111	3070	3055	2999	3043	2963	3002	2943	3007	2927	3014	2991	2955	2936	2971	2983	2890	2943	2855	2871	2923	2887	2935	2882	2819	2895	2835	2911	2866	2787	2827	2883	2875	2823	2839	2767	2867	2783	2771	2851	2766	2768	2750	2839	2782	2822	2731	2810	2739	2710	2746	2750	2814	2807	2806	2807	2811	2746	2719	2751	2767	2722	2803	2786	2726	2691	2723	2786	2735	2679	2795	2712	2687	2691	2715	2738	2694	2689	2707	2667	2755	2747	2743	2726	2767	2723	2666	2782	2707	2667	2710	2687	2755	2763	2735	2747	2774	2691	2771	2715	2755	2718	2651	2751	2734	2643	2658	2736	2715	2702	2671	2623	2639	2699	2707	2627	2654	2606	2619	2643	2699	2703	2595	2615	2688	2614	2579	2675	2555	2566	2639	2626	2643	2551	2546	2603	2650	2527	2599	2519	2523	2514	2607	2603	2531	2520	2566	2511	2506	2494	2575	2504	2510	2563	2450	2514	2438	2447	2519	2503	2419	2523	2419	2518	2398	2386	2402	2494	2418	2414	2470	2470	2363	2459	2358	2431	2447	2343	2403	2323	2414	2431	2370	2403	2379	2383	2311	2299	2299	2330	2371	2286	2291	2295	2275	2336	2278	2350	2259	2326	2266	2278	2288	2331	2231	2263	2319	2287	2311	2199	2195	2206	2283	2258	2251	2186	2215	2159	2271	2282	2210	2202	2159	2150	2178	2167	2226	2150	2234	2174	2155	2226	2134	2231	2123	2224	2215	2142	2215	2106	2202	2150	2082	2195	2126	2119	2086	2110	2079	2158	2184	2059	2123	2099	2131	2099	2079	2059	2160	2059	2160	2122	2159	2126	2039	2155	2047	2063	2066	2147	2122	2047	2031	2019	2080	2086	2039	2014	2014	2042	2094	2031	2086	2079	1999	1991	2107	1987	2087	2018	1983	1996	2083	2079	1963	1979	2067	1967	1963	1995	2030	1958	2066	2019	1958	1978	1943	2006	1988	1947	2038	2019	1959	2031	1963	2038	1932	1983	1962	1947	1910	2014	1951	1915	1914	1951	1998	1939	2007	1999	2007	1942	1959	1991	1927	1895	1887	1882	1855	1891	1947	1883	1911	1887	1942	1951	1863	1911	1871	1914	1898	1903	1936	1847	1931	1894	1854	1935	1915	1910	1919	1858	1859	1902	1879	1843	1875	1819	1818	1822	1904	1855	1819	1815	1887	1899	1903	1874	1834	1790	1891	1902	1903	1834	1798	1835	1826	1799	1819	1816	1790	1782	1782	1816	1808	1839	1847	1783	1830	1857	1771	1763	1763	1763	1762	1830	1790	1875	1863	1854	1883	1846	1810	1819	1854	1830	1915	1904	1855	1826	1835	1943	1855	1970	1922	1967	2014	1966	1947	1978	2042	1987	2083	2014	2107	2091	2118	2174	2199	2187	2179	2211	2258	2363	2307	2318	2339	2350	2395	2470	2451	2522	2507	2535	2587	2699	2631	2727	2679	2779	2726	2834	2791	2822	2951	2886	2943	2914	3022	2966	3095	3011	3131	3071	3091	3111	3171	3150	3214	3287	3247	3214	3263	3359	3263	3287	3335	3311	3322	3338	3439	3347	3367	3467	3387	3467	3475	3411	3426	3434	3495	3491	3555	3483	3547	3447	3462	3455	3576	3499	3563	3527	3467	3487	3482	3587	3563	3507	3495	3581	3459	3487	3506	3487	3467	3522	3455	3458	3494	3507	3470	3446	3490	3455	3471	3431	3475	3511	3419	3442	3523	3410	3407	3478	3415	