2400	2354	2410	2315	2390	2354	2291	2299	2279	2319	2275	2319	2319	2338	2266	2371	2303	2255	2323	2283	2291	2274	2247	2351	2263	2243	2339	2299	2342	2346	2243	2251	2274	2339	2307	2232	2275	2319	2222	2311	2323	2259	2208	2251	2215	2263	2302	2251	2203	2198	2298	2267	2283	2271	2271	2230	2159	2191	2159	2166	2154	2150	2162	2216	2219	2119	2150	2135	2090	2203	2107	2138	2154	2151	2150	2119	2163	2055	2058	2127	2046	2090	2142	2047	2135	2131	2087	2056	2014	2119	2053	2030	2099	1999	2050	2099	2075	1994	2023	2031	1970	2067	2070	1963	2002	2015	2042	2075	2030	2059	1943	1983	2054	2000	1942	2063	1942	2043	2006	1946	1983	2039	1974	1990	1939	2034	1923	1982	1982	2027	2022	2010	2022	1943	1987	1938	1959	2004	1970	1902	1946	2023	1910	1939	1910	1975	1890	1998	1927	1962	1967	1915	1911	1944	1887	1975	1891	1878	1947	1958	1955	1979	1895	1879	1894	1970	1959	1864	1910	1863	1966	1950	1834	1947	1966	1894	1887	1858	1922	1926	1895	1906	1867	1879	1846	1875	1819	1887	1899	1859	1926	1860	1835	1854	1850	1903	1919	1798	1848	1914	1799	1883	1818	1891	1852	1876	1871	1878	1806	1786	1866	1794	1886	1850	1779	1822	1799	1763	1742	1815	1762	1751	1734	1819	1783	1771	1815	1751	1714	1803	1719	1751	1755	1787	1802	1803	1718	1706	1707	1715	1726	1799	1699	1776	1695	1767	1678	1795	1759	1756	1727	1771	1690	1774	1690	1794	1683	1679	1762	1694	1698	1732	1794	1794	1682	1679	1794	1710	1775	1767	1687	1762	1695	1691	1794	1775	1731	1739	1723	1695	1779	1806	1746	1782	1830	1770	1718	1819	1798	1735	1795	1834	1819	1722	1851	1859	1855	1747	1763	1767	1771	1838	1839	1819	1806	1815	1923	1819	1846	1851	1950	1906	1878	1930	2006	2007	2007	2047	1979	2086	2034	2027	2150	2090	2138	2103	2143	2259	2255	2195	2330	2355	2392	2307	2395	2358	2451	2519	2502	2530	2591	2523	2571	2667	2659	2644	2767	2715	2743	2778	2895	2862	2955	2878	2922	2915	3059	3087	2983	3039	3142	3066	3087	3214	3214	3183	3243	3271	3267	3211	3295	3243	3295	3363	3328	3302	3395	3422	3326	3399	3451	3343	3455	3371	3410	3415	3379	3387	3395	3451	3487	3495	3407	3399	3510	3431	3414	3519	3430	3442	3442	3426	3399	3431	3478	3490	3391	3419	3379	3480	3355	3398	3387	3347	3434	3434	3363	3395	3423	3311	3379	3299	3402	3415	3383	3319	3303	3255	3271	3347	3263	3251	3303	3343	3247	3227	3318	3318	3283	3195	3300	3207	3255	3230	3163	3267	3159	3223	3239	3247	3151	3152	3143	3203	3135	3192	3158	3150	3083	3145	3096	3151	3162	3098	3094	3083	3059	3126	3134	3155	3067	3151	3138	3123	3027	3043	3024	3019	3095	3051	3060	2999	3111	3114	3103	3051	3050	3003	2994	3014	3095	2967	2987	3071	3018	2966	2976	3024	3030	3030	3067	3006	3040	3058	2986	2951	3019	2935	2995	2935	3015	2948	2927	2987	2926	2927	2903	2974	2971	2879	2971	2923	2938	2867	2859	2911	2951	2839	2919	2895	2831	2903	2899	2891	2791	2799	2786	2863	2763	2847	2799	2818	2766	2779	2743	2711	2699	2722	2706	2770	2707	2659	2719	2642	2710	2703	2634	2654	2659	2699	2642	2623	2575	2638	2662	2562	2547	2562	2547	2530	2554	2571	2630	2522	2506	2563	2599	2583	2547	2483	2575	2567	2571	2554	2542	2459	2542	2539	2539	2438	2534	2427	2519	2427	2471	2503	2515	2502	2399	2471	2499	2462	2474	2431	2383	2439	2395	2379	2391	2360	2415	2354	2418	2455	2419	2403	2367	2335	2351	2358	2435	2398	2322	2398	2312	2419	2359	2319	2335	2322	2327	2410	2379	2291	2302	2296	2362	2343	2331	2386	2299	2362	2262	2275	2378	2375	2303	2339	2279	2254	2275	2350	2287	2319	2274	2335	2227	2331	2319	2327	2230	2243	2278	2200	2215	2223	2267	2235	2287	2298	2171	2274	2179	2270	2262	2235	2155	2179	2203	2230	2203	2222	2190	2219	2146	2206	2123	2151	2127	2135	2183	2202	2124	2115	2099	2166	2175	2166	2091	2078	2176	2103	2163	2098	2075	2107	2081	2075	2043	2147	2087	2099	2038	2063	2107	2119	2123	2104	2083	2062	2085	2046	2075	2074	1987	2019	1971	2011	2007	1978	2070	2055	2071	2042	2003	2058	1983	2011	1935	2039	1923	1943	2006	1931	1983	1955	1967	1907	1922	1951	1926	2007	1955	1938	1934	1947	1934	1895	1903	1950	1898	1910	1995	1893	1892	1911	1977	1978	1955	1878	1939	1874	1874	1907	1875	1934	1898	1890	1851	1959	1882	1918	1867	1882	1962	1947	1851	1910	1907	1952	1846	1886	1919	1939	1867	1935	1922	1927	1847	1847	1832	1807	1839	1826	1851	1814	1809	1811	1795	1847	1843	1800	1811	1871	1896	1779	1827	1839	1843	1790	1883	1799	1831	1787	1796	1767	1814	1839	1770	1770	1808	1787	1755	1751	1758	1831	1759	1823	1750	1747	1763	1763	1742	1750	1727	1824	1819	1831	1822	1839	1811	1786	1759	1803	1737	1730	1746	1703	1746	1791	1795	1751	1750	1730	1694	1775	1683	1711	1783	1718	1679	1742	1763	1683	1666	1730	1703	1766	1695	1747	1765	1738	1662	1646	1659	1634	1751	1734	1635	1635	1726	1738	1726	1652	1718	1619	1623	1670	1715	1718	1715	1674	1626	1718	1703	1711	1679	1601	1714	1627	1630	1651	1667	1626	1594	1699	1598	1627	1607	1703	1708	1626	1634	1682	1675	1707	1631	1594	1603	1702	1670	1690	1611	1595	1663	1619	1699	1695	1699	1675	1634	1711	1709	1647	1716	1694	1598	1610	1662	1731	1634	1746	1642	1646	1691	1663	1778	1703	1690	1746	1731	1831	1830	1783	1899	1803	1827	1903	1962	1963	1910	1947	1971	2067	1986	2114	2123	2154	2119	2231	2142	2254	2278	2303	2287	2335	2306	2411	2379	2483	2435	2515	2595	2599	2675	2659	2719	2687	2679	2755	2744	2863	2819	2839	2843	2927	2974	2975	2930	3058	2995	2995	3142	3063	3190	3194	3143	3239	3170	3187	3198	3303	3335	3291	3277	3363	3306	3350	3319	3355	3403	3374	3459	3407	3478	3415	3375	3398	3443	3402	3471	3471	3475	3438	3547	3451	3515	3499	3443	3446	3518	3518	3443	3462	3450	3555	3487	3463	3547	3563	3538	3539	3450	3535	3527	3419	3458	3518	3415	3518	3426	3432	3435	3443	3507	3431	3398	3483	3438	3435	3471	3387	3466	3439	3455	3370	3351	3395	3466	3370	3355	3359	3359	3427	3376	3367	3323	3402	3315	3335	3346	3354	3327	3306	3351	3375	3339	3315	3315	3283	3267	3275	3359	3347	3318	3354	3319	3233	3314	3331	3311	3287	3222	3315	3295	3303	3233	3199	3246	3295	3198	3283	3278	3175	3183	3159	3226	3166	3158	3211	3247	3246	3222	3135	3127	3211	3191	3130	3103	3175	3163	3159	3131	3091	3159	3095	3127	3048	3083	3027	3055	3122	3018	3090	2987	2988	2970	3078	2963	2974	3006	2949	3031	2998	2907	2890	2883	2879	2859	2878	2914	2838	2903	2843	2902	2895	2879	2791	2790	2855	2843	2775	2747	2739	2699	2758	2735	2719	2659	2699	2651	2639	2703	2623	2635	2639	2703	2579	2576	2671	2559	2574	2603	2527	2638	2526	2600	2539	2531	2495	2483	2591	2547	2475	2574	2467	2463	2542	2467	2551	2543	2466	2507	2535	2439	2431	2531	2431	2455	2435	2510	2502	2418	2491	2477	2523	2518	2503	2498	2431	2486	2507	2438	2407	2515	2463	2446	2486	2423	2422	2427	2415	2495	2487	2475	2491	2434	2458	2495	2528	2471	2431	2519	2535	2550	2484	2450	2482	2539	2523	2439	2502	2487	2447	2562	2439	2543	2507	2475	2491	2559	2527	2468	2542	2458	2462	2527	2487	2495	2479	2442	2479	2523	2466	2550	2527	2504	2542	2539	2499	2503	2531	2426	2439	2498	2482	2499	2399	2467	2491	2500	2494	2455	2399	2370	2475	2475	2395	2371	2382	2395	2370	2346	2327	2383	2367	2319	2371	2386	2314	2359	2403	2358	2314	2303	2270	2263	2322	2365	2247	2359	2303	2335	2231	2247	2296	2227	2291	2206	2291	2246	2259	2294	2207	2214	2255	2175	2191	2154	2206	2259	2168	2162	2159	2175	2207	2134	2194	2118	2223	2170	2142	2175	2104	2202	2171	2114	2083	2079	2075	2162	2082	2155	2147	2062	2127	2118	2106	2047	2078	2126	2115	2055	2063	2035	2043	2110	2107	2023	2115	2087	2027	2135	2054	2127	2110	2075	1994	2063	2004	2078	2047	2006	2079	2103	2007	2091	2079	2079	1987	2003	1992	2046	1978	2015	2011	1987	2028	1979	2028	1967	1955	1963	2051	2019	1958	2034	1991	2019	1967	2010	1947	1954	2047	1967	1935	2043	1987	1982	2042	1999	1990	2002	1935	1936	1927	1948	2023	2023	1946	2018	1951	1955	2011	2022	1983	1947	1955	1946	2007	1909	1942	1963	2010	1899	1942	2002	1891	2003	1954	1987	1890	1927	1979	1939	1955	1982	1963	1874	1947	1958	1954	1909	1899	1931	1947	1931	1842	1867	1882	1875	1919	1831	1819	1831	1895	1826	1878	1891	1790	1843	1847	1866	1814	1888	1890	1855	1778	1799	1759	1846	1833	1764	1770	1743	1799	1831	1734	1791	1806	1836	1775	1738	1822	1718	1711	1699	1735	1687	1707	1719	1762	1758	1770	1786	1774	1744	1771	1746	1767	1743	1658	1658	1667	1747	1710	1718	1750	1683	1718	1751	1747	1646	1642	1646	1731	1654	1671	1752	1774	1650	1663	1782	1686	1711	1742	1787	1755	1770	1735	1731	1767	1823	1879	1802	1898	1826	1915	1867	1959	1999	2023	2043	2074	2094	2079	2136	2064	2171	2167	2130	2166	2207	2251	2356	2396	2394	2378	2463	2419	2534	2478	2534	2526	2571	2579	2651	2642	2673	2799	2815	2875	2870	2927	2927	2931	2938	2935	2971	3087	3102	3122	3119	3115	3207	3143	3214	3171	3191	3291	3215	3242	3323	3327	3283	3367	3415	3350	3331	3346	3422	3483	3438	3439	3442	3479	3438	3483	3439	3563	3487	3538	3466	3482	3507	3582	3562	3510	3546	3536	3608	3506	3575	3562	3591	3515	3596	3503	3539	3518	3519	3528	3543	3554	3559	3495	3539	3578	3491	3488	3491	3496	3507	3586	3583	3579	3571	3479	3543	3480	3543	3463	3523	3451	3566	3451	3559	3463	3491	3535	3431	3467	3454	3435	3539	3435	3530	3487	3435	3474	3431	3483	3435	3491	3403	3399	3435	3482	3402	3367	3463	3438	3366	3386	3435	3379	3346	3399	3403	3331	3447	3326	3411	3415	3323	3310	3323	3415	3303	3327	3391	3275	3295	3379	3355	3302	3295	3359	3363	3267	3275	3334	3362	3262	3254	3279	3355	3299	3279	3338	3215	3330	3290	3319	3294	3310	3255	3238	3247	3199	3214	3262	3247	3250	3267	3155	3142	3234	3195	3115	3115	3194	3211	3163	3100	3158	3068	3107	3119	3123	3047	3019	3027	3055	3107	3086	3043	3071	2983	2990	3042	2963	2922	2983	3019	2974	2991	2903	2866	2875	2946	2871	2850	2859	2830	2914	2807	2846	2863	2794	2839	2810	2750	2751	2855	2778	2755	2775	2723	2791	2719	2747	2695	2778	2699	2771	2675	2686	2663	2766	2711	2654	2639	2670	2715	2647	2627	2718	2623	2735	2679	2731	2675	2611	2707	2599	2675	2627	2619	2651	2703	2610	2603	2582	2683	2659	2607	2679	2675	2626	2666	2559	2554	2595	2566	2547	2551	2655	2606	2591	2538	2542	2602	2522	2627	2528	2519	2551	2530	2611	2583	2606	2523	2611	2539	2599	2503	2495	2595	2571	2519	2555	2511	2574	2539	2503	2566	2455	2516	2555	2447	2458	2446	2443	2482	2487	2411	2443	2415	2438	2400	2494	2395	2395	2386	2495	2478	2446	2407	2386	2359	2395	2347	2414	2407	2382	2439	2423	2327	2319	2415	2379	2303	2395	2398	2363	2307	2298	2359	2327	2347	2326	2243	2227	2306	2286	2291	2303	2294	2311	2279	2182	2271	2291	2186	2191	2183	2255	2211	2239	2227	2131	2143	2223	2178	2215	2184	2147	2199	2139	2078	2111	2078	2075	2170	2102	2058	2119	2047	2122	2107	2007	2039	2019	2014	2002	1987	2083	2035	1983	1975	1991	1986	2007	2051	1991	1966	1954	2007	1999	2031	1943	2011	1943	1998	1923	1975	1935	1902	1906	1895	1919	1906	1991	1928	1939	1979	1979	1935	1962	1958	1951	1975	1875	1915	1850	1855	1938	1834	1864	1859	1858	1910	1898	1851	1926	1948	1942	1854	1863	1846	1946	1939	1951	1942	1867	1871	1946	1947	1834	1834	1859	1891	1851	1850	1923	1834	1836	1839	1866	1914	1831	1896	1895	1858	1926	1863	1902	1915	1795	