2139	2198	2139	2226	2235	2266	2222	2196	2311	2299	2282	2346	2387	2366	2395	2458	2439	2455	2475	2459	2571	2497	2595	2535	2639	2638	2643	2746	2710	2675	2699	2811	2806	2812	2779	2839	2854	2831	2963	2912	2943	2902	2978	3027	2983	2971	2982	2967	3071	3087	3030	3055	3043	3062	3095	3119	3162	3114	3115	3178	3187	3147	3167	3259	3206	3159	3239	3171	3246	3182	3235	3255	3275	3195	3202	3251	3267	3283	3194	3303	3206	3183	3275	3191	3198	3182	3282	3275	3191	3160	3203	3235	3255	3187	3251	3158	3223	3155	3235	3139	3159	3207	3107	3087	3191	3087	3134	3054	3071	3170	3154	3094	3143	3147	3098	3111	3123	3000	3054	2999	2978	3070	3046	2967	2939	3031	2963	2963	2944	2915	2914	3002	2958	2887	2910	2994	2927	2866	2922	2931	2838	2832	2851	2826	2847	2903	2799	2802	2842	2831	2799	2786	2770	2763	2810	2758	2807	2851	2731	2759	2835	2814	2779	2759	2742	2719	2699	2674	2694	2675	2742	2735	2667	2731	2663	2750	2743	2639	2675	2634	2618	2722	2614	2642	2655	2578	2671	2654	2686	2575	2563	2674	2619	2563	2562	2627	2542	2615	2542	2530	2575	2531	2510	2496	2503	2502	2483	2583	2574	2559	2507	2454	2542	2503	2554	2507	2439	2510	2526	2507	2455	2495	2490	2471	2475	2431	2427	2386	2435	2467	2470	2367	2359	2467	2450	2371	2367	2355	2419	2347	2434	2407	2414	2303	2351	2410	2322	2287	2303	2310	2367	2363	2383	2331	2403	2371	2358	2398	2375	2335	2311	2367	2299	2286	2379	2283	2386	2291	2306	2295	2290	2302	2363	2399	2360	2323	2311	2342	2415	2355	2335	2278	2382	2395	2311	2371	2367	2391	2303	2414	2314	2406	2323	2318	2414	2339	2386	2410	2303	2319	2419	2338	2322	2415	2320	2346	2416	2379	2386	2403	2323	2358	2335	2383	2382	2374	2346	2355	2434	2318	2355	2386	2383	2330	2339	2342	2403	2351	2324	2306	2362	2391	2410	2370	2364	2371	2398	2302	2319	2374	2399	2335	2343	2343	2319	2367	2394	2323	2375	2294	2375	2378	2375	2399	2307	2330	2343	2322	2318	2306	2275	2327	2255	2279	2335	2355	2330	2227	2331	2243	2331	2327	2311	2255	2318	2339	2219	2308	2271	2266	2306	2194	2191	2252	2282	2195	2219	2255	2252	2170	2262	2262	2183	2150	2202	2259	2218	2126	2126	2113	2127	2112	2223	2090	2103	2211	2134	2107	2086	2099	2199	2079	2139	2079	2099	2095	2134	2139	2035	2162	2151	2043	2135	2022	2107	2098	2119	2010	2119	2115	2011	2111	2067	2006	2114	2039	2087	2014	2096	2043	1974	2067	1970	1998	2063	1980	1975	1975	2030	1963	1994	2010	1935	1958	1955	2000	1947	2006	2007	1947	2039	1991	1907	2023	1999	1954	1919	1915	1999	1942	1947	1982	1955	1991	1918	1902	1936	1990	1999	1971	1883	1893	1975	1974	1871	1959	1859	1962	1878	1851	1847	1915	1947	1898	1935	1855	1850	1847	1943	1899	1862	1835	1858	1838	1875	1843	1883	1852	1834	1875	1827	1907	1887	1910	1838	1826	1855	1843	1903	1814	1859	1815	1922	1846	1807	1867	1838	1855	1802	1851	1918	1835	1795	1843	1922	1811	1819	1799	1822	1895	1849	1875	1843	1851	1799	1855	1854	1874	1887	1850	1887	1818	1871	1839	1907	1842	1812	1827	1836	1863	1782	1858	1839	1822	1798	1830	1822	1842	1820	1862	1906	1795	1851	1838	1798	1886	1791	1831	1874	1827	1854	1799	1842	1895	1843	1847	1839	1786	1871	1807	1798	1831	1806	1794	1891	1902	1834	1806	1835	1790	1897	1895	1891	1887	1882	1834	1803	1841	1831	1791	1826	1826	1863	1910	1803	1883	1818	1822	1803	1811	1807	1847	1794	1847	1887	1898	1798	1814	1875	1915	1918	1914	1804	1915	1858	1922	1844	1803	1918	1914	1802	1808	1894	1790	1911	1903	1906	1886	1882	1799	1886	1903	1842	1891	1811	1919	1811	1902	1839	1883	1814	1911	1790	1911	1799	1887	1798	1886	1831	1863	1823	1899	1921	1830	1939	1923	1875	1846	1886	1915	1944	1938	1835	1875	1927	1858	1967	1982	1986	1987	1930	1907	1927	1934	1978	2075	2035	2011	2051	2119	2058	2051	2083	2118	2134	2127	2201	2263	2198	2250	2295	2366	2367	2343	2435	2351	2371	2482	2539	2546	2583	2483	2583	2570	2547	2571	2600	2663	2715	2766	2750	2727	2743	2779	2798	2826	2947	2850	2942	2931	2991	2927	3038	2982	2991	3091	3099	3038	3042	3171	3083	3202	3199	3134	3195	3151	3231	3214	3207	3232	3298	3267	3231	3227	3251	3259	3251	3332	3367	3347	3306	3347	3362	3358	3331	3395	3299	3339	3407	3395	3351	3347	3375	3414	3358	3411	3311	3387	3307	3403	3339	3322	3378	3331	3415	3359	3303	3403	3319	3354	3283	3399	3327	3367	3291	3300	3248	3306	3304	3359	3351	3259	3307	3323	3239	3266	3271	3303	3203	3280	3278	3270	3194	3258	3235	3131	3163	3202	3118	3107	3178	3223	3107	3095	3110	3087	3183	3110	3054	3055	3091	3034	3099	3010	3014	3058	3102	2974	3066	3079	3083	3083	2963	2959	3067	2967	3063	3051	3026	3043	2918	3028	2919	2895	2891	3002	2959	2907	2886	2955	2995	2927	2871	2931	2943	2866	2954	2947	2842	2867	2920	2878	2922	2863	2866	2810	2879	2846	2895	2871	2806	2903	2859	2798	2810	2863	2874	2771	2862	2847	2739	2755	2726	2831	2830	2711	2707	2770	2730	2727	2803	2766	2726	2695	2730	2767	2755	2744	2707	2641	2607	2611	2599	2686	2579	2591	2583	2610	2646	2670	2654	2643	2658	2646	2591	2619	2535	2530	2535	2511	2595	2567	2591	2524	2487	2599	2559	2562	2586	2546	2503	2555	2551	2472	2574	2527	2491	2550	2467	2507	2563	2486	2447	2519	2471	2527	2483	2495	2499	2475	2559	2554	2523	2470	2547	2487	2486	2486	2559	2511	2551	2530	2486	2518	2494	2523	2519	2542	2475	2459	2567	2470	2552	2523	2550	2487	2514	2571	2507	2563	2495	2479	2511	2559	2567	2511	2488	2479	2539	2531	2515	2591	2563	2567	2567	2503	2494	2522	2502	2571	2518	2535	2603	2487	2495	2558	2526	2530	2495	2499	2520	2539	2507	2574	2607	2631	2519	2487	2492	2519	2598	2518	2554	2514	2511	2587	2490	2578	2486	2543	2490	2479	2587	2522	2591	2567	2471	2554	2454	2462	2567	2531	2435	2423	2487	2487	2526	2442	2551	2419	2475	2430	2527	2416	2519	2502	2463	2447	2414	2391	2482	2458	2423	2431	2458	2471	2368	2430	2430	2355	2387	2395	2334	2399	2442	2334	2319	2331	2295	2299	2303	2343	2371	2323	2319	2295	2331	2351	2322	2295	2367	2283	2310	2255	2262	2263	2338	2234	2223	2287	2184	2187	2174	2176	2223	2195	2206	2162	2152	2163	2215	2151	2246	2215	2214	2138	2227	2114	2222	2111	2111	2203	2191	2179	2195	2083	2207	2095	2071	2195	2151	2079	2066	2123	2162	2078	2083	2178	2166	2079	2139	2122	2123	2078	2126	2026	2135	2139	2043	2130	2043	2039	2083	2123	2127	2031	2070	2011	2102	2083	2075	2011	2074	2006	2075	2022	2038	1983	2022	1998	2066	1998	2066	2119	1991	2010	2023	1991	2023	2091	2090	2079	1987	2078	2075	1998	2063	2083	2018	1991	2087	2023	1999	2027	1963	1990	1975	2015	2027	1963	2046	2070	1974	1990	2035	1947	1943	2003	1986	2015	2043	1943	1961	1963	2007	2058	2035	2031	1995	1929	2042	1938	1919	2031	1978	2030	1999	1924	2030	1926	2055	2022	1955	1923	1991	2051	1974	1974	1995	1927	1955	1955	1923	1999	1906	2007	1906	1915	1934	2015	2015	1930	2017	2003	1927	1914	1991	1970	1993	1959	1915	1919	1903	1983	1906	1987	1898	1887	1903	1974	1962	1911	1902	1939	1994	1966	1994	1991	1990	1899	1913	1935	1927	1927	1906	1991	1995	1922	1939	1947	1943	1931	2011	1907	2027	1922	1939	2006	1950	1910	1906	1902	1952	1935	1987	1972	2027	2004	1943	1962	2059	2051	2075	2095	2075	2022	2047	2026	2039	2038	2151	2099	2126	2159	2207	2202	2231	2226	2271	2306	2250	2354	2336	2275	2415	2319	2447	2459	2439	2487	2499	2423	2451	2471	2487	2567	2647	2646	2692	2643	2746	2671	2735	2750	2823	2759	2854	2775	2795	2855	2831	2883	2867	2935	2979	3010	2935	3050	3023	2999	3038	3126	3054	3054	3103	3199	3195	3143	3130	3122	3223	3159	3163	3278	3179	3315	3247	3214	3287	3258	3366	3259	3375	3295	3339	3283	3363	3287	3378	3299	3294	3307	3303	3395	3403	3318	3303	3403	3423	3327	3411	3339	3417	3327	3318	3390	3355	3342	3395	3387	3423	3302	3411	3318	3358	3299	3327	3387	3391	3395	3323	3275	3303	3319	3366	3286	3242	3287	3227	3304	3331	3222	3291	3259	3303	3258	3235	3259	3278	3279	3279	3175	3251	3224	3135	3183	3222	3194	3168	3135	3160	3098	3139	3191	3134	3159	3079	3166	3082	3159	3142	3091	3074	3106	3038	3039	3095	3095	3086	2999	2999	3031	3083	3003	3051	3071	3062	2955	2963	2979	2955	2970	2959	2983	2952	2938	3024	2911	2930	2947	2942	2987	2883	2951	2991	2915	2919	2911	2947	2890	2970	2983	2871	2922	2963	2975	2880	2847	2871	2870	2926	2819	2814	2811	2859	2842	2879	2915	2891	2791	2808	2787	2771	2851	2832	2770	2855	2839	2827	2734	2830	2755	2730	2750	2731	2742	2675	2682	2746	2706	2755	2683	2766	2667	2743	2646	2699	2635	2619	2682	2723	2654	2623	2691	2619	2671	2622	2611	2607	2675	2568	2607	2563	2610	2666	2611	2578	2655	2578	2647	2571	2519	2602	2610	2615	2623	2551	2567	2627	2574	2514	2595	2610	2586	2539	2531	2614	2507	2599	2503	2526	2514	2582	2547	2495	2595	2590	2514	2599	2550	2570	2571	2512	2639	2522	2514	2519	2626	2531	2518	2574	2614	2547	2623	2519	2611	2611	2531	2639	2614	2606	2595	2659	2550	2658	2655	2639	2583	2547	2623	2659	2647	2555	2587	2550	2662	2571	2663	2566	2583	2683	2634	2611	2650	2647	2679	2662	2667	2675	2576	2671	2666	2599	2550	2551	2662	2611	2635	2550	2647	2583	2579	2671	2659	2594	2563	2631	2619	2647	2571	2635	2627	2646	2538	2614	2531	2639	2570	2555	2511	2623	2638	2627	2630	2515	2538	2599	2551	2590	2491	2587	2567	2491	2482	2551	2571	2486	2547	2550	2475	2448	2447	2539	2530	2527	2510	2515	2454	2427	2435	2494	2407	2398	2406	2415	2483	2474	2375	2447	2387	2503	2486	2367	2391	2459	2475	2448	2351	2366	2448	2450	2366	2383	2326	2415	2338	2346	2427	2362	2315	2315	2375	2319	2354	2408	2299	2314	2339	2359	2270	2315	2271	2370	2279	2370	2271	2271	2366	2274	2346	2347	2259	2319	2259	2243	2355	2291	2231	2255	2223	2226	2315	2295	2291	2215	2222	2202	2200	2240	2314	2235	2219	2307	2262	2195	2267	2183	2259	2295	2259	2167	2291	2286	2254	2183	2167	2255	2214	2198	2211	2191	2243	2263	2263	2194	2158	2154	2144	2155	2199	2231	2218	2219	2142	2162	2174	2186	2122	2143	2210	2118	2118	2135	2154	2143	2111	2174	2191	2091	2119	2202	2083	2120	2171	2107	2106	2115	2203	2194	2087	2151	2123	2162	2134	2127	2166	2150	2051	2051	2111	2170	2050	2135	2098	2035	2075	2056	2151	2072	2067	2167	2083	2027	2143	2035	2123	2026	2083	2118	2082	2055	2015	2123	2063	2090	2130	2131	2110	2018	2118	2027	2096	2032	2007	2043	2111	2008	1992	2002	2110	2090	2071	2091	2067	1999	1979	2010	2006	1990	2030	2110	1999	1998	1994	1979	2039	2046	2098	2059	2095	2078	2037	2051	1975	2011	2067	2071	2078	2066	2017	2095	1998	2075	2027	2082	1987	2054	2007	2087	2082	2090	2107	2055	2062	2106	2123	2138	2059	2070	2155	2134	2107	2055	2114	2194	2203	2223	2114	2131	2181	2179	2166	2210	2307	2247	2311	2271	2280	2379	2314	2367	2459	2454	2466	2435	2475	2519	2463	2490	2519	2558	2627	2655	2595	2719	2758	2767	2775	2746	2802	2882	2787	2914	2903	2851	2978	2875	2950	2915	2943	2951	2971	3019	3015	3027	3115	3131	3118	3115	3202	3251	3219	3211	3176	3183	3275	3314	3203	3222	3351	3247	3247	3339	3382	3390	3348	3311	3347	3423	3422	3343	3379	3411	3354	3447	3351	3403	3350	3422	3448	3419	3467	3399	3398	3470	3355	3370	3391	3426	3495	3482	3463	3426	3431	3474	3430	3434	3419	3438	3342	3431	3367	3387	3350	3335	3383	3295	3306	3351	3403	3287	3386	3355	3291	3362	3355	3347	3347	3298	3218	