2947	2903	2939	2995	2887	2890	2954	2971	2899	2882	2866	2842	2863	2886	2831	2822	2838	2827	2810	2826	2835	2867	2798	2763	2823	2759	2839	2763	2843	2784	2815	2750	2760	2766	2746	2711	2711	2679	2791	2663	2654	2720	2655	2627	2634	2690	2718	2707	2615	2675	2695	2627	2615	2698	2719	2687	2646	2671	2674	2558	2555	2606	2623	2622	2547	2614	2539	2627	2654	2523	2531	2631	2555	2574	2591	2611	2570	2555	2563	2563	2630	2523	2563	2518	2535	2519	2519	2539	2623	2615	2567	2507	2515	2623	2523	2619	2579	2558	2515	2551	2628	2539	2547	2542	2535	2544	2607	2622	2631	2602	2651	2538	2583	2618	2547	2551	2574	2655	2552	2603	2554	2595	2627	2550	2579	2670	2555	2623	2594	2595	2619	2671	2686	2642	2674	2638	2619	2704	2714	2615	2603	2591	2602	2680	2619	2599	2703	2710	2599	2603	2623	2655	2664	2707	2695	2683	2607	2603	2611	2659	2706	2658	2671	2611	2610	2586	2674	2647	2606	2699	2710	2690	2576	2603	2582	2631	2579	2678	2579	2546	2639	2550	2647	2610	2655	2558	2654	2531	2654	2648	2618	2602	2622	2639	2543	2627	2503	2512	2498	2586	2499	2603	2555	2554	2566	2478	2464	2567	2570	2459	2526	2543	2527	2527	2478	2543	2435	2463	2442	2507	2527	2419	2418	2495	2490	2470	2438	2386	2415	2407	2390	2379	2383	2446	2446	2383	2366	2363	2423	2359	2326	2427	2399	2419	2403	2403	2311	2371	2383	2415	2352	2303	2311	2302	2310	2306	2298	2331	2266	2359	2283	2343	2270	2287	2275	2351	2359	2279	2256	2337	2239	2294	2250	2282	2290	2290	2230	2299	2219	2251	2263	2239	2243	2223	2228	2211	2291	2295	2291	2187	2287	2253	2191	2299	2199	2187	2166	2278	2291	2271	2203	2222	2231	2268	2203	2182	2241	2238	2246	2255	2191	2239	2166	2147	2194	2255	2234	2182	2239	2235	2118	2210	2142	2171	2223	2211	2198	2219	2219	2227	2179	2191	2118	2154	2116	2186	2118	2162	2216	2195	2207	2082	2103	2152	2195	2090	2147	2182	2095	2198	2151	2198	2123	2147	2211	2207	2091	2200	2200	2199	2190	2131	2080	2083	2143	2154	2090	2106	2207	2163	2175	2091	2194	2123	2083	2083	2191	2169	2186	2146	2083	2070	2088	2140	2182	2111	2079	2099	2074	2071	2139	2098	2086	2163	2191	2091	2175	2107	2163	2070	2123	2119	2123	2066	2171	2083	2078	2063	2103	2151	2075	2155	2179	2070	2122	2115	2183	2095	2075	2107	2179	2163	2142	2170	2175	2174	2078	2087	2151	2054	2143	2123	2175	2106	2151	2147	2079	2167	2067	2162	2154	2178	2119	2091	2095	2136	2183	2075	2190	2155	2180	2103	2146	2167	2158	2191	2207	2115	2238	2130	2239	2223	2142	2222	2179	2182	2314	2279	2275	2358	2375	2383	2423	2331	2459	2387	2383	2409	2423	2554	2458	2462	2611	2595	2582	2623	2699	2623	2719	2678	2823	2775	2767	2899	2806	2830	2942	2903	2979	3026	3042	3051	3039	3030	3143	3170	3091	3191	3255	3155	3174	3207	3291	3339	3278	3383	3338	3323	3387	3367	3387	3389	3431	3435	3548	3438	3470	3555	3483	3507	3570	3522	3654	3614	3599	3591	3682	3591	3622	3602	3663	3614	3607	3623	3626	3634	3642	3746	3690	3751	3723	3731	3759	3783	3759	3671	3719	3771	3727	3707	3651	3711	3662	3635	3711	3647	3635	3731	3739	3655	3655	3663	3642	3642	3627	3615	3718	3703	3614	3583	3593	3571	3639	3675	3547	3663	3622	3546	3531	3643	3511	3614	3518	3547	3587	3527	3496	3571	3568	3559	3551	3427	3507	3411	3511	3443	3498	3400	3432	3386	3398	3414	3467	3451	3446	3367	3326	3307	3326	3294	3335	3322	3275	3295	3315	3307	3228	3223	3335	3227	3324	3267	3291	3246	3207	3263	3163	3275	3166	3251	3266	3143	3115	3183	3147	3107	3179	3162	3103	3195	3151	3150	3078	3099	3155	3059	3039	3063	3142	3094	3119	3055	2995	3034	3103	3082	2979	3086	2983	3067	2979	3002	3007	3063	3026	2951	2926	2947	2911	2987	2919	2998	2894	2887	2967	2870	2875	2883	2954	2847	2943	2831	2866	2815	2827	2871	2795	2783	2786	2839	2743	2770	2791	2791	2731	2787	2827	2779	2719	2722	2791	2755	2755	2679	2670	2761	2767	2647	2750	2647	2631	2631	2726	2730	2687	2611	2607	2623	2671	2662	2683	2686	2711	2646	2598	2690	2606	2615	2607	2687	2635	2658	2679	2595	2578	2591	2615	2591	2570	2671	2575	2634	2571	2579	2586	2639	2583	2563	2594	2567	2562	2566	2647	2583	2582	2602	2583	2674	2662	2595	2695	2595	2707	2606	2598	2686	2607	2587	2710	2666	2607	2627	2643	2694	2587	2719	2694	2631	2738	2679	2671	2687	2671	2680	2666	2702	2707	2671	2710	2619	2626	2734	2631	2722	2727	2695	2666	2647	2698	2694	2696	2632	2671	2714	2715	2734	2651	2635	2735	2607	2707	2606	2606	2715	2662	2638	2674	2639	2675	2615	2607	2719	2727	2714	2690	2608	2610	2599	2703	2579	2643	2643	2655	2670	2691	2683	2579	2611	2634	2599	2611	2659	2631	2682	2671	2587	2538	2535	2546	2559	2559	2530	2535	2574	2619	2523	2607	2506	2591	2586	2507	2514	2594	2595	2587	2591	2483	2534	2503	2456	2440	2439	2479	2499	2526	2474	2427	2459	2459	2491	2529	2459	2403	2527	2427	2418	2503	2396	2463	2455	2447	2358	2362	2400	2466	2447	2463	2462	2367	2398	2350	2379	2443	2342	2447	2334	2386	2320	2332	2310	2395	2366	2315	2399	2320	2298	2395	2411	2299	2287	2379	2287	2386	2358	2322	2351	2270	2354	2247	2246	2339	2246	2318	2244	2223	2227	2279	2231	2342	2335	2310	2227	2223	2247	2266	2231	2255	2251	2271	2242	2222	2235	2183	2270	2215	2175	2218	2270	2198	2183	2179	2295	2179	2172	2171	2255	2186	2242	2162	2159	2148	2198	2135	2263	2147	2223	2195	2135	2142	2147	2203	2146	2131	2214	2263	2175	2175	2187	2223	2163	2127	2152	2145	2175	2214	2124	2122	2167	2251	2238	2128	2227	2143	2148	2119	2219	2114	2103	2102	2202	2078	2167	2115	2087	2170	2099	2127	2127	2214	2199	2095	2146	2183	2102	2203	2211	2088	2134	2192	2079	2079	2159	2163	2082	2159	2075	2122	2111	2154	2119	2199	2134	2154	2100	2151	2104	2162	2123	2070	2074	2098	2122	2147	2075	2175	2086	2078	2187	2194	2091	2114	2166	2163	2203	2190	2151	2063	2074	2104	2127	2126	2087	2075	2160	2070	2115	2131	2067	2070	2095	2179	2187	2146	2151	2110	2059	2063	2150	2162	2171	2047	2116	2122	2047	2072	2059	2090	2167	2183	2174	2130	2159	2154	2183	2110	2098	2154	2163	2064	2114	2103	2059	2071	2147	2107	2195	2178	2201	2098	2111	2115	2207	2215	2190	2243	2215	2206	2275	2178	2258	2219	2295	2215	2342	2311	2383	2403	2355	2334	2367	2407	2403	2445	2511	2535	2558	2614	2611	2646	2670	2590	2690	2738	2670	2690	2799	2840	2835	2803	2867	2871	2918	3011	2914	3038	3025	2990	3050	3120	3039	3119	3079	3186	3251	3222	3258	3327	3303	3302	3283	3402	3335	3367	3347	3443	3367	3423	3411	3511	3499	3566	3486	3587	3523	3626	3551	3591	3563	3616	3623	3671	3719	3603	3619	3691	3695	3623	3627	3743	3631	3754	3638	3695	3695	3706	3714	3675	3723	3679	3703	3787	3762	3755	3699	3670	3664	3747	3743	3763	3662	3703	3651	3646	3747	3695	3714	3654	3631	3727	3671	3699	3707	3683	3671	3678	3690	3574	3607	3679	3543	3519	3623	3522	3510	3622	3614	3535	3526	3491	3582	3483	3558	3559	3543	3551	3514	3422	3411	3454	3447	3382	3371	3367	3454	3422	3459	3414	3415	3454	3407	3363	3344	3326	3303	3334	3303	3294	3350	3246	3291	3343	3254	3211	3263	3218	3211	3211	3179	3291	3207	3176	3267	3175	3139	3142	3135	3210	3187	3194	3139	3088	3178	3083	3123	3143	3087	3162	3063	3168	3163	3107	3131	3071	3110	3039	3099	2999	3011	3015	2990	3066	2967	2975	2986	3066	2958	3054	3066	2975	2963	3035	3034	2939	2923	2894	2995	2994	2963	2982	2883	2923	2950	2855	2850	2943	2935	2814	2827	2799	2810	2832	2879	2786	2778	2787	2798	2750	2787	2735	2739	2831	2763	2730	2827	2791	2695	2799	2784	2691	2755	2787	2767	2695	2719	2775	2663	2675	2647	2734	2679	2654	2643	2707	2623	2618	2627	2691	2631	2707	2727	2623	2630	2723	2710	2607	2619	2627	2710	2595	2701	2607	2622	2659	2590	2599	2687	2687	2591	2655	2623	2715	2679	2602	2715	2639	2608	2598	2699	2594	2699	2679	2678	2659	2619	2638	2655	2627	2730	2651	2711	2651	2659	2735	2634	2751	2670	2634	2743	2643	2623	2635	2679	2631	2747	2655	2750	2663	2651	2691	2755	2659	2659	2776	2687	2751	2763	2715	2738	2695	2699	2771	2699	2735	2659	2759	2682	2683	2707	2683	2683	2771	2710	2670	2758	2743	2655	2655	2707	2711	2634	2647	2642	2651	2663	2674	2698	2670	2679	2646	2651	2739	2647	2675	2626	2707	2655	2614	2684	2606	2651	2683	2579	2679	2647	2575	2578	2650	2635	2579	2602	2583	2607	2594	2579	2619	2574	2534	2622	2523	2570	2543	2539	2591	2598	2547	2499	2543	2515	2526	2599	2490	2527	2559	2494	2530	2567	2543	2555	2530	2512	2439	2427	2527	2439	2463	2410	2503	2511	2483	2498	2403	2399	2411	2499	2439	2486	2483	2411	2448	2366	2439	2399	2455	2372	2399	2363	2375	2451	2454	2335	2411	2315	2355	2335	2319	2331	2351	2355	2294	2291	2282	2347	2331	2322	2290	2374	2287	2263	2359	2259	2359	2367	2355	2347	2298	2223	2238	2319	2226	2235	2219	2314	2211	2206	2294	2194	2231	2198	2199	2315	2186	2274	2183	2219	2279	2183	2246	2183	2170	2259	2147	2251	2235	2155	2207	2224	2231	2247	2251	2195	2259	2207	2143	2162	2239	2216	2142	2177	2222	2111	2107	2182	2163	2110	2122	2103	2098	2114	2184	2099	2103	2096	2155	2203	2174	2175	2107	2147	2067	2174	2075	2079	2107	2110	2075	2074	2139	2163	2143	2134	2155	2143	2138	2110	2143	2058	2103	2151	2042	2086	2150	2151	2106	2066	2114	2119	2115	2043	2059	2147	2059	2095	2099	2047	2027	2139	2139	2023	2109	2083	2022	2040	2047	2134	2027	2143	2047	2035	2151	2114	2043	2110	2043	2054	2099	2098	2027	2130	2118	2082	2055	2118	2111	2010	2134	2079	2120	2091	2036	2135	2030	2136	2055	2042	2122	2095	2091	2059	2100	2023	2131	2018	2023	2098	2058	2022	2090	2022	2142	2087	2064	2139	2031	2078	2067	2035	2119	2123	2066	2119	2047	2022	2090	2111	2122	2011	2099	2127	2026	2123	2118	2127	2131	2015	2110	2002	2007	2074	2006	2011	2006	2012	2099	2003	2111	2086	2015	2018	2067	2098	2115	2103	2002	2015	2034	2034	1999	1988	2099	2038	2023	2075	2106	2083	2035	2123	2095	2072	2130	2070	2072	2107	2130	2091	2055	2023	2051	2031	2098	2046	2171	2083	2082	2187	2139	2223	2238	2168	2182	2167	2286	2203	2335	2250	2351	2271	2259	2306	2417	2430	2427	2462	2443	2423	2539	2587	2550	2639	2555	2611	2715	2711	2763	2786	2815	2743	2775	2882	2875	2875	2963	2867	3010	2914	3047	3071	3079	3079	3163	3174	3111	3222	3239	3215	3270	3280	3207	3290	3259	3278	3287	3359	3331	3432	3434	3479	3398	3518	3506	3455	3467	3495	3539	3519	3526	3591	3619	3627	3658	3583	3671	3627	3631	3703	3635	3671	3731	3738	3695	3642	3731	3747	3743	3640	3691	3731	3750	3627	3746	3686	3627	3734	3727	3699	3706	3743	3655	3735	3662	3666	3711	3626	3715	3687	3711	3586	3651	3662	3672	3618	3671	3606	3591	3568	3634	3650	3538	3643	3583	3574	3523	3543	3522	3486	3483	3495	3574	3451	3451	3479	3426	3472	3427	3427	3507	3500	3504	3359	3427	3411	3355	3414	3427	3395	3422	3399	3283	3302	3283	3343	3378	3311	3239	3238	3311	3227	3242	3279	3215	3219	3191	3183	3175	3227	3255	3154	3266	3235	3123	3151	3155	3119	3114	3203	3118	3107	3151	3079	3150	3187	3111	3166	3160	3055	3135	3022	3122	3015	3010	3091	3043	3079	3071	3071	3071	3002	3055	3079	3004	2979	2958	2967	3018	2939	3014	2955	2938	2906	2931	2987	2935	2982	2887	2874	2979	2887	2854	2850	2951	2879	2915	2830	2811	2811	2903	2902	2838	2862	2859	2787	2767	2743	2831	2811	2758	2726	2791	2831	2747	2695	2739	2691	2702	2758	2759	2646	2642	2639	2687	2690	