2231	2207	2242	2210	2283	2222	2256	2179	2183	2227	2211	2171	2218	2235	2166	2151	2151	2143	2162	2257	2219	2231	2126	2206	2120	2223	2111	2135	2226	2143	2219	2151	2159	2214	2147	2122	2143	2094	2123	2087	2167	2091	2115	2135	2139	2075	2171	2160	2146	2086	2191	2122	2098	2182	2120	2079	2119	2139	2095	2159	2055	2098	2123	2071	2069	2150	2171	2171	2054	2095	2154	2046	2124	2080	2063	2142	2114	2143	2095	2055	2082	2039	2055	2094	2075	2047	2054	2131	2123	2107	2150	2087	2087	2047	2151	2111	2147	2078	2115	2062	2107	2071	2094	2126	2134	2027	2078	2098	2139	2127	2030	2138	2043	2143	2047	2139	2043	2145	2138	2124	2090	2063	2110	2015	2055	2131	2058	2047	2035	2034	2038	2047	2054	2071	2058	2083	2065	2074	2143	2163	2114	2107	2174	2176	2126	2186	2187	2111	2167	2111	2175	2167	2151	2227	2263	2202	2230	2291	2339	2259	2374	2347	2411	2315	2374	2387	2390	2519	2455	2483	2588	2575	2539	2567	2691	2606	2683	2658	2731	2763	2830	2794	2795	2810	2867	2958	2939	2907	3022	3056	3062	3107	3062	3150	3071	3128	3115	3190	3259	3291	3283	3275	3355	3335	3274	3311	3323	3367	3423	3375	3410	3502	3475	3535	3587	3475	3571	3554	3587	3515	3570	3539	3662	3650	3595	3587	3591	3594	3614	3603	3687	3734	3722	3679	3639	3663	3722	3663	3675	3643	3647	3682	3714	3746	3631	3639	3691	3670	3727	3742	3623	3707	3655	3631	3631	3635	3638	3595	3678	3651	3631	3587	3683	3559	3578	3583	3575	3550	3623	3639	3575	3514	3559	3598	3591	3478	3459	3519	3483	3542	3423	3459	3410	3403	3435	3411	3475	3368	3443	3346	3371	3339	3334	3399	3327	3339	3319	3368	3310	3235	3231	3319	3335	3198	3298	3191	3275	3293	3170	3251	3151	3179	3208	3194	3231	3174	3111	3150	3179	3091	3139	3130	3047	3119	3063	3047	3058	3023	3055	3067	3063	3074	2994	3007	3002	2970	3027	2959	3046	2931	2919	3003	2959	2967	2959	2890	2967	2874	2951	2867	2975	2907	2874	2962	2875	2902	2907	2828	2811	2803	2918	2795	2891	2766	2779	2754	2775	2843	2771	2839	2835	2803	2839	2830	2714	2802	2802	2787	2683	2763	2683	2655	2727	2639	2703	2611	2623	2610	2654	2652	2599	2667	2695	2686	2671	2666	2671	2558	2595	2623	2530	2607	2635	2598	2510	2507	2542	2495	2523	2546	2606	2595	2534	2505	2558	2547	2591	2595	2566	2592	2542	2487	2559	2471	2583	2550	2542	2515	2494	2506	2607	2510	2503	2535	2614	2578	2563	2514	2607	2619	2614	2571	2563	2523	2519	2558	2531	2558	2550	2615	2551	2667	2635	2683	2662	2614	2583	2639	2678	2687	2602	2615	2707	2687	2640	2642	2599	2726	2622	2695	2627	2743	2691	2647	2759	2702	2691	2747	2707	2651	2683	2695	2726	2750	2667	2775	2755	2703	2791	2807	2691	2803	2810	2691	2736	2799	2751	2699	2795	2795	2690	2751	2771	2690	2719	2791	2758	2798	2691	2695	2782	2687	2775	2707	2703	2735	2695	2767	2787	2715	2759	2759	2707	2735	2675	2747	2651	2650	2755	2684	2759	2679	2707	2687	2639	2696	2703	2734	2735	2651	2626	2582	2588	2695	2671	2679	2599	2674	2630	2627	2570	2559	2626	2595	2543	2606	2638	2575	2539	2515	2610	2559	2563	2614	2606	2602	2546	2479	2503	2483	2575	2475	2526	2570	2563	2567	2543	2459	2459	2434	2507	2431	2454	2415	2407	2423	2495	2491	2398	2427	2515	2479	2475	2431	2383	2414	2459	2470	2400	2407	2375	2447	2427	2358	2343	2435	2345	2351	2331	2411	2310	2363	2336	2302	2415	2295	2291	2339	2303	2386	2359	2267	2303	2350	2320	2352	2343	2266	2238	2263	2326	2255	2339	2318	2222	2211	2218	2266	2175	2195	2279	2287	2283	2279	2263	2227	2188	2270	2231	2198	2218	2274	2190	2198	2162	2203	2151	2255	2218	2211	2119	2218	2171	2114	2216	2110	2127	2216	2190	2191	2110	2179	2232	2214	2102	2110	2199	2099	2095	2195	2123	2183	2191	2127	2199	2082	2126	2082	2199	2082	2091	2179	2078	2103	2070	2115	2178	2130	2187	2111	2070	2118	2070	2163	2147	2159	2059	2142	2086	2046	2135	2047	2175	2066	2166	2178	2155	2130	2098	2087	2127	2103	2074	2034	2042	2115	2087	2091	2143	2047	2043	2147	2131	2063	2122	2159	2103	2042	2035	2143	2138	2146	2046	2122	2027	2043	2030	2046	2042	2143	2107	2047	2047	2114	2130	2043	2035	2126	2110	2026	2034	2047	2142	2158	2090	2058	2070	2143	2194	2094	2182	2099	2122	2139	2226	2250	2162	2178	2214	2218	2302	2344	2263	2278	2278	2355	2323	2430	2378	2435	2435	2490	2566	2523	2542	2559	2655	2631	2622	2615	2647	2724	2742	2711	2759	2835	2839	2902	2858	2975	3035	2959	3074	2999	3106	3162	3187	3199	3219	3263	3266	3219	3291	3279	3330	3307	3375	3323	3362	3371	3467	3435	3422	3442	3582	3543	3487	3567	3599	3639	3602	3635	3575	3675	3590	3618	3667	3698	3650	3651	3754	3667	3767	3783	3710	3802	3690	3791	3727	3682	3787	3703	3807	3735	3779	3714	3771	3810	3751	3699	3771	3694	3787	3802	3782	3682	3750	3774	3779	3651	3747	3631	3678	3719	3735	3671	3719	3666	3691	3651	3688	3603	3691	3687	3599	3632	3651	3615	3630	3619	3499	3598	3591	3463	3491	3463	3447	3442	3491	3519	3511	3478	3390	3402	3354	3370	3343	3367	3323	3387	3323	3310	3368	3271	3343	3374	3323	3243	3295	3331	3287	3322	3203	3191	3211	3267	3215	3150	3178	3175	3167	3170	3111	3183	3151	3070	3187	3102	3135	3051	3143	3066	3074	3059	3114	3071	3082	3011	3023	2951	3070	3023	2947	2955	2990	3039	3046	2931	3003	2966	2968	2963	2943	2983	2919	2915	2906	2919	2848	2951	2871	2830	2867	2835	2855	2903	2819	2910	2874	2863	2882	2819	2815	2755	2767	2798	2742	2814	2787	2771	2786	2786	2791	2762	2731	2659	2651	2727	2718	2678	2711	2651	2624	2723	2712	2635	2611	2651	2623	2639	2686	2654	2551	2646	2543	2562	2555	2618	2623	2566	2606	2639	2590	2558	2550	2611	2523	2542	2623	2495	2567	2515	2591	2530	2515	2574	2498	2582	2515	2599	2547	2543	2626	2502	2586	2616	2527	2567	2567	2539	2502	2562	2566	2594	2503	2607	2611	2583	2618	2531	2590	2527	2623	2650	2591	2659	2535	2551	2603	2655	2655	2651	2607	2591	2559	2587	2571	2686	2598	2710	2671	2699	2671	2643	2711	2654	2619	2632	2656	2619	2623	2615	2614	2707	2722	2682	2666	2642	2679	2715	2747	2715	2703	2755	2755	2647	2715	2704	2675	2634	2631	2735	2715	2654	2643	2723	2749	2647	2719	2763	2702	2727	2655	2751	2650	2695	2647	2747	2670	2647	2687	2731	2670	2691	2614	2727	2611	2659	2611	2615	2694	2611	2619	2607	2666	2636	2602	2699	2675	2570	2670	2567	2679	2547	2555	2595	2659	2546	2575	2587	2642	2555	2551	2587	2602	2603	2519	2503	2591	2519	2599	2538	2594	2478	2531	2467	2479	2523	2542	2451	2435	2531	2471	2439	2534	2527	2423	2423	2490	2467	2491	2503	2499	2451	2411	2363	2363	2371	2386	2394	2463	2371	2363	2429	2382	2403	2351	2319	2438	2395	2310	2300	2406	2359	2345	2267	2307	2387	2362	2315	2327	2311	2378	2351	2280	2302	2347	2354	2272	2307	2327	2223	2291	2223	2311	2203	2223	2214	2287	2311	2299	2302	2215	2311	2194	2275	2206	2192	2218	2179	2243	2166	2198	2147	2183	2247	2159	2179	2200	2198	2143	2125	2226	2146	2240	2230	2115	2170	2207	2111	2099	2118	2208	2119	2107	2094	2181	2119	2126	2086	2195	2199	2099	2159	2186	2187	2179	2173	2159	2102	2142	2143	2066	2066	2094	2150	2115	2099	2103	2071	2051	2043	2154	2135	2130	2123	2138	2044	2130	2031	2074	2038	2035	2095	2099	2043	2018	2031	2003	2078	2094	2131	2014	2118	2026	2039	2007	2055	1999	1995	2087	2054	2060	2006	2014	1990	2015	2031	2055	2107	1994	2063	2106	2011	1998	2110	2034	2098	2031	1975	2079	2006	2007	2039	1974	2032	2043	2090	2003	2026	1991	2062	2023	2002	1992	2010	2099	2002	2047	2043	2047	2131	2114	2118	2150	2119	2071	2170	2127	2114	2142	2142	2258	2267	2278	2179	2199	2243	2318	2359	2319	2379	2358	2339	2458	2451	2531	2546	2510	2514	2552	2619	2679	2699	2678	2735	2671	2723	2811	2786	2819	2902	2918	2879	2986	2999	2971	3067	3102	3057	3155	3103	3214	3199	3191	3279	3307	3235	3323	3351	3283	3303	3326	3447	3363	3423	3403	3419	3550	3531	3575	3546	3603	3606	3631	3550	3659	3671	3623	3687	3595	3679	3623	3679	3739	3727	3727	3723	3732	3787	3678	3799	3787	3798	3702	3795	3687	3775	3739	3690	3687	3794	3814	3783	3687	3691	3803	3808	3723	3770	3682	3731	3762	3663	3679	3759	3663	3691	3635	3711	3623	3655	3646	3654	3691	3582	3663	3690	3679	3567	3554	3551	3655	3547	3603	3590	3506	3603	3483	3559	3463	3482	3519	3515	3451	3519	3415	3419	3411	3435	3475	3383	3402	3406	3346	3442	3386	3415	3303	3310	3271	3286	3311	3254	3338	3263	3327	3304	3266	3223	3199	3190	3191	3218	3243	3148	3159	3223	3160	3110	3111	3202	3187	3091	3123	3098	3122	3175	3051	3056	3143	3054	3082	3130	3115	3090	3091	2983	3051	3079	3043	3051	3019	2990	2942	2967	2927	2950	3035	3000	2927	2927	2903	2979	2883	2926	2975	2875	2863	2846	2843	2835	2831	2903	2823	2814	2891	2847	2807	2803	2908	2803	2775	2842	2863	2743	2823	2732	2831	2795	2698	2799	2726	2710	2731	2759	2662	2666	2774	2763	2694	2695	2626	2619	2727	2607	2651	2703	2695	2651	2603	2603	2663	2583	2667	2639	2565	2583	2659	2683	2655	2551	2571	2646	2590	2626	2558	2631	2643	2614	2526	2506	2519	2528	2575	2547	2572	2538	2611	2595	2535	2595	2628	2583	2627	2655	2623	2535	2551	2555	2619	2645	2574	2638	2625	2547	2655	2562	2667	2667	2630	2571	2587	2639	2630	2643	2667	2658	2611	2569	2680	2558	2654	2663	2579	2683	2672	2698	2598	2718	2619	2650	2687	2626	2651	2623	2607	2675	2635	2623	2603	2606	2687	2639	2709	2627	2694	2635	2731	2682	2702	2639	2639	2735	2675	2646	2694	2674	2726	2731	2675	2619	2647	2719	2699	2727	2710	2626	2623	2683	2615	2623	2615	2713	2642	2601	2594	2699	2695	2687	2603	2691	2579	2592	2654	2635	2587	2579	2574	2578	2672	2671	2555	2567	2567	2614	2630	2642	2627	2512	2515	2543	2567	2558	2588	2551	2606	2590	2575	2586	2591	2575	2559	2471	2558	2526	2451	2547	2455	2471	2470	2439	2547	2526	2527	2414	2427	2459	2519	2403	2502	2459	2503	2388	2375	2479	2439	2375	2363	2391	2359	2450	2343	2391	2411	2347	2322	2430	2318	2314	2414	2403	2347	2343	2391	2279	2296	2339	2267	2259	2251	2243	2239	2271	2239	2323	2299	2234	2307	2254	2230	2320	2307	2250	2206	2290	2255	2295	2271	2294	2171	2254	2176	2292	2234	2187	2171	2226	2258	2209	2190	2271	2270	2259	2167	2135	2203	2195	2159	2226	2191	2119	2135	2182	2164	2147	2226	2235	2163	2127	2187	2143	2143	2134	2163	2195	2127	2123	2167	2105	2187	2206	2095	2099	2128	2155	2127	2188	2154	2082	2071	2147	2146	2083	2150	2115	2090	2038	2135	2151	2142	2047	2143	2067	2159	2046	2074	2035	2103	2163	2087	2079	2099	2159	2107	2094	2047	2103	2079	2009	2131	2007	2063	2040	2091	2074	2019	2106	2026	2046	2099	2011	2007	2099	2090	2083	2082	2046	1987	2067	2083	2103	2023	2066	2031	1986	2042	2015	2071	2002	2079	2075	2007	1982	2027	1978	2079	1971	1991	2055	1963	2051	2083	1998	1978	2071	2059	2098	1974	2083	2087	2003	2019	2043	2078	2094	1998	2083	1999	2015	2051	2056	2055	2046	2115	2091	2111	2083	2055	2018	2031	2095	2083	2091	2079	2170	2179	2186	2095	2123	2170	2138	2230	2271	2232	2215	2259	2258	2358	2347	2310	2386	2382	2367	2395	2447	2442	2536	2539	2495	2567	2655	2602	2615	2723	2767	2727	2742	2839	2802	2859	2943	2898	3007	2967	2930	3015	2979	3038	3071	3139	3155	3223	3215	3263	3271	3207	3242	3286	3320	3374	3367	3326	3442	3367	3415	3423	3446	3519	3431	3510	3487	3562	3530	3523	3571	3619	3550	3627	3579	3623	3666	3663	3611	3683	3614	3646	3719	3679	3723	