2639	2566	2619	2622	2578	2558	2635	2603	2575	2650	2631	2630	2651	2639	2646	2663	2670	2651	2582	2594	2606	2575	2639	2591	2659	2591	2579	2583	2671	2671	2682	2607	2639	2598	2675	2623	2687	2675	2659	2619	2663	2607	2670	2606	2667	2687	2627	2667	2661	2599	2627	2695	2631	2702	2627	2674	2695	2651	2679	2647	2583	2603	2575	2638	2575	2586	2663	2627	2670	2647	2670	2634	2606	2647	2623	2670	2659	2587	2562	2543	2567	2607	2622	2510	2563	2514	2519	2606	2531	2583	2599	2543	2579	2506	2486	2564	2467	2474	2450	2514	2458	2438	2438	2510	2506	2495	2402	2411	2426	2443	2402	2414	2430	2458	2466	2470	2434	2358	2387	2368	2359	2349	2418	2391	2367	2367	2394	2359	2287	2298	2275	2266	2267	2350	2271	2342	2242	2287	2326	2271	2246	2218	2303	2190	2270	2203	2275	2214	2254	2231	2170	2179	2238	2235	2235	2157	2230	2203	2143	2187	2114	2147	2194	2094	2149	2079	2171	2119	2166	2083	2074	2106	2078	2079	2107	2143	2114	2107	2047	2106	2026	2023	2055	2019	2023	2099	2007	2070	1991	1994	2008	2078	1983	2058	2066	2032	2019	1990	1971	1979	2027	1990	1971	1947	1942	1935	1939	1938	1966	2007	2022	1955	1999	1942	2007	1916	2010	2007	2002	1967	1931	1998	1908	1991	1951	1987	1911	1971	1895	1958	1907	1903	1950	1987	1999	1991	1991	1947	1974	1887	1907	1875	1931	1879	1874	1911	1975	1879	1925	1954	1911	1914	1891	1975	1946	1932	1899	1971	1959	1891	1870	1918	1963	1871	1930	1938	1879	1935	1943	1895	1891	1875	1911	1939	1935	1971	1883	1887	1943	1855	1935	1895	1855	1886	1949	1935	1871	1922	1855	1934	1863	1939	1934	1907	1935	1939	1911	1855	1891	1935	1851	1875	1914	1859	1875	1862	1923	1855	1850	1931	1928	1856	1916	1839	1856	1867	1899	1943	1920	1939	1887	1887	1923	1886	1875	1931	1875	1854	1934	1922	1843	1943	1928	1847	1859	1844	1875	1927	1915	1834	1894	1823	1867	1910	1815	1843	1818	1814	1903	1815	1907	1826	1827	1818	1827	1822	1903	1888	1847	1802	1871	1783	1830	1791	1843	1787	1835	1787	1810	1798	1843	1822	1806	1878	1799	1855	1878	1806	1823	1786	1798	1815	1846	1879	1795	1854	1806	1842	1800	1846	1918	1899	1850	1911	1871	1859	1935	1947	1895	1935	1955	1983	1950	1967	2075	1995	2022	2115	2047	2095	2099	2126	2227	2231	2279	2310	2323	2295	2303	2350	2443	2415	2519	2498	2542	2527	2543	2595	2607	2670	2743	2698	2714	2811	2812	2843	2831	2907	2887	2927	2955	3059	3022	3066	3063	3098	3143	3218	3227	3206	3303	3248	3363	3315	3386	3363	3419	3439	3447	3443	3498	3491	3471	3566	3491	3583	3546	3631	3611	3627	3631	3683	3631	3638	3687	3710	3731	3679	3763	3683	3731	3744	3783	3700	3774	3746	3795	3711	3735	3747	3775	3823	3751	3832	3762	3739	3826	3774	3762	3814	3727	3803	3778	3791	3714	3739	3779	3763	3703	3711	3755	3695	3690	3739	3743	3742	3650	3714	3651	3626	3667	3671	3655	3658	3582	3659	3550	3615	3603	3607	3535	3558	3523	3523	3569	3498	3507	3471	3507	3443	3495	3439	3411	3395	3467	3478	3375	3363	3446	3355	3370	3414	3407	3415	3379	3327	3311	3331	3294	3262	3310	3247	3238	3254	3319	3314	3299	3235	3214	3283	3231	3198	3247	3267	3259	3206	3166	3239	3203	3223	3227	3135	3222	3174	3194	3202	3171	3151	3115	3135	3219	3194	3187	3163	3119	3115	3099	3175	3146	3095	3130	3151	3162	3099	3123	3071	3078	3055	3139	3135	3143	3062	3091	3067	3135	3123	3119	3088	3102	3070	3055	3031	3035	3014	3002	3007	3051	2987	3051	3047	3071	3027	2982	2991	2959	2998	2959	2978	2955	2931	2930	2935	2959	2976	2887	2875	2931	2914	2958	2872	2855	2935	2846	2842	2903	2818	2882	2791	2858	2855	2799	2794	2831	2751	2747	2814	2787	2816	2779	2747	2771	2767	2715	2715	2782	2768	2766	2671	2734	2720	2734	2675	2706	2695	2654	2659	2671	2706	2623	2718	2654	2670	2650	2646	2683	2614	2690	2615	2678	2595	2583	2639	2580	2591	2599	2581	2595	2583	2650	2587	2579	2591	2623	2638	2599	2571	2654	2654	2647	2566	2619	2591	2615	2563	2570	2615	2599	2583	2559	2618	2615	2618	2650	2574	2663	2659	2566	2651	2562	2598	2574	2599	2614	2646	2575	2631	2574	2643	2615	2619	2583	2587	2663	2611	2595	2643	2610	2607	2679	2578	2634	2607	2670	2579	2611	2651	2571	2575	2622	2671	2596	2666	2640	2559	2606	2634	2575	2614	2627	2567	2546	2598	2627	2622	2515	2555	2595	2531	2515	2587	2535	2599	2603	2499	2515	2499	2490	2507	2543	2523	2471	2479	2458	2535	2511	2515	2435	2431	2447	2474	2427	2439	2414	2407	2439	2486	2386	2475	2447	2370	2438	2378	2418	2346	2419	2410	2342	2423	2419	2415	2431	2326	2330	2370	2318	2323	2346	2355	2269	2271	2343	2274	2303	2255	2278	2290	2288	2279	2231	2223	2314	2230	2295	2279	2222	2203	2272	2263	2231	2175	2239	2227	2227	2143	2154	2143	2219	2151	2127	2224	2187	2142	2191	2203	2191	2159	2139	2186	2130	2091	2138	2113	2159	2095	2154	2106	2110	2122	2125	2074	2151	2134	2046	2119	2035	2123	2119	2026	2115	2019	2070	2119	2114	2027	2003	2011	1994	1999	1999	2091	2051	2011	2012	2063	2005	1987	2031	1978	2035	1986	1982	2006	1991	1994	2003	2031	1994	1965	2030	2066	2058	1974	2062	1979	1983	1979	2023	2023	2011	1955	2023	1987	2022	1956	1966	1951	1975	1982	1948	2047	1991	2002	1952	2055	2036	2023	1956	2039	2007	1987	2042	1945	1991	2023	1946	1955	1955	1979	2019	2027	1967	1975	1995	1986	1950	2032	1971	1994	1958	2019	2011	1943	2019	2014	1999	1943	2022	1943	1942	2019	2006	1999	1975	1947	1986	2007	2043	2027	1959	2006	1986	1966	1958	1955	1931	2019	1998	2022	2031	2023	2006	1970	1967	1939	1955	1974	1966	1987	2022	2002	1935	2015	1974	2006	1930	2018	1943	1995	1966	2030	2038	1943	1954	2031	1983	1943	1962	2039	2019	1963	1986	1967	1926	1986	1955	2021	2002	1998	1995	1955	1991	1978	1947	2039	1994	2022	2003	1951	1959	1943	1927	1942	1923	1915	1915	1919	1987	1999	1899	1975	1963	1991	1942	1926	1923	2003	1931	1975	1918	1902	1927	1930	1966	1971	1899	1899	1918	1950	2004	2002	2010	1935	1975	1919	1959	1934	2027	1963	1999	2011	1944	1991	1943	2007	2050	2067	2023	2035	2015	2051	2067	2103	2075	2123	2159	2135	2147	2211	2257	2231	2219	2254	2347	2338	2349	2403	2435	2455	2511	2519	2524	2583	2594	2610	2623	2651	2696	2683	2687	2723	2743	2832	2848	2923	2919	2907	3019	2971	3062	3062	3107	3095	3162	3186	3191	3274	3247	3319	3319	3327	3370	3387	3391	3411	3479	3455	3451	3523	3511	3571	3630	3555	3599	3675	3631	3658	3735	3679	3742	3702	3771	3791	3782	3791	3836	3758	3778	3815	3770	3870	3823	3803	3815	3823	3831	3920	3843	3850	3926	3883	3847	3855	3915	3875	3895	3855	3879	3839	3863	3862	3886	3910	3879	3862	3883	3854	3839	3850	3891	3803	3871	3851	3795	3807	3834	3766	3847	3767	3831	3815	3743	3787	3815	3707	3783	3751	3731	3723	3642	3671	3627	3646	3623	3627	3634	3582	3583	3638	3583	3579	3571	3638	3603	3539	3603	3507	3578	3519	3479	3531	3467	3515	3491	3439	3510	3494	3479	3435	3426	3471	3479	3439	3478	3374	3377	3439	3434	3358	3407	3327	3335	3403	3390	3375	3395	3315	3382	3330	3291	3342	3358	3347	3359	3310	3279	3355	3351	3263	3339	3319	3327	3247	3330	3274	3307	3246	3286	3267	3230	3223	3227	3275	3303	3239	3279	3295	3199	3219	3231	3210	3290	3223	3259	3215	3283	3247	3187	3188	3251	3243	3178	3187	3171	3155	3199	3206	3199	3183	3154	3194	3207	3175	3159	3175	3099	3155	3167	3146	3094	3135	3099	3155	3099	3138	3103	3103	3115	3099	2995	3039	3078	3051	2991	3014	3043	2951	3003	3011	2951	3027	2951	2966	2934	2898	2871	2903	2874	2858	2831	2835	2903	2895	2827	2846	2831	2862	2799	2879	2838	2847	2827	2850	2755	2846	2770	2759	2759	2799	2751	2795	2736	2771	2694	2723	2706	2719	2739	2679	2779	2704	2762	2686	2719	2747	2679	2719	2686	2743	2651	2735	2655	2723	2679	2710	2647	2704	2719	2671	2671	2671	2687	2671	2694	2702	2659	2727	2646	2742	2732	2727	2666	2659	2650	2651	2730	2714	2747	2742	2671	2666	2734	2725	2675	2719	2691	2734	2707	2663	2662	2687	2722	2742	2743	2663	2687	2667	2671	2707	2691	2750	2706	2731	2675	2671	2682	2747	2683	2686	2658	2675	2666	2654	2698	2715	2666	2686	2650	2674	2719	2667	2735	2659	2631	2634	2655	2714	2658	2622	2650	2647	2674	2695	2576	2635	2599	2666	2599	2667	2635	2577	2647	2603	2566	2550	2587	2578	2595	2550	2616	2539	2515	2582	2587	2558	2495	2491	2587	2526	2477	2567	2559	2511	2470	2463	2471	2530	2514	2426	2463	2438	2410	2439	2398	2450	2443	2395	2383	2387	2448	2470	2366	2351	2367	2374	2434	2414	2379	2338	2398	2331	2319	2371	2350	2303	2295	2323	2358	2303	2311	2298	2332	2291	2279	2262	2279	2311	2275	2312	2242	2234	2223	2306	2278	2299	2222	2291	2275	2223	2210	2231	2262	2286	2267	2282	2246	2223	2278	2178	2267	2175	2162	2191	2182	2239	2219	2159	2198	2235	2146	2215	2187	2171	2179	2219	2227	2152	2106	2166	2142	2107	2176	2102	2083	2174	2162	2159	2083	2179	2067	2119	2080	2114	2076	2151	2067	2058	2063	2143	2047	2147	2054	2129	2082	2035	2131	2099	2131	2067	2122	2047	2127	2143	2086	2042	2115	2026	2043	2087	2042	2019	2010	2099	2107	2014	2099	2087	2027	2099	2102	2018	2031	2038	2022	2091	2007	2002	2062	2024	2007	1985	2082	2059	2003	1994	2023	2007	2070	2071	2016	2035	1999	2074	2004	2022	2039	2015	2015	2067	1994	2066	1991	2031	2031	2059	2062	2078	1991	1989	2019	2000	2059	2007	2011	2026	2006	1990	2055	2010	2059	1979	2002	2032	2010	1975	1986	2063	2010	2071	2032	2063	2059	1985	2015	1978	1975	1990	2006	2063	2058	1960	2003	1987	2007	1997	1966	2046	2055	1999	2035	2043	2055	2070	1983	2034	2002	2015	1982	1970	1950	1995	1967	1951	1987	1970	2019	1962	2031	1975	1983	2010	2010	1943	2014	2034	2010	1948	1980	2007	2023	1991	1975	1927	1955	2031	1986	1974	1979	1987	2027	1991	2019	2030	2039	1986	1959	1972	2031	1950	1998	2038	1967	1969	2059	1983	2002	2003	2026	2086	2027	2123	2074	2168	2135	2138	2178	2164	2251	2159	2230	2231	2263	2247	2275	2363	2335	2375	2426	2414	2458	2471	2526	2527	2551	2582	2603	2643	2663	2634	2694	2755	2787	2823	2819	2790	2843	2894	2971	2987	2966	3063	3075	3038	3091	3147	3175	3203	3242	3223	3279	3266	3287	3319	3367	3318	3411	3423	3394	3471	3499	3531	3551	3570	3559	3563	3539	3582	3571	3587	3670	3635	3663	3632	3666	3655	3701	3682	3763	3767	3759	3774	3779	3727	3714	3711	3779	3738	3759	3755	3795	3758	3786	3739	3760	3747	3758	3760	3802	3827	3754	3750	3730	3751	3747	3707	3787	3702	3699	3759	3683	3695	3718	3706	3731	3663	3635	3687	3679	3666	3687	3606	3643	3610	3639	3630	3579	3543	3591	3583	3594	3570	3554	3487	3543	3503	3523	3516	3486	3455	3500	3494	3458	3479	3406	3463	3407	3415	3371	3435	3415	3343	3336	3310	3358	3359	3363	3350	3366	3327	3378	3347	3267	3327	3315	3287	3291	3298	3231	3283	3198	3190	3238	3223	3242	3170	3171	3227	3194	3151	3142	3218	3183	3206	3147	3135	3119	3170	3179	3123	3103	3163	3120	3151	3090	3115	3095	3139	3086	3079	3083	3130	3162	3071	3050	3103	3071	3054	3043	3027	3055	3099	3066	3006	2990	3031	3067	3007	2991	3071	3055	3006	3047	3038	2967	3043	3039	2947	3007	2970	2998	2915	2939	2903	2899	2971	2907	2959	2887	2875	2931	2855	2867	2911	2835	2862	2834	2863	2862	2803	2863	2856	2851	2779	2750	2759	2826	2723	2807	2726	2791	2751	2728	2736	2687	2714	2715	2735	2666	2742	2731	2638	2642	2703	2618	2703	2619	2619	2695	2603	2683	2607	2646	2614	2671	2579	2651	2666	2579	2634	2614	2598	