2815	2791	2854	2808	2767	2783	2798	2791	2848	2755	2807	2772	2783	2790	2751	2794	2743	2850	2792	2758	2835	2834	2807	2766	2755	2783	2751	2746	2771	2811	2743	2738	2826	2791	2823	2758	2790	2750	2743	2751	2779	2747	2743	2771	2782	2767	2811	2790	2739	2735	2770	2746	2775	2706	2703	2703	2703	2667	2735	2704	2687	2722	2675	2750	2647	2651	2676	2639	2631	2639	2719	2706	2634	2582	2650	2591	2654	2667	2595	2575	2647	2614	2611	2579	2627	2615	2575	2559	2555	2587	2570	2516	2523	2571	2583	2487	2502	2531	2570	2522	2507	2571	2558	2470	2542	2466	2534	2459	2430	2423	2398	2467	2422	2395	2475	2371	2471	2387	2446	2474	2394	2419	2407	2370	2454	2375	2403	2350	2398	2415	2358	2383	2307	2319	2315	2311	2331	2299	2295	2355	2314	2357	2299	2299	2358	2362	2302	2251	2319	2351	2287	2311	2263	2231	2330	2322	2212	2259	2254	2303	2223	2234	2247	2303	2279	2274	2295	2195	2199	2247	2243	2274	2274	2203	2271	2183	2266	2186	2170	2266	2243	2250	2239	2243	2178	2231	2239	2190	2142	2203	2227	2147	2191	2214	2222	2211	2206	2214	2223	2207	2175	2146	2131	2126	2179	2123	2126	2199	2191	2123	2118	2110	2095	2091	2087	2091	2178	2187	2142	2126	2159	2139	2162	2211	2126	2147	2166	2122	2163	2115	2115	2115	2167	2102	2130	2078	2082	2086	2099	2179	2091	2083	2091	2110	2095	2118	2187	2155	2195	2135	2087	2179	2123	2130	2095	2090	2086	2163	2139	2098	2110	2155	2111	2174	2155	2166	2171	2183	2079	2144	2155	2167	2111	2135	2170	2086	2074	2119	2186	2119	2175	2091	2083	2186	2086	2141	2151	2099	2130	2078	2122	2179	2071	2163	2142	2090	2082	2155	2158	2142	2179	2160	2130	2091	2095	2170	2079	2155	2166	2150	2082	2118	2078	2135	2091	2139	2107	2071	2166	2144	2090	2142	2094	2175	2154	2087	2150	2066	2127	2151	2082	2130	2155	2114	2121	2127	2159	2063	2067	2143	2130	2129	2167	2094	2171	2166	2147	2083	2114	2094	2155	2094	2047	2107	2062	2075	2091	2075	2122	2070	2127	2159	2151	2171	2103	2115	2131	2059	2147	2106	2070	2083	2143	2054	2099	2131	2115	2035	2083	2143	2083	2143	2082	2090	2083	2126	2135	2042	2035	2054	2086	2083	2018	2058	2098	2031	2102	2082	2007	2087	2014	2047	2106	2099	2034	2016	2079	1995	2079	2054	2003	2030	2024	2086	2059	1995	2015	2054	2066	2042	2059	2102	2086	2015	2119	2022	2130	2095	2102	2135	2059	2098	2051	2142	2131	2135	2142	2110	2154	2147	2195	2162	2275	2259	2303	2227	2283	2329	2303	2384	2366	2419	2467	2439	2419	2427	2462	2487	2607	2579	2584	2642	2715	2695	2762	2699	2755	2823	2775	2815	2831	2871	2963	2988	3011	2998	3056	3111	3107	3106	3175	3222	3151	3267	3235	3227	3320	3367	3302	3395	3363	3403	3463	3463	3423	3458	3562	3583	3603	3527	3583	3675	3655	3674	3719	3679	3731	3703	3762	3742	3775	3708	3730	3763	3778	3810	3814	3755	3810	3823	3802	3806	3863	3899	3887	3887	3874	3891	3862	3891	3815	3910	3887	3843	3855	3906	3827	3911	3823	3891	3903	3871	3807	3862	3886	3886	3818	3775	3775	3779	3755	3814	3762	3775	3742	3831	3739	3723	3747	3759	3691	3775	3759	3690	3762	3663	3691	3711	3635	3683	3702	3599	3663	3626	3663	3571	3642	3632	3583	3642	3543	3591	3627	3599	3531	3495	3503	3499	3491	3562	3467	3470	3514	3498	3431	3527	3507	3454	3499	3487	3446	3475	3475	3483	3423	3399	3379	3390	3375	3363	3368	3395	3431	3355	3371	3355	3378	3415	3343	3395	3363	3351	3327	3414	3407	3355	3371	3299	3339	3375	3391	3315	3275	3302	3338	3390	3366	3315	3359	3311	3295	3371	3298	3291	3318	3358	3359	3270	3347	3303	3259	3247	3303	3275	3247	3243	3283	3243	3262	3278	3315	3331	3231	3292	3283	3218	3203	3207	3199	3230	3211	3270	3243	3231	3231	3251	3247	3163	3143	3163	3170	3150	3203	3147	3143	3127	3147	3139	3110	3110	3139	3102	3043	3083	3024	3051	3091	3079	3024	3011	3087	2999	3015	2979	2958	3035	2978	2952	3026	2918	2999	2951	2970	2931	2975	2910	2927	2895	2875	2939	2863	2907	2887	2859	2859	2940	2831	2932	2922	2847	2922	2834	2819	2903	2831	2831	2799	2899	2843	2827	2859	2891	2798	2826	2887	2883	2854	2779	2803	2790	2827	2763	2826	2844	2795	2850	2843	2766	2842	2763	2867	2775	2866	2811	2818	2778	2807	2819	2770	2787	2799	2832	2759	2771	2779	2818	2835	2770	2766	2766	2795	2803	2771	2815	2830	2839	2810	2803	2846	2758	2758	2803	2802	2770	2823	2791	2783	2767	2799	2830	2827	2826	2807	2771	2754	2807	2735	2779	2803	2747	2814	2727	2734	2778	2731	2723	2694	2767	2794	2707	2739	2787	2683	2721	2714	2751	2734	2671	2771	2674	2662	2646	2723	2719	2650	2682	2650	2642	2643	2623	2718	2670	2618	2611	2699	2695	2615	2608	2667	2607	2670	2591	2547	2639	2615	2591	2559	2532	2603	2523	2503	2602	2515	2494	2571	2555	2468	2463	2447	2462	2487	2519	2431	2419	2455	2431	2483	2496	2410	2407	2427	2386	2478	2463	2439	2367	2347	2363	2411	2418	2419	2334	2399	2311	2299	2310	2307	2306	2391	2311	2382	2283	2331	2290	2326	2267	2335	2326	2278	2228	2307	2263	2282	2248	2207	2238	2308	2258	2230	2187	2206	2202	2279	2267	2262	2239	2255	2235	2215	2198	2178	2195	2239	2150	2134	2219	2126	2222	2154	2123	2135	2159	2162	2203	2178	2183	2131	2127	2158	2099	2146	2138	2091	2087	2075	2172	2079	2131	2091	2146	2099	2104	2103	2183	2074	2078	2150	2063	2059	2147	2046	2063	2058	2043	2147	2107	2104	2143	2095	2054	2073	2083	2147	2047	2119	2067	2103	2059	2034	2083	2063	2015	2134	2107	2050	2059	2102	2098	2054	2115	2115	2119	2066	2127	2119	2023	2031	2030	2029	2090	2002	2007	2003	2014	2022	2047	2094	2075	1991	2035	2103	2075	1999	2111	2011	2043	2020	2039	2079	2020	2007	1987	2055	2095	1994	2079	1998	1995	2035	2019	2068	2035	2043	2002	2079	1995	2079	2006	2002	2038	1979	2014	2055	2034	1990	1971	2074	2055	2024	1995	1995	2023	2083	2058	2062	2082	2006	2054	2054	2070	1983	2063	2039	1967	1999	1987	2018	1979	2003	2042	2030	2079	1992	2047	2090	1986	2063	1975	1968	2066	2070	2035	1986	2015	1995	2043	1995	1967	2086	2051	2067	2059	1986	1983	2047	2036	2059	2062	2035	2034	1962	2040	2015	1978	1959	2003	2051	2051	1967	2047	1967	2051	2026	2064	1975	2071	1983	2010	2058	2010	1975	2032	1971	2040	1962	2022	2035	1963	2043	2043	1979	2038	2018	1990	2059	1954	2054	2046	2066	2059	1982	1999	2039	1939	1982	1986	1947	2023	1970	1979	2055	2026	1958	1999	2046	2038	1958	2043	1983	2043	2027	1975	1971	1998	2001	1955	1970	2034	1984	1951	2030	1955	1995	2044	2027	1926	1955	1935	2026	1943	1994	1943	1914	1923	1958	2003	2014	1907	2015	1946	1923	1990	1926	1935	2003	2015	1986	2002	1938	1978	1894	1892	1930	1991	1919	1906	1911	1967	1887	2007	1999	1963	1903	1959	1918	1911	1955	1927	1931	1931	2015	1935	2007	2011	1955	1939	1950	2003	2046	2010	2059	2090	2032	2047	2075	2064	2151	2110	2170	2099	2162	2156	2182	2271	2191	2227	2335	2327	2395	2387	2354	2402	2427	2426	2543	2483	2570	2528	2638	2578	2631	2667	2666	2747	2747	2867	2831	2850	2955	2939	2959	3015	3075	3043	3118	3159	3170	3131	3235	3214	3203	3316	3259	3295	3311	3343	3439	3478	3464	3459	3483	3496	3603	3538	3554	3568	3651	3619	3707	3651	3743	3750	3694	3707	3803	3743	3842	3790	3787	3827	3874	3898	3827	3907	3939	3883	3887	3870	3931	3954	3915	3923	3939	3926	3887	3987	3891	3966	4011	3919	3998	3983	3955	3999	3991	3918	3923	3958	3915	3967	3879	3886	3891	3898	3871	3927	3879	3946	3927	3847	3923	3870	3823	3810	3891	3815	3791	3794	3826	3851	3815	3815	3739	3723	3753	3803	3726	3767	3731	3754	3730	3663	3706	3675	3739	3647	3734	3623	3615	3683	3667	3647	3595	3614	3582	3579	3626	3631	3575	3603	3571	3551	3543	3526	3607	3551	3515	3567	3586	3527	3542	3507	3511	3543	3567	3530	3471	3462	3534	3551	3479	3545	3467	3458	3534	3482	3459	3467	3530	3410	3483	3411	3491	3482	3458	3450	3407	3391	3406	3395	3498	3434	3420	3399	3459	3455	3375	3395	3370	3399	3368	3407	3459	3386	3454	3371	3455	3367	3443	3390	3443	3363	3411	3359	3463	3355	3410	3399	3406	3394	3387	3346	3375	3363	3406	3339	3311	3307	3303	3351	3339	3303	3303	3294	3367	3271	3311	3243	3263	3268	3235	3302	3239	3231	3262	3215	3275	3199	3267	3235	3243	3171	3215	3194	3152	3167	3159	3131	3179	3160	3171	3087	3047	3131	3131	3115	3096	3066	3023	3103	3003	3088	3059	3031	2987	3022	2970	3038	3003	2943	2955	2947	2991	2939	2999	2967	2928	2984	2927	2914	2895	2899	2935	2926	2971	2895	2934	2851	2889	2854	2939	2934	2850	2919	2847	2903	2895	2923	2887	2874	2851	2847	2915	2906	2895	2862	2883	2875	2846	2851	2806	2859	2855	2899	2899	2874	2883	2867	2920	2838	2879	2859	2846	2902	2911	2806	2823	2879	2891	2810	2851	2802	2891	2906	2866	2894	2894	2839	2867	2823	2815	2814	2815	2894	2906	2871	2858	2843	2819	2814	2878	2815	2803	2891	2870	2863	2894	2840	2790	2807	2807	2815	2891	2908	2870	2787	2863	2851	2774	2778	2811	2819	2851	2794	2779	2839	2775	2823	2787	2839	2830	2799	2826	2810	2726	2779	2707	2795	2735	2771	2730	2760	2775	2735	2759	2702	2747	2735	2666	2667	2735	2731	2707	2642	2711	2719	2654	2682	2679	2675	2611	2702	2615	2679	2619	2599	2683	2667	2640	2571	2675	2634	2559	2651	2582	2539	2515	2515	2622	2526	2518	2535	2498	2574	2498	2523	2546	2558	2528	2482	2554	2547	2531	2563	2550	2458	2467	2435	2522	2459	2433	2407	2498	2419	2451	2483	2494	2379	2463	2419	2387	2382	2446	2406	2375	2374	2383	2387	2355	2399	2422	2358	2347	2375	2339	2339	2362	2379	2339	2322	2315	2386	2410	2394	2402	2314	2350	2303	2304	2379	2375	2366	2311	2283	2371	2282	2318	2342	2275	2278	2287	2262	2290	2327	2256	2343	2291	2354	2282	2346	2331	2227	2255	2247	2270	2319	2294	2291	2316	2262	2266	2283	2318	2267	2230	2287	2226	2247	2278	2275	2299	2203	2207	2258	2291	2206	2306	2291	2287	2286	2211	2218	2207	2234	2199	2198	2203	2263	2179	2254	2192	2188	2179	2191	2243	2227	2187	2283	2295	2198	2291	2222	2282	2198	2198	2177	2195	2187	2246	2207	2183	2199	2263	2243	2191	2179	2189	2262	2199	2198	2171	2262	2171	2242	2247	2174	2192	2230	2155	2167	2219	2203	2174	2231	2224	2218	2234	2259	2170	2195	2195	2183	2183	2231	2223	2194	2231	2231	2170	2143	2203	2179	2234	2226	2167	2199	2178	2199	2243	2215	2226	2170	2150	2234	2206	2150	2135	2151	2214	2234	2224	2142	2231	2131	2151	2182	2182	2238	2158	2206	2143	2235	2146	2168	2218	2158	2178	2218	2166	2175	2199	2130	2215	2134	2203	2198	2191	2210	2158	2184	2160	2158	2186	2191	2135	2223	2175	2134	2211	2135	2186	2118	2227	2203	2131	2206	2138	2215	2183	2182	2219	2167	2134	2199	2139	2207	2132	2135	2146	2163	2147	2106	2166	2103	2110	2130	2111	2191	2195	2166	2114	2123	2135	2110	2202	2107	2163	2167	2119	2170	2098	2115	2087	2115	2160	2151	2122	2190	2216	2155	2123	2203	2202	2174	2146	2130	2087	2079	2159	2183	2107	2071	2166	2160	2138	2090	2124	2143	2126	2131	2087	2107	2131	2071	2134	2126	2086	2122	2106	2103	2163	2144	2071	2099	2139	2138	2059	2163	2127	2154	2071	2046	2103	2158	2147	2131	2054	2094	2143	2131	2123	2134	2143	2123	2154	2171	2131	2075	2120	2147	2183	2095	2103	2118	2222	2126	2203	2219	2174	2211	2160	2291	2263	2251	2279	2251	2342	2283	2303	2330	2448	2475	2414	2434	2442	2542	2559	2559	2630	2630	2671	2587	2631	2738	2746	2774	2835	2791	2822	2827	2919	2910	2991	3051	2963	3054	3099	3152	3090	3147	3199	3174	3235	3299	3346	3286	3335	3367	3386	3391	