2615	2567	2654	2627	2622	2602	2631	2639	2543	2552	2602	2603	2527	2567	2575	2499	2546	2562	2531	2511	2475	2538	2534	2455	2522	2435	2502	2435	2480	2422	2431	2415	2468	2394	2379	2466	2434	2367	2347	2422	2427	2327	2410	2334	2359	2395	2390	2382	2390	2371	2323	2362	2359	2298	2330	2271	2266	2278	2251	2279	2278	2247	2211	2231	2266	2290	2267	2203	2198	2191	2270	2203	2215	2178	2143	2162	2230	2179	2210	2195	2115	2138	2190	2115	2103	2175	2118	2119	2127	2146	2159	2138	2102	2163	2062	2099	2075	2104	2099	2039	2131	2046	2107	2047	2023	2031	2123	2019	2094	2094	2059	2078	2014	1995	2042	2085	2083	1994	2019	2071	1986	1979	1975	1966	2047	2053	1975	1987	1967	2027	1990	2051	1995	1966	1956	2047	1986	1963	1939	2003	1943	2022	1947	1919	1939	2011	2003	1987	1978	1954	1955	1927	2012	1947	1962	1998	1931	1999	1947	1998	1999	1939	1958	1934	1927	1923	1968	1987	1910	1975	1947	1915	1983	1930	1902	1910	1903	1903	1914	1895	1934	1983	1978	1947	1979	1967	1983	1907	1911	1911	1975	1979	1927	1987	1891	1915	1899	1970	1931	1879	1888	1878	1932	1894	1978	1974	1906	1951	1986	1914	1946	1962	1979	1979	1971	1923	1972	1923	1954	1919	1883	1967	1950	1906	1943	1891	1959	1895	1903	1895	1983	1951	1958	1947	1978	1959	1958	1891	1911	1870	1946	1934	1972	1878	1903	1878	1898	1890	1901	1978	1930	1990	1915	1966	1967	1947	1879	1903	1959	1938	1958	1911	1899	1899	1867	1878	1878	1934	1899	1962	1935	1923	1931	1899	1935	1967	1902	1912	1927	1947	1878	1854	1854	1914	1846	1931	1854	1858	1899	1934	1914	1859	1926	1903	1843	1906	1826	1827	1834	1870	1910	1891	1903	1911	1899	1831	1906	1899	1918	1854	1895	1822	1874	1811	1816	1851	1818	1883	1815	1826	1894	1915	1855	1911	1911	1835	1859	1859	1862	1939	1867	1922	1947	1883	1950	1899	2002	1971	2015	1958	2031	1979	2079	2110	2055	2070	2170	2103	2223	2171	2194	2227	2219	2264	2367	2359	2403	2407	2479	2479	2474	2474	2507	2554	2634	2671	2735	2687	2799	2783	2775	2879	2922	2895	2967	3026	3051	2992	3074	3135	3087	3146	3223	3255	3254	3242	3275	3351	3359	3399	3387	3470	3504	3455	3491	3491	3555	3547	3583	3591	3583	3683	3703	3719	3667	3683	3707	3720	3727	3774	3819	3834	3834	3842	3830	3843	3866	3859	3867	3832	3871	3910	3887	3951	3950	3891	3923	3883	3926	3927	3911	3895	3954	3947	3907	3879	3911	3966	3883	3879	3871	3903	3874	3847	3894	3914	3890	3926	3847	3822	3835	3831	3882	3830	3774	3787	3847	3775	3774	3720	3727	3718	3727	3684	3695	3730	3675	3747	3655	3696	3638	3702	3702	3614	3619	3579	3647	3627	3546	3552	3607	3534	3555	3531	3574	3579	3479	3559	3559	3491	3495	3431	3483	3471	3407	3458	3470	3383	3467	3415	3419	3363	3346	3415	3411	3408	3422	3359	3331	3315	3315	3395	3303	3315	3286	3295	3355	3295	3263	3250	3290	3243	3231	3234	3287	3267	3227	3286	3303	3294	3283	3219	3290	3198	3230	3195	3219	3198	3251	3202	3176	3179	3179	3199	3199	3195	3218	3178	3247	3163	3155	3151	3211	3176	3211	3207	3203	3143	3107	3119	3102	3171	3087	3162	3147	3155	3083	3090	3167	3162	3123	3135	3123	3103	3087	3019	3015	3035	3082	3019	3011	2974	2995	2951	3026	3023	3034	2990	3015	2987	2955	2935	2923	2971	2891	2866	2923	2922	2839	2842	2899	2815	2894	2819	2794	2843	2794	2807	2791	2862	2819	2823	2782	2815	2735	2774	2767	2755	2766	2775	2726	2714	2731	2767	2683	2695	2694	2687	2763	2723	2678	2682	2667	2723	2683	2691	2731	2739	2727	2707	2655	2643	2674	2723	2643	2643	2718	2654	2686	2711	2715	2723	2639	2642	2718	2627	2630	2631	2626	2714	2623	2667	2695	2631	2719	2660	2723	2650	2691	2653	2731	2683	2742	2710	2714	2739	2730	2703	2699	2671	2690	2751	2727	2690	2731	2659	2731	2748	2683	2710	2683	2694	2711	2702	2719	2663	2662	2639	2667	2691	2742	2746	2739	2743	2719	2715	2655	2742	2743	2718	2723	2730	2715	2726	2655	2659	2735	2630	2623	2699	2666	2711	2683	2663	2683	2691	2614	2686	2663	2663	2594	2623	2574	2627	2655	2559	2595	2555	2559	2592	2603	2618	2602	2591	2531	2523	2526	2570	2571	2515	2570	2491	2523	2514	2490	2494	2471	2466	2520	2417	2491	2423	2426	2443	2455	2470	2442	2439	2455	2446	2415	2431	2371	2431	2358	2395	2355	2399	2387	2399	2315	2386	2390	2355	2359	2387	2379	2322	2291	2367	2299	2286	2359	2266	2291	2251	2222	2287	2224	2223	2203	2234	2207	2247	2247	2251	2191	2235	2182	2230	2175	2166	2179	2175	2151	2139	2231	2139	2131	2118	2134	2202	2179	2214	2203	2107	2195	2223	2111	2103	2146	2118	2178	2103	2184	2150	2095	2099	2163	2147	2071	2059	2070	2120	2111	2143	2078	2118	2143	2071	2147	2047	2122	2139	2038	2026	2058	2023	2041	2019	2035	2003	2067	2055	2047	2080	2115	2047	2099	2094	2019	2027	2091	2007	1999	2039	1998	2014	2051	2082	1987	2034	2047	1995	2039	1998	2091	1991	1999	2071	2002	2071	2063	2055	1987	1979	2062	2011	1982	2039	2055	2075	2011	2064	1975	2079	2082	2003	2058	1984	2079	2014	2007	2083	1984	2027	2003	2047	2055	2039	2002	2014	1998	2018	2067	2031	2007	1994	2082	1999	2035	2078	2046	2019	2035	2007	1992	2078	2074	2018	2090	2063	2078	2070	2000	2075	2095	2016	2083	2111	2010	2084	2070	2087	1998	2047	2022	2070	2070	2062	1995	2084	2095	2024	2007	2018	2024	2030	2011	2103	2026	2106	2046	2003	2003	2063	2038	2023	2035	2003	2083	2099	2087	2003	2035	2035	2027	2083	2079	2023	2019	2079	2046	2071	2022	2103	2034	2103	2099	2007	2098	2099	2064	2022	2007	2034	2010	2091	2058	2107	2015	2095	2058	2064	2086	2006	2091	2050	2074	2047	1982	2003	2006	2074	1994	2019	2007	2016	2042	2085	2071	2067	2031	2042	2063	1971	1975	1978	1961	2035	2007	1959	1979	2026	1971	1991	1974	2059	1992	2066	1966	1998	2018	1982	1959	1958	2007	2026	2047	2063	2064	1986	2003	1994	1987	2066	2004	2067	2042	2115	2055	2127	2107	2062	2119	2139	2095	2102	2099	2113	2231	2166	2247	2215	2271	2279	2319	2291	2307	2398	2407	2470	2478	2436	2466	2531	2526	2591	2643	2666	2670	2743	2707	2718	2779	2807	2806	2850	2943	2959	2955	2971	2998	3098	3083	3094	3134	3131	3219	3266	3291	3239	3351	3336	3391	3407	3466	3438	3527	3506	3562	3495	3610	3554	3596	3627	3606	3646	3643	3655	3676	3739	3711	3786	3759	3803	3778	3871	3831	3818	3827	3883	3918	3935	3883	3895	3903	3902	3918	3971	3951	3899	3972	3906	3903	3987	3986	3971	3927	3927	3911	3979	3934	3998	3982	3899	3919	3939	3879	3863	3954	3947	3879	3867	3858	3855	3858	3855	3863	3854	3831	3871	3863	3810	3791	3835	3747	3831	3823	3775	3731	3779	3774	3727	3743	3763	3695	3703	3663	3687	3635	3643	3631	3675	3667	3594	3614	3639	3555	3603	3615	3595	3598	3539	3583	3519	3523	3578	3539	3474	3499	3462	3487	3499	3415	3411	3443	3474	3455	3411	3419	3370	3362	3439	3386	3406	3399	3334	3375	3402	3307	3334	3387	3295	3287	3311	3371	3259	3330	3323	3267	3300	3279	3315	3247	3279	3267	3255	3299	3310	3283	3287	3215	3258	3288	3247	3199	3195	3203	3202	3239	3215	3190	3223	3247	3228	3179	3247	3163	3226	3154	3166	3222	3191	3183	3139	3155	3123	3119	3172	3130	3110	3139	3103	3142	3115	3138	3139	3143	3147	3119	3063	3075	3114	3047	3015	2991	3063	2983	3031	3031	3059	2982	2951	3023	2951	2999	2938	2939	2995	2958	2966	2923	2955	2904	2907	2871	2911	2859	2823	2879	2827	2863	2819	2890	2851	2890	2803	2802	2847	2843	2824	2784	2827	2763	2814	2744	2746	2803	2735	2778	2755	2767	2789	2810	2742	2795	2719	2734	2763	2779	2795	2802	2743	2719	2747	2715	2714	2751	2715	2726	2691	2762	2710	2736	2713	2687	2755	2723	2727	2775	2739	2770	2694	2683	2732	2703	2702	2695	2734	2706	2699	2746	2683	2739	2767	2722	2711	2689	2771	2691	2694	2763	2767	2689	2739	2759	2742	2671	2758	2711	2699	2767	2686	2694	2783	2799	2775	2699	2718	2722	2695	2702	2787	2779	2711	2719	2690	2683	2679	2686	2682	2735	2689	2702	2715	2674	2746	2767	2671	2683	2662	2707	2735	2652	2734	2691	2631	2722	2675	2647	2631	2663	2631	2678	2703	2683	2619	2635	2663	2599	2599	2666	2631	2618	2579	2563	2620	2614	2583	2587	2543	2599	2574	2602	2559	2587	2514	2586	2571	2486	2574	2550	2482	2478	2451	2518	2447	2477	2487	2430	2467	2463	2463	2510	2414	2462	2399	2418	2451	2475	2458	2378	2431	2426	2458	2353	2347	2387	2399	2418	2323	2407	2382	2335	2355	2370	2302	2359	2343	2282	2343	2347	2354	2323	2283	2314	2315	2319	2291	2312	2322	2271	2235	2274	2271	2288	2219	2302	2223	2219	2200	2271	2230	2167	2195	2195	2238	2231	2151	2139	2178	2214	2207	2215	2137	2186	2210	2190	2203	2102	2112	2135	2103	2123	2175	2143	2167	2131	2087	2123	2075	2102	2091	2135	2095	2139	2099	2112	2126	2122	2154	2123	2091	2074	2123	2119	2032	2023	2075	2026	2079	2072	2066	2089	2030	2075	2035	2107	2098	2094	2099	2007	2019	1999	1999	2074	2003	2039	1967	2002	1983	2071	2047	2011	1983	2003	1990	2042	2015	2011	2020	1990	1975	1958	2058	1987	2047	2027	2014	1994	1998	2019	2006	1994	2063	2006	1959	2015	1994	1934	2012	2027	1951	1983	1935	2015	1982	2007	1947	2019	1935	1930	1951	1994	2019	1959	2023	2002	1934	2003	1963	1959	1934	1919	2018	1955	1958	1994	2006	2014	1927	1990	2020	2006	1967	1951	1939	1979	1950	1911	2035	1915	2023	1959	1970	1947	2003	1947	1962	1931	1919	1938	1958	1935	1971	2027	1979	1991	1958	1987	1954	1967	1944	1927	1987	1911	1951	1993	1946	1918	1998	1936	1922	2003	2022	1930	1954	2014	1939	2007	1938	2003	2030	1994	2010	1950	1950	1923	1947	1923	1978	1999	1979	1939	2014	1986	2014	1934	1943	1991	2010	1939	1967	1987	1992	1935	1951	1894	1909	1950	1923	1967	1930	1942	1947	1914	2008	1979	1959	1952	1967	1987	1958	1894	1935	1919	1939	1963	1890	1867	1886	1899	1922	1873	1894	1942	1907	1918	1894	1927	1859	1899	1938	1934	1903	1939	1935	1881	1859	1843	1955	1850	1859	1943	1847	1898	1875	1914	1943	1931	1947	1891	1867	1943	1922	1947	1902	1952	1959	1894	1915	1983	1914	1938	1939	1966	1975	2011	2011	2095	2030	2132	2139	2147	2163	2162	2122	2180	2174	2283	2299	2262	2263	2387	2366	2351	2382	2479	2498	2522	2502	2587	2592	2626	2630	2678	2679	2743	2799	2758	2830	2874	2911	2879	2919	2943	3035	3035	3027	3099	3095	3107	3171	3243	3251	3202	3291	3259	3330	3323	3312	3427	3375	3390	3463	3519	3499	3527	3470	3543	3567	3543	3551	3583	3615	3622	3663	3639	3695	3694	3679	3699	3707	3738	3742	3722	3759	3782	3762	3802	3806	3783	3716	3755	3731	3715	3811	3763	3743	3774	3758	3751	3811	3824	3731	3779	3763	3736	3803	3779	3738	3799	3778	3734	3742	3706	3695	3675	3663	3655	3730	3634	3639	3647	3619	3674	3619	3667	3647	3554	3611	3573	3555	3506	3507	3555	3583	3486	3467	3542	3447	3462	3499	3462	3486	3423	3399	3435	3418	3407	3371	3427	3378	3351	3307	3318	3339	3306	3256	3319	3335	3310	3239	3319	3311	3211	3271	3262	3215	3235	3219	3259	3243	3155	3174	3187	3131	3159	3191	3179	3135	3150	3147	3103	3127	3098	3130	3139	3107	3143	3119	3155	3123	3099	3087	3126	3051	3039	3043	3023	3016	3051	3046	3015	3083	3099	3059	3043	3055	3015	3043	3036	2975	2983	2975	3015	3031	2963	3039	3024	2987	2999	2946	2974	2935	2990	3014	3023	2974	2974	2975	2898	2898	2899	2888	2930	2887	2875	2859	2864	2851	2918	2935	2847	2867	2915	2835	2879	2818	2795	2826	2771	2831	2842	2815	2771	2775	2794	2807	2779	2703	2742	2703	2711	2726	2714	2695	2698	2711	2658	2671	2726	2672	2623	2663	2647	2695	2643	2686	