2926	2967	2926	2951	2958	2919	2935	2943	2903	2891	2939	2935	2914	2882	2882	2907	2870	2898	2871	2875	2882	2883	2834	2871	2855	2875	2867	2850	2863	2859	2843	2862	2810	2838	2802	2822	2799	2778	2795	2811	2771	2803	2755	2791	2766	2751	2755	2739	2783	2750	2755	2746	2750	2747	2758	2707	2710	2734	2731	2695	2735	2707	2679	2727	2726	2687	2735	2715	2699	2687	2719	2683	2707	2675	2687	2686	2678	2670	2683	2706	2715	2679	2682	2675	2694	2691	2723	2731	2703	2699	2711	2710	2677	2711	2726	2695	2715	2662	2698	2707	2735	2703	2703	2715	2703	2727	2731	2747	2744	2762	2710	2747	2754	2743	2759	2755	2707	2715	2722	2702	2731	2731	2750	2743	2755	2763	2739	2742	2767	2739	2767	2779	2742	2775	2750	2715	2746	2730	2719	2742	2750	2735	2751	2730	2711	2743	2738	2738	2759	2727	2722	2735	2715	2699	2715	2722	2711	2727	2706	2726	2691	2683	2683	2679	2718	2691	2688	2683	2687	2651	2703	2659	2672	2683	2667	2671	2667	2667	2671	2643	2632	2615	2663	2627	2627	2610	2615	2604	2591	2579	2634	2575	2603	2594	2570	2583	2578	2563	2583	2558	2555	2575	2535	2539	2547	2523	2555	2558	2526	2550	2526	2527	2530	2487	2499	2500	2479	2522	2491	2494	2502	2515	2463	2458	2487	2478	2475	2462	2446	2474	2458	2471	2458	2466	2422	2442	2432	2434	2459	2438	2446	2434	2462	2423	2430	2407	2403	2431	2415	2447	2423	2410	2403	2367	2403	2375	2419	2394	2370	2415	2347	2362	2363	2384	2354	2383	2391	2335	2395	2390	2327	2375	2331	2327	2326	2346	2335	2316	2350	2336	2306	2355	2299	2343	2311	2335	2327	2267	2299	2311	2305	2283	2330	2275	2274	2282	2330	2294	2295	2283	2303	2263	2266	2298	2254	2263	2259	2271	2272	2259	2238	2290	2255	2275	2262	2279	2266	2280	2274	2294	2271	2239	2238	2255	2242	2274	2239	2279	2222	2218	2240	2210	2247	2234	2242	2242	2207	2227	2219	2240	2194	2235	2203	2207	2210	2230	2219	2243	2231	2207	2222	2183	2231	2203	2246	2206	2183	2194	2190	2227	2199	2211	2175	2183	2207	2219	2218	2223	2187	2219	2214	2194	2187	2163	2186	2215	2175	2214	2238	2209	2219	2191	2206	2231	2211	2179	2223	2198	2179	2200	2218	2175	2203	2195	2211	2182	2186	2179	2183	2210	2174	2207	2191	2183	2223	2191	2175	2235	2223	2182	2207	2211	2242	2203	2187	2231	2216	2206	2187	2239	2246	2194	2195	2183	2176	2191	2214	2198	2187	2236	2175	2219	2211	2215	2202	2171	2179	2178	2171	2190	2199	2203	2199	2191	2202	2207	2215	2190	2199	2211	2151	2211	2191	2203	2195	2163	2158	2178	2159	2211	2222	2158	2182	2175	2170	2174	2183	2199	2186	2162	2194	2167	2176	2175	2171	2175	2147	2168	2154	2207	2183	2174	2175	2183	2175	2206	2175	2187	2135	2179	2183	2194	2155	2183	2156	2134	2139	2151	2130	2193	2118	2151	2179	2126	2167	2146	2120	2150	2163	2115	2128	2151	2179	2154	2158	2150	2159	2154	2152	2151	2135	2139	2115	2174	2111	2170	2151	2122	2154	2166	2136	2107	2122	2146	2155	2142	2130	2150	2123	2151	2166	2147	2150	2183	2150	2159	2207	2207	2187	2219	2228	2206	2250	2222	2263	2255	2254	2283	2310	2290	2307	2370	2343	2341	2386	2398	2383	2415	2465	2426	2463	2471	2479	2474	2546	2543	2555	2594	2579	2571	2615	2635	2657	2672	2720	2711	2750	2774	2767	2770	2790	2838	2819	2815	2830	2907	2919	2914	2926	2926	2971	2983	3002	3038	3027	3031	3079	3059	3075	3083	3119	3110	3123	3147	3159	3159	3198	3210	3231	3211	3247	3259	3210	3243	3287	3266	3306	3282	3278	3299	3294	3327	3294	3315	3307	3343	3347	3326	3330	3354	3375	3363	3322	3358	3358	3339	3339	3379	3358	3355	3355	3387	3378	3358	3367	3327	3358	3355	3362	3339	3311	3319	3323	3331	3311	3319	3335	3287	3278	3327	3295	3303	3262	3239	3239	3260	3255	3238	3215	3234	3207	3251	3207	3230	3195	3223	3223	3203	3166	3203	3199	3182	3175	3155	3167	3126	3151	3138	3123	3127	3135	3099	3111	3083	3066	3099	3067	3051	3079	3071	3040	3039	3054	3027	3023	3050	2986	3003	3007	3006	2979	2987	2958	2971	3003	2962	2990	2975	2947	2963	2959	2955	2935	2955	2899	2919	2926	2926	2938	2911	2914	2911	2891	2862	2930	2888	2867	2891	2842	2862	2878	2867	2832	2831	2874	2862	2854	2836	2858	2858	2802	2806	2807	2819	2827	2795	2820	2799	2799	2795	2811	2770	2759	2771	2767	2803	2751	2784	2723	2782	2730	2735	2747	2711	2738	2711	2744	2740	2695	2707	2710	2718	2715	2727	2670	2719	2715	2703	2659	2662	2679	2686	2666	2651	2663	2639	2695	2651	2667	2683	2659	2679	2663	2651	2659	2663	2639	2651	2671	2623	2639	2659	2666	2638	2671	2638	2626	2678	2639	2647	2695	2671	2631	2663	2651	2647	2662	2674	2659	2682	2647	2659	2652	2663	2662	2654	2695	2655	2627	2672	2719	2687	2663	2699	2691	2707	2666	2707	2687	2698	2722	2687	2723	2722	2702	2730	2712	2730	2723	2751	2754	2746	2750	2735	2715	2747	2739	2742	2755	2715	2779	2767	2744	2767	2763	2758	2763	2795	2767	2794	2747	2779	2779	2787	2779	2767	2783	2763	2790	2804	2814	2803	2795	2802	2803	2779	2775	2763	2795	2803	2814	2818	2774	2779	2799	2787	2767	2778	2779	2806	2787	2783	2806	2747	2778	2767	2771	2775	2786	2779	2791	2775	2795	2775	2795	2715	2730	2766	2731	2739	2779	2719	2727	2739	2759	2715	2711	2751	2745	2716	2726	2691	2743	2679	2688	2695	2707	2675	2675	2727	2715	2675	2679	2659	2695	2659	2678	2646	2667	2658	2695	2658	2654	2643	2614	2607	2615	2634	2631	2615	2631	2623	2618	2599	2635	2647	2600	2598	2591	2582	2594	2603	2587	2594	2562	2603	2590	2566	2543	2550	2543	2568	2567	2579	2590	2563	2575	2538	2563	2571	2523	2543	2519	2550	2527	2534	2506	2527	2542	2547	2494	2503	2475	2479	2511	2479	2471	2515	2455	2510	2494	2522	2450	2483	2450	2503	2442	2451	2491	2450	2491	2427	2439	2459	2479	2444	2423	2423	2423	2414	2431	2423	2419	2391	2406	2391	2394	2410	2431	2411	2366	2438	2363	2411	2415	2386	2395	2391	2395	2370	2416	2406	2411	2422	2406	2392	2362	2395	2350	2387	2351	2359	2387	2387	2403	2390	2355	2399	2394	2359	2344	2371	2399	2407	2371	2350	2367	2378	2363	2354	2402	2367	2389	2347	2347	2359	2375	2355	2406	2363	2398	2383	2371	2366	2362	2367	2375	2390	2350	2414	2347	2363	2326	2378	2398	2366	2339	2370	2375	2347	2351	2379	2371	2343	2312	2327	2378	2326	2327	2323	2371	2311	2343	2352	2303	2327	2370	2348	2327	2327	2359	2291	2342	2295	2291	2310	2302	2351	2295	2315	2342	2323	2295	2287	2298	2327	2327	2303	2287	2323	2295	2323	2327	2275	2267	2286	2270	2271	2276	2315	2298	2299	2254	2271	2307	2274	2272	2282	2266	2290	2287	2263	2270	2247	2266	2295	2239	2299	2240	2258	2235	2270	2266	2287	2271	2267	2235	2250	2286	2270	2243	2270	2247	2267	2259	2270	2299	2282	2258	2267	2255	2215	2235	2259	2235	2270	2256	2203	2259	2226	2208	2275	2263	2274	2206	2246	2207	2246	2203	2259	2255	2227	2251	2230	2257	2231	2267	2263	2238	2251	2298	2303	2258	2275	2258	2311	2331	2295	2319	2331	2303	2303	2314	2338	2346	2351	2373	2423	2411	2399	2415	2450	2450	2482	2502	2515	2527	2530	2542	2567	2595	2594	2563	2603	2643	2678	2695	2711	2691	2719	2739	2759	2771	2774	2823	2835	2839	2831	2843	2886	2874	2950	2951	2935	2982	3011	2991	2994	3026	3032	3051	3071	3095	3086	3107	3070	3127	3126	3147	3154	3171	3191	3207	3187	3195	3230	3235	3219	3218	3248	3255	3290	3278	3219	3259	3270	3282	3267	3303	3298	3302	3291	3288	3298	3303	3310	3312	3319	3295	3298	3318	3323	3291	3306	3295	3294	3294	3282	3275	3299	3315	3295	3283	3307	3294	3266	3299	3259	3263	3263	3263	3272	3271	3255	3255	3239	3219	3228	3223	3211	3198	3207	3191	3182	3208	3179	3155	3159	3146	3182	3171	3143	3159	3115	3135	3118	3138	3116	3106	3094	3071	3079	3083	3087	3062	3046	3039	3019	3051	3035	3030	3027	3014	3019	2987	2999	2986	2955	2978	2992	2967	2987	2983	2962	2987	2962	2930	2930	2942	2931	2934	2923	2919	2931	2898	2907	2903	2919	2867	2907	2883	2899	2906	2839	2882	2831	2862	2856	2851	2866	2843	2819	2831	2827	2827	2840	2819	2787	2827	2836	2803	2791	2766	2806	2791	2799	2760	2738	2771	2746	2719	2755	2723	2731	2718	2727	2719	2723	2679	2699	2683	2679	2690	2679	2683	2659	2670	2671	2691	2642	2644	2651	2626	2635	2615	2626	2619	2642	2627	2639	2635	2603	2603	2595	2582	2583	2602	2583	2563	2555	2598	2559	2567	2559	2558	2599	2587	2550	2586	2607	2595	2543	2590	2575	2559	2555	2576	2607	2567	2554	2563	2554	2591	2551	2582	2579	2559	2555	2558	2615	2567	2575	2602	2578	2570	2599	2614	2583	2614	2582	2583	2610	2591	2634	2627	2583	2635	2626	2603	2622	2619	2595	2610	2630	2643	2631	2672	2611	2619	2646	2627	2658	2635	2627	2634	2672	2630	2630	2637	2646	2678	2651	2683	2658	2675	2671	2659	2711	2671	2675	2682	2651	2686	2682	2671	2715	2663	2655	2658	2702	2691	2683	2651	2700	2691	2690	2707	2662	2679	2651	2722	2727	2670	2679	2655	2703	2682	2679	2702	2718	2679	2691	2671	2698	2663	2643	2678	2679	2643	2694	2650	2642	2686	2671	2634	2658	2634	2659	2671	2626	2651	2650	2634	2647	2651	2631	2647	2630	2599	2611	2603	2590	2591	2619	2619	2607	2586	2614	2584	2575	2571	2563	2579	2547	2592	2599	2579	2563	2571	2574	2574	2563	2543	2558	2546	2506	2507	2522	2491	2494	2531	2475	2510	2495	2490	2498	2486	2483	2455	2490	2526	2458	2467	2494	2483	2447	2454	2440	2471	2472	2450	2447	2464	2443	2414	2415	2434	2406	2383	2418	2402	2399	2402	2399	2380	2419	2406	2410	2414	2419	2407	2394	2420	2392	2399	2382	2390	2394	2351	2342	2386	2395	2367	2327	2367	2383	2355	2331	2362	2338	2350	2338	2347	2371	2334	2370	2354	2314	2319	2330	2362	2315	2303	2311	2315	2354	2315	2335	2339	2351	2350	2351	2314	2311	2314	2318	2338	2331	2327	2294	2330	2338	2318	2338	2311	2295	2351	2298	2307	2323	2327	2363	2315	2343	2314	2319	2363	2335	2302	2327	2354	2303	2334	2351	2346	2350	2322	2302	2319	2318	2323	2331	2343	2359	2378	2339	2327	2331	2334	2359	2355	2350	2366	2354	2362	2363	2338	2311	2303	2360	2326	2323	2362	2335	2310	2374	2334	2339	2335	2334	2327	2363	2323	2338	2319	2315	2367	2343	2319	2310	2339	2343	2311	2330	2335	2351	2310	2339	2342	2323	2346	2355	2362	2315	2350	2307	2362	2326	2343	2303	2343	2319	2302	2330	2314	2362	2335	2331	2347	2334	2320	2335	2308	2339	2346	2330	2315	2306	2334	2302	2302	2315	2299	2295	2352	2334	2310	2350	2327	2287	2303	2351	2334	2335	2307	2299	2318	2279	2303	2334	2346	2286	2327	2288	2286	2331	2286	2315	2294	2291	2295	2311	2283	2303	2278	2286	2306	2290	2290	2327	2299	2306	2327	2326	2299	2287	2339	2302	2319	2310	2335	2322	2351	2311	2330	2334	2378	2386	2379	2379	2427	2430	2410	2439	2438	2467	2430	2442	2510	2526	2510	2555	2534	2566	2578	2567	2611	2631	2682	2687	2679	2698	2743	2750	2763	2783	2815	2811	2850	2835	2847	2911	2906	2959	2942	2946	2968	2963	2998	3019	3038	3043	3079	3131	3102	3151	3143	3139	3139	3174	3171	3190	3195	3235	3282	3258	3290	3272	3302	3302	3323	3315	3330	3343	3375	3383	3402	3387	3382	3423	3414	3431	3403	3431	3442	3459	3442	3439	3439	3454	3431	3459	3446	3495	3487	3487	3479	3459	3467	3463	3487	3491	3447	3490	3450	3479	3463	3471	3451	3459	3459	3438	3422	3443	3443	3459	3451	3411	3423	3451	3434	3431	3375	3371	3374	3378	3359	3351	3395	3371	3343	3323	3351	3322	3322	3311	3338	3314	3299	3286	3306	3263	3255	3250	3267	3283	3218	3231	3259	3223	3215	3187	3186	3204	3175	3183	3163	3179	3194	3182	3155	3152	3127	3138	3135	3142	3115	3082	3115	3104	