2778	2771	2794	2731	2739	2747	2762	2763	2771	2747	2743	2747	2762	2719	2742	2727	2742	2735	2775	2734	2739	2755	2735	2735	2759	2756	2762	2750	2759	2715	2719	2723	2742	2711	2714	2755	2723	2739	2767	2759	2738	2771	2750	2747	2732	2710	2750	2739	2718	2703	2743	2735	2727	2739	2751	2719	2727	2735	2743	2703	2734	2739	2727	2727	2722	2715	2727	2731	2723	2723	2687	2722	2695	2727	2734	2695	2743	2723	2699	2679	2707	2703	2687	2707	2715	2674	2678	2695	2667	2690	2710	2707	2695	2650	2663	2679	2667	2683	2655	2635	2651	2663	2666	2659	2642	2638	2635	2647	2631	2627	2606	2608	2635	2642	2638	2619	2583	2587	2590	2603	2583	2587	2614	2551	2551	2576	2572	2587	2543	2580	2527	2543	2535	2523	2517	2546	2545	2523	2503	2524	2522	2555	2507	2514	2519	2487	2475	2479	2482	2459	2499	2483	2463	2460	2467	2475	2488	2483	2462	2442	2459	2431	2467	2451	2467	2442	2427	2407	2427	2398	2423	2435	2412	2394	2383	2435	2391	2410	2402	2423	2371	2382	2410	2347	2399	2374	2367	2379	2351	2371	2392	2335	2391	2346	2346	2380	2347	2360	2319	2350	2338	2302	2335	2334	2311	2355	2307	2323	2307	2339	2334	2330	2298	2343	2295	2331	2307	2314	2327	2279	2299	2278	2299	2299	2295	2295	2270	2271	2271	2258	2310	2278	2275	2262	2290	2311	2279	2306	2290	2271	2291	2287	2262	2295	2254	2239	2287	2226	2247	2231	2255	2278	2263	2247	2275	2263	2283	2267	2278	2275	2283	2238	2246	2291	2250	2263	2231	2266	2263	2226	2279	2204	2219	2251	2231	2235	2235	2254	2259	2274	2254	2219	2238	2243	2243	2234	2222	2263	2259	2260	2238	2246	2226	2271	2262	2246	2258	2238	2239	2207	2259	2236	2243	2267	2254	2283	2271	2222	2219	2230	2235	2239	2271	2250	2282	2243	2250	2259	2236	2274	2239	2282	2254	2255	2227	2231	2230	2280	2275	2246	2211	2263	2263	2234	2234	2251	2291	2234	2238	2232	2231	2282	2239	2274	2238	2283	2243	2279	2255	2271	2288	2250	2243	2279	2254	2255	2282	2279	2254	2238	2255	2263	2239	2242	2275	2255	2266	2259	2282	2278	2279	2258	2255	2234	2227	2250	2270	2291	2231	2223	2239	2279	2251	2247	2247	2223	2250	2250	2247	2231	2230	2222	2218	2235	2223	2238	2259	2258	2270	2246	2223	2223	2219	2230	2258	2227	2231	2239	2219	2227	2255	2218	2214	2218	2242	2258	2234	2199	2202	2243	2227	2206	2222	2247	2198	2207	2235	2195	2222	2246	2183	2199	2230	2210	2230	2215	2234	2191	2203	2214	2223	2219	2235	2191	2171	2218	2212	2174	2162	2191	2159	2187	2222	2206	2162	2219	2166	2191	2239	2154	2167	2210	2163	2195	2198	2144	2203	2190	2191	2151	2138	2160	2167	2194	2219	2171	2210	2178	2186	2202	2211	2230	2234	2247	2267	2271	2246	2255	2294	2279	2287	2314	2302	2346	2319	2371	2366	2350	2415	2376	2436	2430	2427	2467	2503	2526	2538	2535	2582	2550	2599	2607	2663	2675	2686	2691	2715	2727	2778	2738	2807	2811	2831	2871	2839	2863	2934	2915	2942	2951	2990	2982	3015	3035	3063	3027	3055	3111	3074	3147	3147	3152	3175	3191	3182	3232	3230	3227	3254	3247	3247	3251	3298	3282	3310	3303	3322	3354	3363	3354	3379	3367	3363	3389	3403	3368	3415	3403	3398	3415	3391	3407	3439	3407	3439	3415	3443	3443	3443	3442	3419	3431	3442	3431	3415	3427	3435	3391	3454	3403	3406	3395	3419	3411	3383	3427	3386	3380	3384	3370	3387	3379	3355	3378	3386	3346	3383	3334	3318	3349	3322	3320	3327	3283	3294	3315	3267	3306	3275	3279	3247	3267	3242	3247	3195	3211	3215	3230	3218	3175	3159	3175	3198	3190	3199	3171	3143	3142	3142	3142	3127	3147	3131	3130	3091	3123	3094	3083	3095	3098	3071	3098	3051	3095	3031	3063	3039	3019	3039	3071	3042	3043	3003	3042	3031	3030	3007	3023	2994	2995	3002	3018	3015	3023	2976	2978	2939	2999	2975	2995	2995	2967	2966	2942	2971	2982	2959	2923	2967	2983	2919	2947	2935	2954	2951	2946	2935	2939	2895	2964	2927	2887	2875	2911	2863	2895	2887	2895	2870	2871	2898	2874	2863	2847	2896	2867	2843	2823	2854	2819	2851	2835	2855	2803	2803	2831	2798	2803	2831	2796	2786	2794	2827	2790	2786	2767	2814	2787	2783	2767	2763	2743	2787	2767	2722	2774	2755	2775	2742	2755	2743	2751	2728	2763	2758	2711	2715	2726	2702	2706	2711	2746	2714	2723	2714	2711	2703	2719	2682	2675	2671	2738	2734	2715	2695	2727	2719	2722	2722	2727	2691	2694	2699	2721	2706	2686	2715	2703	2719	2687	2670	2715	2723	2727	2703	2715	2703	2714	2714	2738	2703	2735	2731	2679	2682	2734	2739	2686	2683	2695	2695	2728	2730	2727	2706	2683	2687	2695	2715	2680	2691	2722	2703	2687	2691	2683	2690	2687	2726	2659	2667	2686	2722	2702	2687	2671	2671	2683	2658	2663	2671	2691	2667	2698	2670	2674	2654	2675	2679	2699	2675	2638	2647	2694	2650	2647	2619	2654	2654	2630	2627	2656	2666	2614	2614	2619	2646	2630	2659	2594	2595	2634	2607	2611	2599	2623	2635	2598	2571	2571	2567	2562	2574	2579	2567	2558	2586	2525	2547	2547	2575	2551	2526	2536	2551	2551	2547	2539	2515	2507	2499	2539	2494	2511	2510	2487	2515	2514	2495	2490	2511	2475	2459	2468	2495	2471	2475	2464	2442	2442	2447	2466	2426	2459	2443	2435	2434	2434	2430	2430	2411	2442	2395	2438	2387	2423	2418	2399	2406	2362	2407	2395	2387	2371	2399	2366	2403	2378	2327	2362	2355	2327	2342	2367	2347	2363	2335	2356	2322	2342	2339	2330	2363	2327	2327	2318	2363	2299	2347	2322	2319	2343	2318	2311	2290	2299	2286	2331	2282	2302	2315	2299	2294	2303	2315	2286	2339	2298	2267	2279	2263	2295	2259	2315	2254	2247	2282	2259	2275	2259	2279	2251	2299	2248	2238	2291	2278	2238	2243	2288	2287	2286	2271	2251	2262	2299	2266	2306	2259	2266	2247	2254	2251	2262	2231	2287	2235	2231	2251	2259	2279	2240	2259	2278	2255	2254	2306	2259	2251	2275	2247	2271	2251	2267	2278	2279	2263	2262	2247	2259	2227	2240	2224	2275	2255	2279	2278	2254	2270	2271	2259	2282	2271	2235	2251	2255	2243	2259	2250	2235	2238	2271	2266	2250	2255	2255	2263	2238	2226	2251	2251	2242	2247	2259	2259	2254	2263	2239	2259	2267	2263	2287	2242	2255	2262	2271	2251	2243	2246	2239	2243	2267	2234	2263	2239	2256	2286	2295	2275	2234	2235	2261	2254	2302	2291	2291	2243	2250	2306	2254	2242	2278	2282	2230	2302	2262	2287	2279	2258	2267	2274	2251	2246	2227	2231	2231	2242	2291	2259	2282	2247	2231	2254	2243	2219	2247	2258	2271	2235	2259	2226	2235	2220	2262	2238	2247	2239	2230	2230	2219	2231	2235	2238	2209	2215	2219	2228	2255	2203	2219	2223	2267	2222	2183	2198	2223	2214	2231	2211	2230	2187	2191	2235	2218	2203	2190	2219	2203	2223	2190	2222	2183	2179	2182	2242	2231	2210	2203	2203	2191	2200	2168	2203	2179	2170	2191	2178	2163	2170	2191	2162	2174	2189	2163	2151	2200	2155	2183	2142	2194	2187	2151	2166	2195	2199	2171	2139	2178	2182	2151	2163	2163	2206	2195	2159	2155	2150	2180	2182	2188	2195	2199	2187	2219	2199	2211	2190	2214	2211	2207	2247	2198	2222	2242	2238	2231	2239	2255	2279	2291	2315	2294	2330	2323	2319	2375	2359	2375	2419	2458	2439	2411	2446	2515	2479	2499	2546	2559	2539	2562	2571	2631	2615	2665	2662	2706	2687	2687	2727	2734	2747	2763	2831	2859	2818	2850	2850	2919	2926	2954	2923	2947	3003	3010	2999	3055	3058	3031	3071	3086	3099	3123	3112	3167	3160	3171	3207	3183	3208	3235	3214	3247	3226	3243	3267	3262	3283	3288	3259	3278	3319	3283	3323	3307	3335	3331	3322	3363	3339	3354	3360	3351	3362	3347	3375	3371	3375	3347	3358	3375	3384	3346	3367	3370	3375	3371	3362	3367	3354	3370	3380	3343	3347	3367	3327	3342	3331	3366	3312	3299	3302	3291	3323	3275	3290	3279	3266	3286	3291	3254	3275	3251	3255	3235	3263	3254	3222	3206	3214	3179	3205	3194	3187	3195	3183	3151	3143	3163	3158	3127	3131	3163	3135	3123	3121	3083	3082	3079	3099	3111	3055	3066	3078	3087	3047	3031	3047	3031	3035	3027	3031	3022	3010	3007	2991	3003	3007	3023	2990	2974	2982	2966	2958	2983	2974	2947	2962	2963	2975	2939	2979	2951	2963	2954	2927	2927	2910	2923	2930	2912	2915	2887	2887	2926	2886	2939	2902	2907	2927	2887	2886	2899	2875	2910	2866	2854	2878	2878	2850	2886	2887	2879	2870	2855	2839	2839	2858	2823	2834	2839	2838	2809	2814	2795	2823	2775	2799	2807	2803	2791	2799	2762	2766	2758	2767	2767	2796	2747	2743	2755	2731	2758	2739	2718	2735	2739	2698	2739	2738	2718	2739	2731	2727	2739	2707	2738	2707	2695	2702	2714	2703	2719	2691	2691	2699	2707	2686	2686	2698	2699	2731	2730	2730	2703	2695	2690	2691	2715	2714	2714	2699	2707	2718	2703	2731	2694	2707	2726	2687	2702	2707	2715	2714	2711	2746	2736	2759	2750	2699	2702	2735	2711	2746	2743	2751	2723	2710	2767	2735	2743	2758	2751	2726	2766	2739	2743	2762	2727	2735	2718	2746	2746	2731	2751	2726	2719	2771	2731	2719	2723	2775	2767	2739	2739	2711	2770	2730	2766	2766	2738	2751	2759	2734	2707	2747	2715	2751	2727	2743	2710	2714	2719	2690	2703	2719	2696	2686	2739	2706	2726	2714	2702	2734	2707	2698	2703	2723	2667	2679	2711	2671	2655	2674	2671	2680	2649	2663	2647	2640	2655	2680	2651	2646	2654	2619	2626	2622	2639	2627	2606	2607	2623	2622	2623	2611	2603	2592	2575	2591	2610	2595	2590	2579	2579	2591	2590	2555	2542	2550	2550	2529	2571	2583	2547	2567	2535	2555	2526	2502	2499	2511	2551	2507	2525	2478	2506	2510	2543	2510	2502	2483	2490	2499	2503	2466	2447	2475	2475	2462	2487	2451	2452	2422	2443	2426	2443	2435	2447	2415	2451	2445	2447	2418	2454	2435	2435	2402	2407	2398	2379	2399	2431	2427	2391	2372	2394	2383	2366	2366	2378	2406	2358	2398	2350	2350	2359	2371	2371	2394	2398	2334	2360	2358	2334	2326	2355	2339	2330	2339	2339	2331	2335	2355	2343	2347	2319	2355	2366	2343	2319	2362	2334	2330	2334	2297	2303	2303	2295	2306	2330	2331	2335	2310	2301	2295	2318	2314	2343	2319	2344	2330	2334	2319	2339	2295	2311	2355	2339	2315	2299	2315	2334	2343	2350	2342	2307	2355	2310	2318	2330	2339	2338	2346	2311	2294	2343	2323	2311	2311	2311	2311	2352	2358	2317	2343	2354	2346	2319	2338	2295	2311	2294	2311	2328	2342	2323	2291	2319	2323	2314	2307	2318	2355	2347	2323	2310	2335	2314	2347	2374	2375	2310	2354	2339	2342	2359	2330	2350	2303	2307	2351	2326	2311	2311	2303	2326	2347	2363	2303	2330	2351	2311	2351	2307	2351	2303	2314	2299	2299	2334	2311	2298	2359	2306	2343	2295	2319	2311	2338	2338	2299	2322	2307	2290	2351	2327	2303	2314	2298	2350	2303	2339	2306	2287	2283	2327	2306	2315	2334	2286	2303	2327	2311	2299	2318	2283	2326	2307	2294	2267	2283	2287	2287	2311	2299	2291	2271	2271	2294	2267	2303	2302	2275	2258	2283	2250	2239	2263	2274	2263	2283	2287	2242	2263	2246	2262	2256	2239	2271	2271	2235	2231	2227	2255	2231	2263	2250	2239	2223	2231	2255	2267	2247	2259	2263	2254	2247	2235	2223	2247	2263	2251	2239	2255	2237	2231	2234	2294	2266	2218	2258	2246	2263	2275	2279	2295	2246	2282	2258	2282	2298	2271	2282	2278	2294	2320	2327	2303	2363	2330	2347	2376	2427	2371	2423	2394	2442	2463	2443	2475	2518	2474	2498	2531	2562	2559	2582	2614	2606	2627	2663	2664	2675	2727	2750	2711	2755	2787	2811	2791	2803	2839	2870	2903	2878	2922	2904	2947	2950	2987	2987	3018	3082	3043	3070	3098	3091	3147	3127	3154	3166	3188	3206	3191	3227	3198	3263	3267	3259	3247	3267	3323	3314	3334	3327	3311	3318	3351	3363	3383	3358	3371	3391	3379	3387	3375	3383	3402	3391	3431	3435	3438	3427	3443	3451	3447	3459	3454	3426	3431	3418	3419	3446	3438	3423	3427	3403	3422	3415	3423	3395	3415	3419	3395	3419	3415	3402	3438	3391	3403	