2100	2095	2090	2094	2131	2155	2123	2083	2107	2091	2127	2110	2098	2122	2103	2079	2138	2099	2094	2143	2098	2102	2155	2151	2139	2162	2182	2171	2146	2170	2179	2195	2219	2207	2211	2251	2230	2278	2267	2311	2326	2319	2327	2386	2355	2375	2415	2434	2443	2443	2470	2451	2479	2523	2551	2590	2575	2616	2606	2646	2638	2646	2690	2703	2719	2744	2778	2775	2774	2835	2835	2870	2867	2887	2891	2919	2971	2943	2975	2963	2979	3023	3035	3043	3082	3071	3083	3094	3119	3119	3158	3163	3171	3183	3183	3183	3183	3191	3259	3231	3243	3250	3278	3234	3275	3307	3291	3322	3288	3275	3314	3310	3319	3314	3335	3330	3351	3310	3338	3319	3346	3346	3338	3338	3351	3343	3343	3322	3350	3334	3311	3339	3315	3347	3327	3350	3311	3291	3308	3303	3283	3294	3303	3251	3266	3267	3287	3239	3251	3219	3223	3235	3219	3255	3240	3239	3210	3231	3219	3195	3182	3219	3182	3183	3155	3175	3146	3130	3119	3152	3151	3138	3103	3095	3106	3118	3099	3111	3091	3071	3067	3099	3075	3083	3095	3043	3074	3047	3062	3039	3006	3015	3014	3027	3038	3003	3031	3015	2991	2987	2999	3002	2987	2983	2979	2990	2967	2963	2981	2963	2991	2947	2950	2979	2955	2954	2971	2915	2922	2955	2951	2924	2927	2943	2914	2919	2943	2939	2924	2938	2899	2915	2895	2939	2895	2915	2890	2943	2915	2890	2898	2891	2898	2863	2906	2883	2902	2863	2912	2867	2887	2851	2867	2842	2863	2847	2842	2838	2824	2835	2840	2834	2811	2811	2807	2799	2847	2795	2827	2779	2838	2799	2795	2763	2775	2779	2807	2747	2758	2782	2747	2803	2755	2743	2739	2763	2763	2742	2746	2779	2743	2727	2743	2747	2739	2726	2703	2711	2703	2699	2714	2719	2707	2746	2699	2718	2699	2735	2711	2675	2722	2687	2690	2683	2707	2735	2710	2710	2719	2687	2694	2702	2731	2726	2675	2707	2719	2682	2702	2703	2702	2695	2691	2701	2675	2671	2691	2672	2707	2670	2682	2687	2687	2695	2679	2695	2667	2718	2667	2711	2682	2711	2683	2695	2689	2707	2679	2703	2695	2703	2679	2671	2703	2695	2707	2655	2703	2714	2695	2683	2699	2702	2663	2675	2683	2695	2655	2683	2690	2654	2674	2710	2682	2682	2683	2680	2683	2658	2667	2650	2663	2687	2671	2639	2615	2630	2639	2647	2607	2639	2619	2634	2655	2607	2639	2615	2599	2618	2603	2615	2615	2606	2623	2575	2562	2567	2579	2590	2567	2599	2555	2559	2554	2543	2523	2554	2570	2531	2550	2554	2547	2547	2523	2551	2495	2547	2515	2494	2519	2486	2487	2483	2503	2499	2471	2487	2494	2518	2487	2471	2491	2503	2447	2443	2479	2474	2467	2464	2475	2467	2455	2447	2463	2454	2439	2435	2454	2443	2426	2434	2402	2399	2403	2407	2378	2439	2383	2391	2411	2386	2378	2410	2390	2388	2379	2411	2383	2362	2346	2367	2359	2343	2374	2355	2319	2351	2327	2359	2338	2342	2335	2359	2366	2383	2334	2339	2334	2327	2306	2343	2327	2338	2323	2287	2299	2319	2315	2323	2323	2326	2343	2279	2338	2298	2286	2326	2280	2299	2302	2315	2331	2307	2283	2263	2298	2275	2303	2283	2263	2294	2258	2307	2283	2278	2258	2255	2298	2263	2254	2251	2252	2291	2298	2311	2250	2282	2271	2271	2288	2251	2263	2267	2259	2278	2243	2270	2286	2250	2259	2259	2258	2262	2226	2254	2263	2284	2246	2223	2251	2275	2280	2282	2273	2250	2242	2263	2247	2246	2235	2243	2302	2271	2235	2216	2238	2231	2287	2238	2266	2271	2246	2283	2290	2290	2274	2255	2270	2255	2255	2267	2290	2235	2267	2239	2255	2262	2246	2283	2276	2239	2292	2291	2295	2242	2274	2239	2238	2262	2271	2295	2262	2279	2271	2227	2274	2270	2247	2246	2266	2258	2277	2258	2259	2250	2259	2266	2238	2279	2244	2251	2278	2274	2259	2283	2275	2263	2270	2267	2263	2223	2266	2251	2235	2247	2250	2282	2266	2263	2246	2239	2238	2227	2255	2259	2235	2274	2259	2287	2262	2283	2247	2259	2274	2227	2230	2275	2251	2282	2230	2223	2243	2263	2219	2243	2247	2242	2231	2223	2227	2219	2232	2231	2267	2238	2271	2262	2219	2243	2263	2219	2246	2203	2218	2214	2238	2218	2254	2239	2246	2239	2258	2235	2215	2231	2191	2242	2243	2210	2206	2211	2199	2223	2215	2200	2248	2219	2194	2206	2199	2226	2234	2226	2203	2215	2194	2211	2214	2175	2222	2207	2199	2186	2211	2176	2167	2199	2151	2167	2199	2199	2174	2150	2206	2148	2219	2159	2199	2135	2170	2171	2119	2151	2139	2127	2151	2182	2151	2115	2167	2115	2136	2163	2155	2118	2150	2154	2163	2163	2086	2110	2126	2107	2119	2106	2138	2150	2143	2095	2114	2111	2087	2103	2091	2102	2123	2111	2111	2154	2123	2111	2114	2166	2123	2111	2114	2147	2127	2131	2143	2155	2150	2190	2207	2187	2171	2207	2203	2206	2227	2227	2271	2251	2307	2311	2311	2326	2379	2390	2354	2379	2394	2459	2427	2495	2467	2490	2538	2563	2531	2575	2594	2635	2627	2667	2679	2667	2707	2747	2783	2783	2767	2803	2811	2847	2859	2894	2871	2915	2938	2918	2951	2959	2971	2975	3023	3059	3042	3063	3110	3099	3102	3111	3127	3151	3163	3195	3195	3195	3199	3203	3239	3238	3243	3258	3259	3263	3275	3263	3286	3275	3287	3310	3311	3290	3319	3283	3314	3347	3306	3331	3342	3307	3323	3339	3311	3355	3342	3355	3323	3310	3347	3323	3311	3344	3323	3283	3319	3295	3283	3326	3323	3298	3304	3299	3315	3263	3298	3294	3271	3248	3295	3263	3255	3251	3226	3214	3234	3235	3182	3199	3178	3183	3199	3166	3191	3167	3186	3175	3170	3147	3127	3150	3163	3130	3107	3103	3123	3134	3119	3099	3098	3111	3079	3059	3059	3079	3051	3071	3042	3000	3031	3035	3011	3011	3027	3031	3019	2995	3031	3007	3015	2967	3003	2974	2959	2959	2958	2991	2954	2935	2963	2935	2962	2947	2939	2967	2930	2951	2926	2919	2935	2922	2919	2900	2942	2900	2919	2897	2907	2935	2887	2903	2891	2880	2879	2902	2915	2882	2886	2871	2867	2854	2866	2870	2855	2866	2874	2863	2839	2862	2847	2871	2875	2879	2823	2851	2814	2798	2819	2850	2822	2807	2815	2779	2802	2767	2763	2803	2807	2751	2783	2782	2766	2766	2754	2742	2775	2715	2758	2727	2726	2751	2695	2711	2707	2695	2671	2701	2699	2711	2730	2719	2718	2678	2679	2707	2703	2691	2671	2675	2651	2687	2643	2670	2686	2647	2662	2635	2679	2667	2630	2646	2663	2670	2643	2639	2675	2663	2671	2651	2662	2647	2682	2647	2643	2631	2650	2675	2663	2687	2650	2683	2679	2670	2639	2635	2679	2651	2683	2627	2694	2650	2647	2688	2654	2694	2691	2667	2707	2643	2682	2694	2671	2682	2694	2671	2658	2651	2674	2635	2671	2656	2642	2695	2667	2654	2675	2703	2699	2679	2699	2683	2707	2699	2675	2663	2695	2679	2654	2671	2631	2667	2655	2655	2663	2667	2626	2663	2643	2662	2675	2623	2626	2639	2615	2655	2643	2635	2627	2615	2611	2615	2599	2611	2630	2607	2591	2599	2586	2623	2583	2626	2611	2610	2571	2594	2574	2622	2612	2570	2552	2559	2547	2598	2587	2555	2591	2539	2572	2547	2543	2519	2514	2531	2559	2519	2563	2536	2511	2487	2542	2534	2519	2511	2486	2495	2515	2467	2504	2499	2467	2538	2514	2486	2455	2475	2441	2470	2438	2459	2447	2439	2431	2470	2458	2455	2439	2470	2399	2443	2407	2435	2443	2403	2379	2403	2410	2402	2407	2394	2358	2362	2359	2362	2375	2371	2395	2383	2371	2379	2379	2355	2375	2382	2359	2350	2367	2318	2330	2343	2346	2322	2350	2329	2327	2315	2303	2302	2314	2278	2282	2275	2339	2315	2306	2291	2258	2294	2303	2298	2298	2327	2271	2271	2310	2259	2259	2272	2307	2275	2271	2267	2267	2227	2283	2251	2275	2266	2243	2243	2235	2251	2275	2219	2231	2250	2275	2235	2263	2256	2227	2226	2231	2264	2238	2250	2223	2255	2198	2218	2259	2210	2247	2242	2259	2275	2235	2246	2239	2222	2215	2207	2210	2218	2219	2235	2216	2199	2223	2219	2187	2207	2238	2211	2211	2183	2222	2210	2210	2227	2195	2219	2251	2234	2219	2198	2211	2247	2222	2234	2199	2219	2179	2230	2194	2196	2198	2214	2183	2226	2211	2243	2203	2223	2247	2222	2224	2227	2239	2227	2251	2191	2194	2199	2223	2176	2207	2207	2190	2194	2191	2251	2227	2222	2234	2227	2207	2243	2242	2211	2234	2214	2259	2214	2207	2207	2211	2188	2230	2255	2203	2247	2200	2235	2223	2200	2239	2218	2238	2190	2219	2206	2187	2213	2195	2247	2195	2207	2191	2190	2224	2226	2171	2183	2179	2199	2215	2214	2174	2159	2183	2191	2231	2214	2186	2238	2203	2211	2211	2179	2167	2210	2207	2191	2182	2215	2207	2214	2171	2198	2198	2202	2199	2158	2218	2194	2175	2210	2207	2166	2232	2187	2217	2183	2191	2159	2146	2159	2178	2195	2203	2214	2155	2170	2183	2203	2175	2195	2195	2183	2178	2178	2163	2178	2175	2171	2155	2178	2160	2175	2174	2162	2179	2166	2147	2146	2138	2119	2175	2116	2155	2130	2138	2159	2114	2118	2123	2154	2127	2099	2107	2167	2155	2095	2151	2119	2111	2123	2099	2147	2103	2104	2135	2139	2099	2132	2127	2123	2084	2094	2128	2094	2130	2107	2078	2079	2126	2127	2127	2107	2122	2119	2117	2098	2135	2099	2132	2135	2107	2095	2158	2131	2127	2154	2127	2179	2142	2166	2187	2203	2211	2207	2206	2231	2247	2274	2259	2263	2267	2287	2331	2306	2306	2335	2378	2383	2431	2399	2439	2439	2463	2491	2511	2511	2527	2519	2559	2600	2591	2634	2631	2654	2663	2718	2751	2771	2759	2790	2790	2827	2826	2830	2862	2879	2907	2920	2911	2922	2951	2979	2971	3024	3019	3012	3071	3071	3094	3071	3111	3130	3111	3159	3150	3174	3159	3167	3207	3202	3207	3178	3250	3227	3227	3258	3223	3258	3294	3282	3259	3275	3318	3299	3322	3326	3310	3330	3347	3330	3338	3307	3346	3342	3299	3355	3322	3322	3311	3359	3354	3327	3347	3339	3366	3311	3315	3302	3347	3311	3314	3295	3303	3318	3283	3299	3280	3307	3294	3303	3283	3283	3275	3282	3294	3274	3243	3243	3227	3211	3256	3199	3222	3231	3186	3226	3187	3186	3207	3187	3147	3159	3159	3139	3163	3155	3143	3118	3154	3095	3107	3103	3110	3091	3083	3079	3087	3095	3091	3051	3071	3071	3043	3071	3050	3051	3059	3035	3054	3006	3038	2983	3039	3038	3039	2982	2979	2978	3002	2995	2998	2966	2963	2962	2967	2943	2982	2943	2992	2922	2935	2943	2947	2963	2931	2943	2950	2927	2955	2911	2910	2955	2959	2931	2922	2908	2923	2936	2911	2910	2890	2899	2879	2918	2879	2851	2888	2863	2879	2891	2875	2867	2890	2850	2879	2859	2830	2839	2859	2823	2850	2823	2795	2818	2835	2806	2787	2787	2806	2819	2768	2796	2775	2779	2803	2786	2791	2779	2771	2803	2750	2735	2771	2767	2766	2735	2719	2739	2770	2739	2758	2730	2751	2743	2735	2758	2743	2719	2739	2734	2728	2719	2703	2743	2727	2711	2695	2760	2723	2735	2747	2762	2727	2754	2730	2735	2747	2763	2703	2743	2707	2751	2719	2758	2727	2747	2735	2730	2727	2739	2771	2734	2746	2746	2754	2770	2727	2727	2778	2754	2742	2722	2726	2743	2755	2739	2751	2771	2775	2774	2771	2742	2779	2755	2799	2787	2770	2791	2758	2783	2776	2771	2763	2791	2738	2759	2734	2754	2759	2759	2763	2755	2763	2743	2762	2759	2726	2740	2763	2747	2754	2731	2726	2715	2699	2763	2758	2735	2719	2731	2722	2711	2739	2710	2719	2682	2723	2702	2699	2667	2703	2659	2706	2678	2667	2651	2662	2671	2663	2655	2699	2671	2687	2662	2639	2639	2639	2610	2623	2654	2651	2611	2615	2619	2613	2603	2647	2635	2611	2630	2579	2595	2583	2607	2578	2555	2595	2627	2559	2559	2563	2563	2543	2547	2574	2551	2538	2554	2550	2526	2546	2547	2551	2551	2539	2515	2471	2538	2506	2495	2514	2542	2487	2475	2483	2463	2479	2483	2478	2499	2475	2487	2463	2450	2475	2463	2475	2467	2435	2459	2455	2455	2407	2418	2455	2438	2430	2455	2419	2426	2415	2410	2386	2407	2387	2387	2415	2407	2370	2380	2394	2395	2375	2378	2335	2362	2343	2350	2378	2375	2363	2378	2383	2355	2335	2315	2335	2310	2351	2335	2330	2359	2310	2314	2311	2351	2359	2336	2314	2327	2315	2338	