3251	3178	3159	3155	3239	3131	3219	3114	3162	3159	3179	3147	3091	3067	3071	3027	3070	3067	3035	3107	3098	3071	3006	2974	3039	3035	3012	3042	2959	2987	2931	3039	3023	3011	2927	3003	3011	2899	2995	2995	2939	2879	2939	2871	2879	2863	2862	2935	2867	2939	2955	2915	2883	2938	2951	2922	2838	2838	2947	2931	2843	2862	2883	2927	2914	2855	2927	2842	2887	2899	2947	2838	2835	2943	2874	2847	2859	2935	2827	2915	2823	2830	2827	2931	2914	2826	2910	2879	2859	2934	2914	2907	2915	2819	2886	2839	2914	2929	2939	2903	2911	2802	2871	2828	2819	2802	2886	2842	2815	2815	2826	2822	2839	2823	2899	2903	2791	2799	2798	2904	2863	2819	2818	2883	2783	2779	2870	2886	2770	2851	2835	2859	2779	2759	2863	2822	2847	2850	2738	2806	2836	2778	2814	2818	2831	2814	2818	2763	2811	2715	2686	2791	2686	2704	2783	2758	2667	2727	2670	2663	2715	2726	2730	2631	2695	2667	2706	2607	2618	2679	2638	2619	2579	2686	2670	2643	2570	2618	2539	2586	2554	2578	2634	2526	2595	2608	2610	2623	2535	2594	2490	2486	2502	2511	2487	2575	2547	2502	2462	2550	2455	2543	2543	2538	2475	2523	2467	2459	2522	2499	2494	2499	2450	2495	2498	2399	2480	2407	2471	2482	2438	2454	2427	2446	2475	2406	2423	2358	2371	2455	2435	2339	2427	2350	2411	2414	2346	2394	2442	2327	2338	2334	2307	2402	2314	2354	2302	2326	2415	2307	2368	2395	2323	2367	2407	2298	2375	2295	2290	2279	2379	2286	2383	2343	2343	2299	2287	2343	2326	2366	2326	2351	2331	2274	2326	2283	2279	2312	2347	2278	2314	2270	2294	2234	2326	2237	2235	2275	2254	2326	2263	2330	2255	2267	2238	2218	2266	2223	2330	2215	2231	2247	2307	2251	2314	2218	2287	2219	2231	2294	2307	2258	2251	2307	2303	2222	2298	2311	2195	2203	2306	2287	2207	2307	2206	2300	2302	2227	2198	2242	2307	2238	2215	2311	2239	2307	2235	2203	2203	2283	2231	2238	2227	2239	2267	2215	2238	2215	2311	2199	2235	2195	2314	2315	2286	2266	2291	2203	2193	2212	2294	2254	2198	2194	2247	2274	2243	2282	2195	2227	2191	2199	2298	2279	2247	2198	2190	2263	2275	2278	2275	2254	2184	2174	2211	2167	2267	2223	2202	2215	2194	2275	2159	2227	2162	2155	2167	2238	2183	2227	2250	2218	2155	2142	2147	2206	2222	2227	2159	2187	2210	2235	2147	2239	2239	2218	2158	2143	2210	2123	2218	2215	2150	2115	2210	2126	2142	2215	2222	2147	2219	2150	2223	2162	2126	2167	2195	2223	2110	2138	2174	2203	2115	2171	2110	2106	2102	2119	2211	2123	2146	2171	2227	2163	2151	2167	2151	2107	2203	2102	2106	2142	2143	2142	2211	2146	2166	2175	2110	2159	2091	2103	2094	2091	2146	2155	2135	2182	2187	2094	2139	2143	2175	2094	2111	2202	2192	2158	2200	2198	2115	2108	2114	2183	2110	2063	2187	2154	2079	2099	2191	2067	2139	2103	2168	2122	2114	2159	2158	2158	2119	2063	2075	2080	2075	2056	2047	2099	2111	2087	2066	2047	2151	2135	2070	2155	2123	2111	2027	2064	2043	2034	2136	2074	2054	2131	2031	2063	2087	2071	2059	2039	2038	2062	2010	2058	2001	1999	2027	2007	2103	2094	2082	2098	2070	2086	2086	1995	2075	2095	2006	2087	2075	2043	2030	2022	1983	1994	1991	2006	2037	2106	2046	2076	2018	2120	2118	2131	2123	2128	2159	2062	2159	2095	2168	2219	2227	2246	2199	2243	2178	2211	2223	2339	2271	2375	2383	2419	2360	2390	2482	2406	2482	2567	2547	2603	2558	2647	2643	2667	2670	2754	2779	2710	2831	2762	2775	2819	2875	2911	2886	2911	2931	3026	3011	3054	3115	3147	3166	3127	3242	3179	3235	3275	3223	3262	3259	3295	3383	3335	3387	3443	3431	3390	3463	3426	3538	3439	3555	3474	3575	3543	3514	3527	3551	3555	3639	3666	3631	3563	3679	3646	3626	3684	3591	3706	3655	3603	3635	3622	3719	3694	3659	3619	3695	3627	3619	3647	3679	3711	3658	3722	3643	3666	3687	3615	3603	3607	3622	3635	3646	3616	3663	3594	3663	3583	3654	3570	3563	3575	3592	3639	3583	3575	3615	3543	3599	3523	3582	3507	3506	3559	3558	3607	3591	3502	3562	3503	3490	3578	3551	3567	3478	3475	3531	3435	3459	3514	3443	3472	3438	3415	3422	3507	3395	3395	3379	3394	3383	3375	3471	3430	3382	3391	3411	3367	3366	3426	3363	3431	3323	3378	3359	3395	3347	3324	3370	3383	3386	3399	3291	3355	3363	3323	3350	3370	3371	3290	3291	3279	3327	3307	3326	3367	3247	3331	3290	3307	3338	3231	3295	3290	3243	3330	3246	3302	3211	3279	3283	3315	3307	3226	3271	3247	3223	3271	3262	3231	3198	3183	3307	3302	3227	3198	3235	3275	3199	3203	3203	3171	3175	3227	3243	3211	3147	3202	3190	3239	3127	3190	3207	3115	3199	3170	3199	3102	3135	3183	3146	3183	3155	3055	3048	3047	3062	3151	3107	3107	3086	3083	3031	3004	2975	3071	2959	3055	3011	2968	2943	2930	2991	2931	2931	2911	2991	2947	2875	2947	2903	2863	2855	2855	2850	2838	2851	2855	2919	2870	2819	2827	2863	2850	2891	2835	2847	2838	2803	2874	2791	2823	2851	2860	2779	2810	2737	2771	2731	2838	2755	2759	2731	2724	2823	2731	2830	2734	2710	2703	2787	2759	2731	2707	2782	2759	2751	2798	2695	2719	2782	2711	2683	2719	2718	2687	2714	2763	2767	2731	2779	2719	2759	2744	2671	2778	2662	2667	2711	2739	2666	2654	2651	2719	2735	2718	2723	2751	2751	2703	2736	2634	2643	2650	2635	2619	2719	2687	2635	2647	2710	2683	2623	2715	2707	2703	2642	2642	2590	2599	2703	2655	2614	2622	2583	2615	2687	2655	2690	2595	2582	2586	2635	2583	2667	2655	2648	2563	2583	2655	2566	2642	2543	2550	2538	2610	2587	2563	2575	2591	2531	2623	2531	2527	2558	2607	2534	2595	2506	2499	2559	2607	2502	2532	2583	2567	2511	2578	2479	2574	2523	2578	2495	2463	2450	2479	2503	2531	2436	2451	2515	2435	2446	2422	2515	2419	2503	2440	2410	2450	2414	2451	2451	2395	2427	2423	2390	2434	2479	2479	2378	2367	2375	2366	2375	2375	2383	2438	2406	2375	2367	2339	2447	2411	2391	2343	2400	2322	2379	2418	2411	2399	2395	2332	2359	2415	2326	2370	2379	2410	2403	2410	2330	2284	2310	2318	2391	2395	2315	2391	2383	2383	2388	2282	2367	2311	2315	2378	2334	2279	2270	2334	2371	2367	2256	2314	2307	2355	2263	2347	2299	2274	2315	2235	2314	2243	2262	2310	2278	2246	2278	2322	2322	2282	2291	2218	2243	2290	2210	2231	2256	2299	2254	2275	2234	2291	2246	2210	2231	2199	2271	2199	2257	2295	2263	2187	2239	2168	2192	2247	2186	2198	2255	2158	2238	2247	2203	2248	2179	2251	2179	2239	2187	2198	2226	2175	2211	2195	2162	2127	2143	2199	2222	2119	2227	2160	2126	2104	2182	2211	2175	2139	2162	2183	2103	2183	2103	2130	2147	2191	2207	2194	2151	2171	2103	2095	2118	2162	2107	2079	2087	2071	2187	2130	2191	2082	2127	2067	2115	2090	2078	2070	2106	2183	2155	2071	2127	2066	2139	2147	2168	2162	2067	2067	2126	2058	2082	2055	2063	2056	2147	2172	2099	2138	2102	2047	2114	2138	2103	2106	2108	2131	2086	2082	2119	2123	2062	2128	2110	2043	2134	2146	2047	2047	2123	2103	2071	2134	2098	2042	2047	2094	2047	2152	2062	2091	2038	2134	2135	2034	2130	2070	2122	2039	2130	2035	2135	2027	2023	2135	2087	2034	2115	2034	2031	2074	2079	2098	2115	2015	2047	2031	2082	2122	2107	2043	2127	2038	2074	2027	2131	2139	2007	2118	2127	2099	2054	2091	2035	2051	2130	2026	2123	2091	2090	2014	2091	2087	2094	2047	2011	2011	2058	2047	2007	2107	2007	2127	2010	2067	2087	2059	2074	2094	2103	2091	1998	2023	2082	2083	1995	2058	1983	1982	1990	2083	1992	2007	2047	2019	2042	2003	2035	2054	1995	1983	2047	2055	2047	1987	1959	2047	2051	1938	1951	1950	2038	2007	1954	1991	2006	1999	2047	2017	2039	1978	1946	1935	2018	1999	2015	1947	1944	2002	1962	1922	1918	1987	1934	1978	1942	1999	1935	1939	1914	1914	2003	1922	1990	1922	1946	1915	1913	1959	1930	1927	2026	2031	1983	2035	2006	1974	1974	2047	1962	2051	1958	2022	2039	2014	2075	2022	2010	2094	2015	2006	2091	2019	2035	2042	2086	2103	2107	2098	2118	2234	2243	2254	2195	2231	2235	2307	2295	2331	2310	2360	2459	2406	2503	2436	2447	2482	2567	2510	2563	2567	2579	2634	2703	2665	2695	2739	2735	2855	2798	2942	2854	2899	2919	3022	3047	3026	3094	3043	3146	3066	3103	3167	3219	3151	3174	3214	3223	3259	3352	3315	3295	3407	3335	3386	3471	3390	3434	3423	3491	3467	3490	3467	3503	3551	3555	3618	3546	3635	3666	3651	3567	3579	3587	3583	3627	3690	3603	3643	3631	3686	3687	3619	3630	3706	3735	3651	3686	3615	3647	3646	3723	3630	3643	3664	3731	3638	3619	3627	3691	3679	3680	3603	3615	3623	3603	3679	3579	3571	3578	3658	3615	3614	3634	3623	3618	3595	3631	3619	3519	3563	3583	3607	3499	3582	3582	3539	3495	3558	3507	3475	3527	3451	3503	3447	3471	3523	3431	3463	3419	3426	3507	3438	3486	3399	3403	3443	3435	3490	3419	3422	3403	3443	3398	3438	3438	3351	3406	3339	3331	3367	3378	3326	3415	3395	3411	3407	3306	3359	3347	3288	3367	3331	3319	3287	3322	3376	3322	3367	3359	3259	3263	3315	3338	3250	3291	3359	3327	3331	3343	3243	3307	3215	3327	3291	3239	3310	3319	3239	3307	3298	3243	3258	3243	3298	3263	3203	3258	3275	3179	3247	3235	3199	3215	3259	3235	3250	3158	3234	3199	3131	3203	3215	3135	3130	3187	3094	3195	3167	3071	3178	3086	3107	3087	3091	3088	3079	3114	3095	3095	3018	2995	3002	2983	3051	3014	3067	3019	2992	3047	2987	2975	2911	2975	2999	2935	2903	2987	2962	2943	2962	2922	2875	2903	2943	2943	2891	2896	2919	2935	2908	2859	2851	2842	2863	2790	2807	2771	2855	2859	2831	2790	2783	2755	2758	2807	2794	2766	2750	2755	2815	2726	2798	2714	2802	2734	2774	2746	2763	2771	2714	2807	2802	2798	2719	2771	2706	2774	2743	2754	2767	2731	2697	2679	2690	2683	2776	2763	2687	2699	2758	2670	2659	2774	2675	2782	2743	2687	2746	2743	2675	2670	2746	2727	2731	2678	2675	2663	2667	2667	2663	2675	2731	2663	2679	2691	2703	2683	2674	2775	2695	2771	2655	2666	2710	2715	2667	2715	2686	2755	2752	2666	2747	2651	2675	2663	2711	2759	2751	2646	2639	2754	2647	2654	2655	2743	2647	2702	2654	2695	2715	2727	2722	2719	2643	2627	2615	2627	2608	2618	2660	2690	2598	2687	2611	2659	2618	2579	2559	2662	2635	2551	2622	2542	2579	2626	2603	2515	2555	2515	2522	2523	2519	2603	2591	2518	2503	2551	2507	2571	2543	2480	2475	2507	2523	2478	2475	2503	2443	2450	2438	2498	2455	2431	2419	2426	2426	2455	2431	2447	2406	2418	2422	2446	2410	2502	2483	2399	2387	2390	2403	2407	2462	2475	2379	2371	2459	2442	2472	2370	2418	2371	2355	2354	2439	2415	2383	2347	2399	2427	2343	2390	2339	2427	2427	2335	2406	2366	2331	2391	2411	2410	2378	2410	2319	2343	2323	2299	2367	2311	2303	2331	2278	2378	2279	2282	2371	2282	2303	2255	2343	2342	2331	2302	2250	2347	2326	2330	2247	2270	2238	2315	2263	2246	2230	2243	2230	2254	2263	2207	2274	2298	2190	2307	2222	2207	2207	2199	2274	2278	2214	2294	2246	2263	2295	2223	2254	2202	2279	2198	2246	2291	2219	2286	2267	2254	2279	2200	2183	2179	2263	2183	2186	2282	2175	2182	2203	2222	2210	2211	2175	2231	2170	2206	2199	2207	2171	2159	2214	2175	2287	2206	2230	2174	2173	2287	2251	2290	2202	2286	2179	2235	2188	2270	2199	2186	2202	2199	2199	2175	2271	2274	2247	2222	2163	2199	2215	2211	2202	2175	2207	2163	2183	2191	2191	2219	2163	2179	2218	2215	2227	2182	2233	2242	2234	2158	2151	2175	2238	2243	2235	2254	2207	2151	2174	2159	2163	2159	2171	2167	2198	2142	2211	2206	2159	2239	2223	2238	2231	2167	2150	2175	2238	2172	2187	2231	2195	2171	2250	2227	2251	2146	2183	2170	2142	2151	2219	2154	2136	2195	2239	2196	2222	2178	2207	2135	2179	2202	2132	2166	2231	2126	2126	2120	2123	2196	2127	