2079	2119	2163	2066	2159	2070	2047	2167	2155	2136	2155	2067	2162	2063	2103	2091	2094	2146	2043	2143	2095	2142	2071	2019	2030	2035	2134	2075	2026	2131	2102	2083	2068	2015	2062	2046	2135	2075	2119	2106	2107	2123	2099	2008	2022	2026	2091	2039	2091	2022	1994	2111	2007	2111	2046	2075	2007	1998	2031	2011	1991	2099	1990	2055	2023	2066	2087	2062	2046	2003	1985	2095	2062	2018	2014	1968	2023	2066	2083	2035	2015	1955	1959	1950	2006	2059	2059	2054	2002	2063	2043	1938	1927	1943	1938	2019	2031	1930	1983	2010	2026	1923	2019	1987	1942	1951	1939	2034	2039	1967	1919	1959	1950	2011	1966	2036	1942	1998	1910	1923	2003	1915	1938	1922	1936	2023	1927	1939	1919	1966	2026	2011	1950	1943	1939	2019	1995	2010	1919	1971	1955	1959	1966	1931	1950	1950	2047	1975	1971	2052	2083	2002	2034	2126	2119	2122	2042	2082	2055	2158	2147	2179	2215	2162	2163	2163	2283	2203	2315	2343	2350	2390	2303	2418	2350	2479	2442	2486	2487	2535	2599	2619	2634	2606	2614	2635	2759	2779	2819	2819	2863	2798	2883	2922	2911	3023	2963	2975	3111	3098	3103	3139	3135	3138	3166	3294	3219	3312	3251	3303	3350	3423	3383	3383	3503	3482	3510	3470	3499	3486	3542	3550	3623	3655	3575	3646	3711	3728	3643	3762	3755	3723	3767	3791	3803	3783	3762	3803	3739	3851	3867	3831	3783	3826	3775	3882	3874	3903	3903	3854	3827	3879	3859	3799	3823	3811	3923	3823	3915	3823	3859	3811	3811	3894	3915	3799	3811	3843	3827	3787	3779	3890	3811	3883	3819	3878	3802	3746	3771	3851	3762	3823	3763	3778	3739	3727	3758	3710	3768	3778	3699	3775	3675	3742	3674	3719	3683	3723	3759	3699	3719	3646	3734	3711	3662	3722	3675	3619	3639	3647	3699	3602	3698	3667	3675	3590	3619	3647	3647	3578	3631	3587	3599	3595	3639	3582	3519	3558	3619	3622	3594	3535	3614	3587	3562	3547	3591	3503	3586	3568	3587	3579	3514	3567	3590	3579	3494	3567	3503	3571	3551	3571	3454	3523	3570	3470	3560	3519	3519	3486	3486	3546	3531	3535	3483	3503	3519	3454	3528	3440	3519	3431	3423	3510	3523	3427	3495	3407	3447	3523	3499	3434	3419	3471	3403	3378	3431	3379	3403	3483	3447	3414	3395	3411	3451	3367	3339	3367	3427	3402	3387	3303	3375	3307	3299	3355	3387	3294	3255	3303	3267	3243	3247	3238	3319	3251	3243	3278	3290	3219	3178	3251	3179	3138	3175	3151	3114	3119	3208	3163	3183	3118	3059	3059	3123	3064	3023	3067	3026	3051	3058	2992	2995	3006	2995	3006	2974	3056	2967	3062	3054	2943	2966	2983	2938	2902	2934	2999	2886	2970	2967	2987	2959	2923	2939	2966	2875	2847	2955	2931	2835	2927	2898	2867	2891	2827	2904	2834	2835	2919	2914	2815	2890	2907	2855	2863	2863	2919	2906	2815	2866	2895	2839	2899	2902	2882	2838	2779	2786	2798	2871	2871	2879	2783	2883	2874	2871	2763	2843	2866	2814	2767	2806	2771	2783	2748	2750	2751	2759	2746	2775	2851	2751	2843	2746	2744	2798	2810	2779	2775	2847	2731	2778	2711	2798	2823	2723	2775	2791	2718	2723	2807	2703	2789	2751	2695	2705	2686	2755	2753	2730	2663	2691	2663	2752	2679	2782	2651	2663	2755	2658	2743	2735	2631	2715	2727	2651	2674	2722	2631	2686	2631	2583	2626	2586	2587	2639	2619	2642	2588	2567	2627	2643	2551	2615	2563	2635	2570	2534	2586	2520	2618	2546	2611	2583	2606	2587	2478	2531	2578	2506	2555	2459	2510	2463	2519	2503	2550	2431	2498	2514	2511	2447	2419	2479	2483	2458	2428	2439	2498	2402	2475	2491	2486	2491	2474	2386	2434	2427	2470	2386	2371	2454	2346	2350	2431	2450	2358	2371	2363	2407	2346	2387	2403	2335	2419	2303	2378	2294	2307	2394	2347	2295	2303	2302	2371	2326	2282	2366	2310	2330	2298	2311	2335	2342	2252	2359	2259	2255	2337	2355	2286	2238	2275	2251	2303	2318	2238	2291	2231	2299	2227	2255	2230	2238	2272	2232	2242	2211	2226	2323	2199	2271	2254	2247	2234	2258	2298	2242	2192	2306	2256	2299	2291	2259	2295	2271	2186	2291	2294	2190	2286	2223	2247	2179	2202	2286	2187	2231	2182	2263	2190	2158	2192	2266	2247	2250	2151	2238	2234	2175	2151	2175	2159	2135	2127	2194	2190	2143	2250	2251	2223	2235	2215	2150	2142	2171	2187	2179	2151	2131	2127	2131	2231	2255	2135	2224	2207	2251	2142	2158	2187	2194	2151	2211	2142	2162	2171	2131	2150	2170	2203	2139	2135	2242	2130	2235	2154	2218	2126	2135	2219	2215	2127	2178	2127	2119	2159	2238	2114	2111	2116	2138	2115	2147	2135	2226	2203	2166	2198	2227	2146	2127	2110	2222	2166	2102	2106	2119	2154	2138	2091	2195	2115	2162	2210	2198	2110	2122	2102	2187	2135	2103	2171	2155	2083	2175	2178	2103	2135	2182	2098	2163	2075	2191	2139	2087	2171	2099	2151	2171	2067	2091	2154	2078	2166	2159	2160	2066	2167	2075	2163	2086	2062	2096	2167	2087	2087	2160	2158	2090	2103	2059	2070	2154	2066	2062	2102	2154	2104	2107	2163	2058	2147	2107	2062	2071	2104	2139	2063	2035	2135	2107	2038	2155	2139	2027	2120	2047	2135	2147	2146	2126	2114	2134	2038	2034	2046	2083	2035	2059	2047	2039	2071	2130	2019	2079	2047	2039	2131	2055	2043	2063	2071	2131	2086	2071	2103	2042	2027	2106	2032	2110	2098	2074	2103	2098	2034	2106	2099	2090	2059	1994	2023	2042	2015	2123	2107	2062	2026	2067	2003	2019	2055	2106	1991	1998	2022	2087	2047	2063	1995	2082	2039	1990	2111	2036	1990	2003	2079	2058	1986	2112	2090	1983	2063	2015	2030	1991	1982	1974	2043	2059	1983	1982	2022	2070	2075	1979	1963	2047	2047	1995	1950	1983	1954	2063	1968	2063	2058	2051	2035	1955	2055	2058	2070	1962	1999	2011	2024	1962	2056	1986	2034	2019	2023	2051	2047	2059	1962	1974	1947	1947	1986	2008	1968	1970	1983	2063	2047	2034	1983	2011	2019	1991	1986	2102	2007	2075	2027	2147	2054	2170	2183	2162	2119	2174	2118	2223	2195	2187	2183	2226	2238	2330	2346	2382	2338	2351	2434	2391	2519	2510	2491	2506	2632	2562	2659	2655	2710	2699	2715	2803	2795	2850	2815	2883	2971	3003	3035	3035	3103	3127	3075	3171	3179	3139	3151	3243	3304	3299	3251	3330	3379	3343	3359	3438	3511	3495	3542	3510	3519	3527	3619	3654	3579	3619	3606	3672	3634	3643	3730	3676	3779	3750	3783	3743	3763	3771	3835	3846	3830	3790	3818	3795	3798	3806	3899	3911	3839	3882	3931	3829	3850	3919	3847	3911	3907	3847	3866	3843	3874	3839	3839	3836	3907	3926	3859	3846	3830	3843	3915	3819	3867	3871	3815	3895	3899	3799	3822	3907	3806	3878	3846	3786	3879	3855	3848	3775	3747	3787	3770	3715	3723	3831	3719	3775	3807	3735	3743	3694	3723	3682	3687	3670	3647	3687	3750	3747	3726	3647	3631	3639	3683	3647	3630	3607	3607	3630	3595	3655	3683	3655	3634	3638	3667	3654	3663	3611	3667	3539	3542	3563	3566	3535	3611	3526	3523	3523	3551	3507	3599	3491	3583	3487	3503	3490	3534	3483	3550	3510	3551	3482	3555	3514	3458	3566	3527	3499	3551	3550	3511	3498	3523	3434	3431	3499	3422	3418	3443	3531	3472	3482	3423	3526	3499	3403	3402	3499	3443	3391	3463	3427	3391	3390	3387	3463	3422	3375	3399	3463	3375	3366	3439	3467	3354	3347	3343	3363	3411	3447	3411	3379	3398	3315	3335	3351	3283	3359	3303	3279	3259	3351	3326	3343	3238	3227	3258	3254	3238	3199	3242	3287	3250	3158	3259	3223	3151	3139	3174	3203	3115	3103	3134	3147	3106	3127	3063	3103	3075	3055	3031	3023	3027	3071	3010	3038	3014	3015	3087	2983	2974	3007	3023	2950	2942	3039	3047	3006	2927	2931	2994	2910	2927	2999	3003	2899	2983	2886	2975	2866	2919	2942	2895	2894	2951	2874	2846	2934	2951	2847	2939	2859	2838	2815	2867	2895	2815	2927	2823	2922	2859	2863	2907	2835	2902	2803	2891	2879	2851	2854	2858	2802	2854	2835	2842	2791	2811	2823	2791	2795	2867	2783	2839	2806	2803	2879	2851	2791	2871	2863	2883	2815	2748	2787	2739	2754	2775	2799	2742	2838	2827	2803	2734	2745	2746	2739	2779	2815	2715	2807	2738	2798	2727	2807	2687	2714	2695	2787	2798	2735	2763	2775	2711	2703	2656	2747	2706	2679	2759	2766	2686	2671	2651	2643	2744	2679	2731	2647	2715	2615	2658	2615	2606	2627	2670	2686	2651	2607	2698	2670	2571	2563	2643	2602	2578	2659	2575	2538	2538	2635	2579	2543	2615	2643	2551	2535	2571	2611	2535	2595	2531	2527	2547	2566	2571	2495	2570	2534	2546	2559	2519	2507	2543	2458	2480	2519	2515	2416	2515	2399	2455	2390	2443	2439	2447	2474	2370	2479	2399	2442	2399	2399	2398	2448	2354	2347	2338	2335	2399	2339	2435	2331	2379	2306	2426	2295	2406	2322	2376	2290	2386	2353	2347	2407	2335	2291	2270	2359	2298	2290	2312	2259	2283	2350	2291	2258	2298	2267	2226	2227	2307	2346	2255	2307	2242	2275	2235	2291	2262	2219	2271	2286	2291	2263	2206	2242	2314	2304	2306	2271	2275	2199	2278	2266	2199	2255	2246	2211	2175	2203	2282	2250	2215	2202	2282	2235	2167	2247	2171	2207	2187	2211	2256	2270	2270	2255	2158	2154	2231	2175	2194	2255	2170	2195	2175	2232	2167	2247	2195	2123	2187	2159	2215	2218	2231	2155	2126	2138	2239	2115	2167	2199	2171	2174	2155	2227	2122	2154	2107	2208	2190	2210	2207	2111	2150	2198	2122	2099	2183	2123	2095	2206	2123	2087	2106	2191	2123	2135	2119	2106	2198	2195	2194	2200	2179	2079	2107	2198	2179	2091	2151	2183	2159	2188	2079	2086	2171	2103	2107	2080	2146	2098	2087	2187	2079	2079	2187	2111	2098	2134	2067	2071	2080	2119	2166	2170	2131	2107	2071	2118	2190	2175	2098	2058	2143	2154	2156	2086	2075	2079	2143	2126	2143	2062	2051	2151	2125	2039	2075	2042	2043	2063	2139	2083	2143	2147	2147	2155	2143	2047	2058	2055	2047	2091	2042	2103	2042	2059	2143	2031	2079	2103	2031	2140	2079	2019	2051	2134	2031	2103	2079	2047	2078	2111	2062	2075	2055	2019	2042	2098	2099	2070	2070	2136	2075	2111	2011	2130	2024	2107	2015	2078	2047	2038	2063	2063	2082	2110	2008	2018	2007	2079	2031	2119	2110	2047	2043	2007	2047	2115	2015	2003	2070	2007	2043	2078	2055	2090	2035	2091	1999	2090	2007	2035	2047	1999	1994	2002	2095	2055	1991	2098	2042	2006	2039	1982	2070	1999	2026	2039	2091	1971	2075	2023	1975	2003	2062	2006	2088	2054	2079	1974	2063	1987	2014	2071	2062	2046	2074	2047	1983	2042	1983	1959	2054	2019	2018	1974	2027	1983	2023	2030	2019	2059	2064	2047	1942	1974	2041	2047	1967	1947	1994	2035	2051	1947	2038	2031	1986	1967	1962	1966	2026	1962	2023	1971	1967	1951	1939	2019	1983	1959	1943	1963	1994	2007	2026	1931	1947	2010	1914	2003	1923	1979	1915	1910	2014	1915	1999	1963	1963	1902	2014	1931	1967	1904	1987	1951	1899	1986	1962	1910	1975	1982	1895	1966	1891	1947	1974	1911	1959	1982	1911	1918	1910	1983	2023	1971	1935	2047	1947	1959	2022	2031	2038	2042	2035	2062	2039	2135	2066	2163	2146	2095	2199	2162	2191	2255	2203	2290	2207	2251	2384	2291	2327	2343	2470	2483	2426	2491	2578	2590	2595	2591	2646	2710	2662	2739	2763	2819	2867	2871	2918	2915	2879	3010	3039	3055	3099	3019	3135	3071	3123	3203	3183	3279	3315	3250	3258	3374	3404	3407	3367	3470	3447	3535	3518	3478	3543	3498	3607	3643	3599	3631	3699	3618	3715	3647	3747	3703	3758	3715	3791	3755	3715	3746	3823	3843	3794	3867	3775	3775	3859	3822	3867	3811	3806	3887	3819	3853	3831	3815	3899	3875	3915	3807	3870	3831	3830	3891	3903	3807	3823	3799	3907	3799	3795	3831	3892	3791	3811	3847	3763	3807	3771	3799	3782	3855	3811	3799	3747	3735	3731	3731	3734	3806	3703	3703	3706	3690	3727	3686	3714	3687	3659	3739	3751	3663	3742	3727	3675	3639	3691	3607	3710	3635	3598	3614	3687	3621	3671	3587	3619	3666	3663	3547	3535	3619	3535	3622	3511	3603	3534	3599	3503	3502	3502	3531	3515	3523	3583	3495	3547	3474	3511	3454	3439	3466	3467	