3355	3267	3335	3346	3327	3327	3314	3319	3255	3207	3243	3275	3190	3179	3163	3275	3194	3191	3155	3147	3230	3131	3234	3140	3126	3207	3227	3168	3151	3146	3122	3206	3211	3199	3130	3106	3091	3167	3111	3075	3075	3086	3187	3090	3179	3167	3099	3087	3059	3135	3155	3166	3127	3059	3107	3147	3118	3102	3038	3107	3131	3111	3043	3107	3115	3011	3047	3010	3007	3007	3091	3063	3015	3042	2979	2959	2955	3023	3054	2939	2983	3014	2930	2918	2914	2899	2939	2979	2971	2879	2971	2859	2874	2866	2907	2840	2826	2919	2811	2842	2783	2896	2790	2855	2775	2862	2755	2855	2859	2758	2831	2840	2723	2707	2819	2811	2783	2714	2703	2699	2758	2767	2770	2686	2719	2747	2691	2670	2663	2727	2711	2760	2703	2742	2711	2659	2655	2730	2755	2662	2747	2744	2686	2755	2643	2755	2699	2691	2703	2750	2683	2659	2715	2663	2766	2774	2699	2675	2779	2763	2659	2667	2767	2779	2691	2690	2763	2670	2663	2746	2726	2722	2694	2667	2663	2763	2671	2780	2774	2663	2679	2771	2738	2719	2782	2671	2699	2767	2668	2695	2691	2658	2687	2747	2640	2651	2755	2690	2722	2731	2730	2735	2690	2634	2747	2691	2734	2659	2658	2735	2703	2679	2627	2706	2651	2610	2647	2608	2707	2654	2703	2711	2703	2643	2583	2639	2619	2570	2655	2662	2587	2555	2667	2582	2554	2550	2563	2646	2631	2630	2528	2534	2534	2539	2494	2602	2526	2527	2554	2598	2544	2472	2571	2463	2467	2511	2564	2532	2535	2455	2479	2518	2466	2450	2534	2415	2487	2430	2511	2414	2467	2519	2399	2491	2423	2459	2379	2494	2371	2475	2394	2479	2398	2426	2391	2391	2350	2455	2438	2371	2339	2387	2339	2323	2431	2358	2434	2340	2334	2319	2415	2407	2302	2411	2302	2391	2290	2351	2291	2371	2347	2295	2275	2287	2278	2363	2379	2306	2346	2367	2343	2342	2363	2338	2242	2318	2330	2347	2227	2259	2235	2326	2319	2338	2220	2223	2303	2206	2280	2311	2207	2306	2226	2211	2215	2242	2275	2303	2294	2203	2287	2255	2191	2263	2282	2203	2288	2175	2187	2202	2218	2278	2251	2255	2238	2171	2231	2195	2282	2159	2274	2271	2167	2227	2163	2191	2242	2186	2250	2246	2195	2254	2207	2218	2202	2171	2220	2178	2243	2151	2263	2270	2179	2163	2163	2211	2239	2259	2223	2170	2259	2167	2270	2159	2258	2155	2171	2235	2155	2155	2156	2263	2159	2271	2263	2222	2238	2215	2262	2219	2151	2219	2143	2144	2182	2234	2174	2170	2142	2255	2179	2203	2143	2219	2211	2240	2254	2178	2143	2202	2183	2171	2160	2151	2215	2235	2211	2146	2130	2223	2191	2202	2166	2162	2209	2227	2255	2174	2239	2131	2211	2118	2135	2211	2134	2231	2122	2123	2119	2183	2246	2224	2223	2123	2219	2162	2123	2223	2227	2142	2119	2220	2219	2159	2190	2132	2203	2110	2126	2110	2138	2214	2143	2127	2127	2126	2111	2179	2123	2218	2111	2212	2110	2123	2134	2190	2094	2086	2210	2099	2127	2102	2127	2103	2195	2199	2179	2167	2182	2090	2131	2091	2199	2098	2194	2111	2107	2175	2159	2087	2091	2134	2095	2127	2134	2098	2091	2167	2159	2094	2191	2134	2102	2084	2119	2179	2095	2095	2186	2083	2171	2142	2074	2162	2190	2132	2078	2071	2128	2158	2091	2171	2155	2099	2175	2064	2163	2119	2147	2079	2062	2111	2098	2151	2055	2079	2139	2078	2054	2122	2106	2162	2138	2154	2151	2064	2111	2147	2075	2114	2110	2039	2106	2075	2051	2035	2030	2068	2115	2142	2046	2035	2014	2047	2083	2022	2119	2102	2027	2039	2087	2031	2123	2031	2006	2107	2006	2010	1995	2115	2023	2086	2090	1999	2015	2047	2110	2106	2047	2122	2115	2015	2011	2099	2000	2088	2067	2079	2074	2063	2123	2119	2058	2002	2106	2099	2023	2014	2079	2115	2015	2022	2114	2123	2143	2091	2047	2127	2070	2083	2083	2091	2211	2111	2138	2171	2255	2207	2278	2195	2311	2222	2255	2351	2367	2358	2427	2440	2335	2390	2451	2507	2507	2451	2566	2503	2527	2591	2574	2598	2647	2731	2727	2771	2768	2735	2855	2831	2838	2908	2870	2975	2974	3002	3071	2983	3027	3043	3043	3078	3118	3198	3167	3203	3223	3215	3251	3351	3359	3287	3411	3374	3439	3427	3358	3499	3447	3462	3454	3551	3535	3563	3482	3599	3539	3563	3535	3583	3623	3559	3655	3667	3627	3598	3635	3655	3711	3627	3627	3727	3640	3743	3719	3643	3650	3675	3683	3643	3679	3707	3655	3658	3654	3658	3738	3735	3683	3727	3642	3658	3711	3755	3755	3743	3618	3694	3615	3658	3723	3675	3687	3679	3591	3583	3667	3591	3610	3667	3610	3663	3619	3558	3539	3615	3543	3635	3627	3607	3507	3506	3543	3615	3578	3575	3587	3563	3479	3584	3463	3519	3455	3511	3535	3551	3543	3527	3534	3506	3411	3459	3503	3403	3486	3438	3398	3422	3455	3455	3367	3439	3427	3360	3474	3406	3351	3411	3419	3426	3327	3403	3435	3351	3434	3311	3407	3375	3343	3391	3307	3331	3331	3355	3347	3402	3288	3319	3406	3355	3390	3311	3294	3299	3286	3387	3366	3294	3263	3346	3359	3264	3287	3303	3259	3307	3351	3258	3315	3335	3246	3347	3279	3235	3355	3291	3254	3339	3310	3331	3315	3243	3295	3311	3235	3231	3311	3287	3203	3178	3207	3174	3196	3182	3246	3174	3167	3151	3195	3243	3159	3235	3122	3107	3203	3087	3090	3146	3079	3175	3162	3059	3043	3107	3031	3034	3115	3091	3096	2991	3071	3067	3027	3079	2971	2947	2982	3030	2923	2911	2955	2923	2995	2962	2990	2903	2931	2982	2902	2926	2903	2854	2842	2831	2815	2927	2807	2907	2918	2815	2895	2811	2903	2887	2894	2783	2791	2883	2827	2779	2795	2803	2862	2763	2847	2807	2862	2803	2775	2751	2827	2835	2835	2731	2783	2751	2731	2739	2815	2719	2811	2743	2719	2819	2803	2719	2698	2707	2819	2814	2751	2774	2740	2787	2710	2739	2731	2762	2803	2703	2703	2783	2723	2779	2727	2811	2799	2686	2758	2795	2691	2707	2754	2723	2751	2727	2799	2682	2795	2683	2758	2691	2687	2767	2786	2778	2675	2767	2667	2775	2775	2683	2703	2758	2722	2755	2647	2671	2711	2758	2743	2630	2678	2627	2715	2735	2704	2707	2627	2675	2667	2610	2635	2691	2624	2622	2627	2675	2599	2695	2571	2694	2591	2567	2638	2562	2550	2663	2659	2634	2622	2543	2595	2563	2530	2638	2635	2583	2515	2622	2566	2591	2535	2606	2567	2611	2558	2498	2511	2559	2459	2566	2507	2547	2454	2519	2526	2487	2442	2487	2434	2455	2434	2447	2415	2507	2395	2454	2502	2487	2451	2379	2491	2394	2443	2370	2471	2363	2463	2407	2383	2390	2447	2344	2431	2367	2338	2371	2316	2334	2411	2314	2406	2350	2370	2310	2363	2339	2306	2366	2294	2402	2287	2354	2391	2267	2286	2383	2334	2322	2261	2378	2266	2383	2258	2271	2271	2283	2371	2251	2299	2271	2259	2363	2362	2241	2249	2291	2339	2351	2343	2308	2294	2283	2234	2251	2230	2322	2342	2307	2306	2231	2219	2346	2327	2307	2278	2303	2315	2263	2314	2202	2202	2207	2243	2307	2278	2247	2210	2227	2306	2306	2208	2208	2218	2186	2227	2226	2243	2259	2207	2195	2266	2199	2223	2259	2287	2287	2230	2186	2203	2195	2178	2210	2218	2231	2266	2263	2179	2199	2259	2242	2167	2171	2247	2186	2234	2247	2183	2246	2210	2202	2167	2199	2179	2254	2162	2243	2266	2268	2258	2183	2154	2287	2186	2223	2174	2275	2203	2227	2238	2154	2243	2183	2219	2270	2259	2251	2199	2187	2158	2167	2246	2155	2274	2175	2270	2169	2275	2263	2175	2259	2186	2239	2158	2160	2187	2243	2214	2255	2202	2162	2151	2195	2190	2142	2255	2179	2254	2166	2174	2247	2254	2142	2235	2207	2142	2143	2182	2150	2183	2131	2159	2151	2247	2190	2250	2175	2226	2134	2167	2214	2174	2227	2158	2203	2146	2222	2203	2239	2135	2246	2190	2171	2150	2139	2242	2234	2255	2206	2155	2238	2247	2254	2247	2135	2166	2183	2146	2122	2131	2158	2159	2230	2136	2174	2230	2127	2247	2230	2246	2242	2194	2174	2122	2130	2159	2142	2214	2231	2207	2142	2123	2199	2202	2127	2159	2183	2163	2211	2110	2118	2107	2218	2218	2148	2111	2094	2135	2110	2167	2154	2183	2090	2119	2106	2111	2191	2186	2195	2142	2083	2082	2119	2147	2179	2135	2126	2118	2179	2056	2170	2057	2086	2076	2143	2118	2155	2139	2055	2155	2143	2043	2047	2043	2063	2030	2150	2062	2127	2031	2135	2086	2082	2035	2159	2134	2067	2130	2102	2035	2026	2087	2122	2058	2027	2106	2038	2136	2091	2139	2055	2135	2026	2047	2019	2030	2067	2111	2099	2067	2103	2050	2075	2035	2083	2031	2123	2102	2059	2055	2110	2155	2107	2091	2134	2154	2058	2079	2194	2155	2083	2106	2138	2219	2115	2175	2126	2139	2223	2167	2239	2179	2235	2238	2267	2266	2275	2279	2287	2311	2446	2362	2438	2379	2471	2475	2483	2475	2494	2599	2650	2587	2655	2666	2727	2663	2801	2803	2842	2850	2811	2922	2843	2859	2978	3003	2995	3000	2979	3035	3043	3103	3066	3126	3207	3142	3175	3227	3208	3275	3327	3367	3375	3378	3327	3339	3450	3423	3427	3463	3547	3515	3532	3543	3510	3607	3615	3582	3631	3667	3622	3691	3695	3639	3667	3611	3718	3635	3731	3695	3698	3674	3667	3762	3679	3703	3682	3723	3751	3783	3779	3663	3670	3771	3691	3690	3698	3763	3666	3731	3763	3698	3679	3763	3698	3683	3643	3642	3643	3655	3654	3643	3743	3619	3711	3631	3659	3703	3679	3587	3591	3582	3574	3686	3663	3555	3663	3619	3655	3599	3566	3559	3539	3555	3627	3515	3607	3587	3567	3491	3579	3570	3535	3547	3495	3567	3483	3527	3566	3547	3459	3552	3458	3555	3536	3499	3423	3439	3459	3423	3431	3431	3526	3491	3463	3427	3459	3443	3490	3455	3378	3422	3391	3475	3466	3383	3479	3363	3442	3455	3359	3379	3459	3458	3467	3455	3371	3410	3427	3434	3327	3430	3435	3311	3315	3375	3319	3332	3323	3331	3311	3327	3407	3306	3343	3395	3394	3307	3327	3290	3331	3403	3303	3379	3359	3278	3380	3291	3339	3274	3379	3258	3330	3311	3363	3343	3358	3247	3299	3347	3327	3231	3327	3282	3255	3275	3231	3226	3287	3187	3199	3307	3171	3210	3275	3271	3246	3214	3255	3135	3195	3143	3182	3163	3095	3202	3195	3112	3147	3111	3147	3150	3167	3034	3135	3123	3015	3071	3079	3047	3059	3079	3083	3063	2951	2951	3042	2942	3007	2951	3011	2994	2967	2895	2894	2874	2947	2886	2970	2899	2963	2874	2960	2854	2927	2935	2831	2944	2926	2838	2887	2826	2814	2831	2822	2866	2810	2891	2802	2907	2786	2899	2894	2811	2782	2815	2795	2823	2870	2799	2779	2855	2875	2814	2896	2879	2882	2851	2775	2783	2889	2882	2862	2847	2811	2867	2807	2811	2863	2823	2771	2759	2791	2843	2763	2746	2839	2858	2850	2862	2755	2862	2815	2751	2855	2775	2819	2755	2847	2735	2851	2839	2743	2738	2755	2727	2743	2728	2786	2775	2815	2722	2811	2739	2823	2763	2778	2782	2710	2806	2706	2802	2751	2715	2698	2783	2782	2738	2787	2775	2667	2659	2735	2683	2655	2735	2643	2715	2739	2650	2687	2707	2695	2714	2639	2694	2723	2723	2690	2610	2710	2692	2703	2635	2603	2698	2626	2603	2596	2640	2607	2575	2675	2559	2554	2623	2574	2567	2550	2551	2623	2607	2539	2619	2575	2635	2607	2543	2503	2503	2603	2552	2567	2487	2495	2539	2560	2571	2506	2491	2463	2547	2459	2559	2439	2558	2464	2438	2538	2447	2495	2522	2462	2527	2439	2431	2463	2399	2446	2482	2406	2391	2491	2459	2378	2471	2467	2374	2430	2402	2427	2395	2374	2443	2374	2423	2399	2338	2320	2370	2455	2406	2362	2363	2435	2382	2319	2382	2319	2311	2399	2414	2399	2391	2403	2334	2335	2287	2278	2282	2351	2394	2386	2315	2311	2295	2351	2287	2291	2255	2339	2370	2350	2363	2311	2250	2275	2315	2307	2259	2263	2279	2339	2339	2307	2319	2248	2334	2238	2219	2321	2223	2327	2323	2207	2283	2227	2239	2219	2318	2195	2295	2199	2199	2263	2299	2199	2234	2219	2179	2287	2223	2191	2290	2189	2276	2199	2275	2211	2202	2211	2183	2274	2186	2255	2186	2283	2231	2232	2243	2211	2287	2226	2274	2254	2198	2262	2183	2183	2267	2215	2252	2174	2208	2175	2259	2283	2167	2279	2195	2239	