2438	2431	2422	2416	2450	2450	2483	2422	2423	2406	2434	2419	2426	2451	2378	2383	2407	2375	2427	2407	2431	2391	2463	2435	2391	2419	2415	2403	2402	2411	2415	2422	2403	2363	2399	2387	2419	2423	2379	2380	2414	2379	2395	2410	2419	2398	2390	2424	2402	2386	2375	2368	2410	2407	2403	2350	2371	2360	2362	2378	2406	2378	2375	2395	2384	2426	2383	2443	2435	2391	2423	2395	2382	2339	2346	2362	2386	2363	2371	2347	2347	2367	2385	2379	2407	2360	2387	2363	2416	2419	2387	2403	2335	2358	2383	2338	2374	2342	2322	2378	2339	2395	2371	2363	2375	2406	2359	2359	2347	2331	2383	2347	2330	2323	2335	2359	2335	2307	2343	2330	2371	2399	2395	2403	2330	2386	2358	2358	2318	2346	2339	2315	2294	2334	2335	2306	2282	2315	2279	2318	2295	2331	2375	2343	2315	2318	2370	2358	2370	2287	2330	2343	2334	2295	2271	2311	2271	2318	2290	2315	2278	2308	2319	2362	2319	2314	2326	2295	2354	2351	2335	2331	2294	2286	2287	2294	2298	2298	2275	2266	2303	2299	2299	2351	2312	2350	2299	2346	2299	2307	2314	2315	2307	2295	2314	2271	2259	2247	2311	2334	2283	2322	2307	2343	2323	2342	2307	2335	2295	2336	2311	2287	2266	2287	2323	2259	2282	2275	2270	2311	2323	2287	2331	2330	2319	2331	2331	2322	2335	2283	2275	2291	2259	2258	2288	2267	2256	2263	2255	2287	2259	2298	2300	2272	2299	2315	2322	2280	2311	2297	2276	2283	2275	2294	2243	2286	2271	2294	2254	2295	2263	2266	2243	2287	2266	2270	2263	2272	2303	2287	2234	2240	2255	2214	2262	2254	2215	2224	2264	2246	2254	2250	2255	2247	2243	2266	2282	2267	2287	2243	2258	2215	2251	2219	2222	2194	2258	2243	2246	2211	2202	2262	2278	2223	2262	2248	2250	2242	2231	2231	2234	2202	2255	2214	2247	2210	2259	2234	2219	2231	2266	2227	2250	2255	2288	2235	2267	2303	2278	2238	2286	2255	2234	2231	2262	2230	2298	2282	2270	2287	2334	2298	2294	2315	2319	2327	2326	2367	2386	2387	2387	2343	2375	2374	2382	2395	2382	2375	2402	2467	2463	2462	2506	2518	2550	2522	2551	2583	2568	2566	2598	2575	2614	2608	2627	2623	2639	2683	2687	2695	2691	2755	2747	2771	2803	2832	2847	2819	2835	2855	2827	2843	2846	2914	2903	2926	2907	2943	2967	2955	2998	3007	3000	3042	3059	3094	3110	3071	3083	3136	3095	3111	3103	3110	3143	3167	3158	3191	3154	3203	3247	3215	3266	3279	3267	3295	3298	3286	3291	3259	3311	3283	3258	3299	3255	3275	3299	3291	3299	3326	3318	3326	3325	3334	3369	3395	3370	3382	3351	3331	3386	3351	3366	3322	3331	3338	3351	3320	3375	3350	3371	3375	3359	3375	3390	3374	3399	3371	3362	3400	3335	3330	3355	3351	3318	3319	3343	3327	3343	3347	3367	3351	3367	3359	3379	3374	3358	3335	3338	3327	3362	3319	3295	3327	3299	3303	3307	3311	3322	3338	3331	3319	3342	3335	3339	3335	3323	3339	3299	3343	3302	3310	3283	3299	3291	3271	3267	3286	3303	3298	3275	3331	3311	3323	3319	3331	3327	3287	3294	3282	3302	3310	3235	3248	3315	3294	3282	3270	3283	3318	3323	3282	3279	3283	3310	3319	3331	3318	3287	3291	3299	3291	3294	3278	3287	3274	3287	3267	3282	3280	3263	3306	3279	3326	3287	3313	3291	3335	3291	3264	3302	3243	3291	3270	3266	3262	3275	3251	3258	3299	3259	3279	3263	3286	3271	3275	3291	3295	3246	3251	3211	3259	3238	3210	3227	3223	3219	3227	3223	3194	3228	3247	3208	3239	3211	3195	3202	3183	3187	3198	3198	3170	3151	3154	3163	3107	3123	3135	3163	3146	3154	3135	3138	3175	3182	3142	3158	3158	3154	3138	3135	3120	3071	3075	3066	3087	3043	3067	3098	3107	3082	3075	3067	3110	3086	3088	3059	3055	3079	3050	3059	3055	3023	2995	3039	3030	3011	3015	3039	3027	3031	3038	3055	3043	3043	3031	3039	3079	3042	3043	3003	3046	2979	3002	3014	3011	3003	3006	2975	3027	3015	3035	3031	3039	3007	3051	2999	3019	3031	3003	3006	2970	2963	2951	2943	2983	2979	2971	2986	2987	2984	2955	3014	3018	2995	3014	2982	3010	2959	2966	2987	2959	2963	2959	2955	2962	2951	2922	2966	2943	2959	2962	2963	2966	2975	2955	2951	2967	2958	2967	2939	2927	2918	2922	2907	2942	2919	2908	2907	2898	2934	2963	2967	2906	2935	2930	2904	2945	2942	2911	2891	2919	2879	2910	2903	2842	2883	2891	2902	2875	2886	2906	2935	2895	2903	2918	2882	2910	2890	2896	2855	2851	2843	2846	2791	2806	2814	2855	2795	2843	2827	2854	2875	2819	2835	2830	2839	2874	2815	2779	2782	2794	2783	2754	2779	2791	2783	2766	2743	2782	2783	2747	2787	2775	2762	2795	2762	2771	2770	2771	2759	2703	2698	2735	2715	2719	2711	2686	2735	2695	2715	2726	2710	2723	2690	2699	2727	2695	2679	2659	2687	2675	2658	2683	2643	2646	2623	2651	2642	2671	2655	2662	2663	2638	2627	2671	2674	2679	2662	2615	2654	2594	2623	2583	2634	2618	2582	2571	2614	2595	2619	2635	2607	2594	2631	2610	2615	2595	2590	2586	2563	2562	2558	2563	2567	2555	2578	2519	2547	2542	2535	2555	2576	2551	2587	2578	2550	2523	2514	2519	2539	2479	2479	2491	2527	2483	2511	2495	2491	2511	2514	2523	2499	2519	2498	2503	2518	2538	2487	2499	2487	2487	2510	2459	2494	2522	2443	2467	2483	2466	2486	2467	2467	2478	2475	2515	2463	2518	2471	2474	2435	2431	2458	2414	2451	2442	2407	2415	2415	2411	2487	2458	2431	2451	2471	2438	2450	2467	2446	2475	2459	2411	2443	2395	2422	2438	2439	2448	2383	2403	2447	2403	2462	2423	2427	2463	2414	2420	2407	2423	2422	2392	2387	2415	2383	2390	2418	2402	2447	2439	2427	2407	2423	2430	2427	2414	2390	2387	2407	2410	2419	2383	2347	2415	2403	2363	2387	2382	2410	2371	2395	2399	2410	2399	2427	2395	2403	2397	2359	2378	2366	2395	2367	2395	2343	2383	2387	2371	2362	2354	2358	2371	2399	2427	2407	2386	2379	2408	2342	2338	2343	2358	2331	2366	2374	2330	2375	2387	2354	2342	2376	2368	2359	2399	2362	2387	2351	2367	2383	2375	2350	2303	2351	2295	2312	2310	2346	2362	2355	2314	2383	2370	2354	2347	2371	2358	2378	2334	2367	2343	2334	2334	2343	2327	2290	2334	2328	2315	2316	2330	2343	2326	2323	2351	2331	2318	2315	2343	2326	2298	2282	2299	2346	2290	2294	2298	2319	2262	2315	2291	2306	2299	2330	2331	2295	2311	2299	2354	2299	2339	2299	2331	2302	2287	2316	2298	2278	2283	2327	2306	2311	2331	2330	2314	2383	2323	2311	2299	2322	2279	2327	2298	2294	2302	2290	2267	2306	2315	2322	2331	2294	2334	2303	2339	2299	2342	2291	2339	2275	2303	2251	2263	2298	2271	2299	2243	2259	2251	2290	2306	2286	2319	2278	2283	2290	2282	2275	2312	2303	2234	2251	2274	2280	2238	2251	2270	2223	2286	2283	2267	2246	2267	2243	2271	2310	2303	2302	2270	2279	2259	2235	2290	2227	2275	2230	2232	2242	2230	2247	2242	2252	2299	2271	2307	2259	2327	2299	2287	2283	2278	2279	2243	2267	2211	2202	2278	2235	2255	2222	2274	2275	2286	2258	2267	2307	2291	2259	2298	2278	2238	2275	2283	2275	2254	2214	2215	2243	2226	2235	2246	2251	2259	2250	2267	2290	2270	2251	2272	2262	2278	2271	2207	2278	2250	2235	2254	2227	2234	2234	2218	2286	2279	2247	2239	2222	2255	2251	2247	2259	2231	2239	2227	2223	2250	2223	2246	2242	2242	2250	2247	2216	2271	2227	2263	2276	2211	2243	2214	2254	2194	2199	2190	2187	2186	2202	2219	2163	2175	2219	2203	2178	2231	2255	2242	2259	2210	2211	2238	2183	2159	2195	2207	2186	2174	2150	2182	2130	2146	2175	2202	2154	2227	2170	2190	2207	2171	2182	2167	2187	2179	2187	2138	2194	2167	2175	2183	2158	2191	2198	2154	2211	2175	2227	2227	2219	2242	2179	2184	2242	2215	2218	2211	2171	2231	2226	2178	2223	2262	2259	2291	2295	2307	2310	2342	2303	2367	2359	2334	2324	2375	2379	2346	2370	2362	2374	2403	2387	2435	2466	2430	2502	2475	2539	2550	2511	2518	2587	2578	2563	2615	2579	2634	2599	2615	2619	2623	2667	2674	2735	2755	2735	2719	2782	2799	2779	2819	2843	2835	2859	2835	2831	2831	2835	2886	2895	2890	2930	2926	2971	2979	2974	2999	3002	3039	3059	3003	3046	3059	3063	3071	3047	3054	3059	3067	3083	3134	3083	3130	3151	3150	3135	3159	3163	3167	3158	3191	3215	3198	3203	3198	3212	3210	3163	3199	3179	3159	3179	3214	3187	3198	3246	3223	3223	3247	3211	3223	3203	3215	3222	3223	3226	3191	3195	3207	3227	3203	3195	3223	3190	3191	3195	3239	3219	3215	3207	3203	3219	3195	3206	3191	3218	3191	3170	3166	3184	3143	3167	3159	3191	3174	3171	3151	3187	3171	3139	3135	3139	3130	3135	3159	3147	3111	3123	3103	3102	3137	3119	3135	3143	3112	3099	3095	3134	3131	3095	3128	3115	3098	3087	3082	3051	3038	3083	3038	3063	3055	3071	3059	3071	3067	3039	3039	3062	3087	3039	3051	3047	3064	3055	3055	3018	3043	3019	2995	3022	3023	3003	3002	2994	3039	3058	3023	3055	3083	3074	3011	3067	3055	3047	3011	3027	3006	2998	3026	2986	3022	3016	2998	3007	3011	3046	2999	3043	3043	3035	3031	3015	3023	3019	2975	2959	2961	2951	2959	2970	2962	3003	2955	3003	3011	2987	2983	2955	3011	2959	2970	2986	2955	2963	2951	2911	2907	2922	2950	2903	2910	2890	2919	2942	2898	2943	2931	2942	2914	2896	2939	2875	2886	2899	2875	2843	2839	2862	2879	2866	2840	2834	2823	2838	2843	2902	2856	2847	2847	2883	2835	2838	2859	2828	2806	2822	2839	2776	2822	2775	2823	2807	2803	2787	2811	2799	2806	2830	2811	2842	2798	2819	2800	2791	2762	2787	2766	2786	2782	2750	2778	2771	2795	2795	2759	2814	2815	2795	2771	2767	2774	2791	2771	2735	2755	2791	2734	2728	2735	2739	2747	2730	2770	2743	2767	2747	2751	2794	2787	2791	2750	2738	2739	2766	2735	2767	2747	2699	2723	2739	2699	2715	2722	2736	2726	2735	2727	2747	2743	2771	2750	2774	2742	2751	2707	2719	2731	2699	2714	2710	2723	2715	2703	2739	2715	2747	2731	2735	2707	2719	2736	2736	2738	2687	2687	2675	2667	2659	2639	2663	2663	2667	2666	2711	2695	2674	2699	2658	2711	2691	2651	2647	2699	2663	2667	2630	2651	2623	2670	2627	2614	2630	2627	2619	2635	2619	2631	2661	2635	2639	2630	2634	2666	2643	2615	2615	2574	2623	2598	2571	2599	2596	2606	2615	2587	2591	2603	2607	2616	2605	2571	2627	2607	2558	2555	2574	2571	2575	2559	2567	2543	2547	2539	2555	2558	2582	2598	2566	2591	2571	2531	2527	2555	2539	2490	2539	2523	2503	2487	2506	2470	2495	2486	2534	2526	2518	2543	2503	2522	2527	2483	2515	2515	2470	2511	2463	2435	2479	2436	2424	2418	2470	2475	2419	2447	2470	2467	2462	2459	2463	2467	2462	2459	2406	2411	2403	2438	2379	2415	2391	2418	2379	2442	2407	2391	2443	2427	2411	2447	2396	2418	2415	2419	2386	2423	2406	2383	2347	2339	2374	2359	2399	2351	2378	2347	2426	2383	2426	2407	2370	2398	2399	2355	2366	2375	2358	2363	2346	2335	2351	2371	2323	2330	2326	2375	2343	2392	2383	2370	2354	2359	2386	2330	2331	2331	2346	2302	2302	2314	2322	2287	2294	2347	2359	2339	2351	2359	2379	2359	2371	2370	2287	2314	2359	2311	2295	2291	2299	2335	2264	2314	2296	2355	2319	2302	2298	2355	2307	2355	2347	2303	2310	2303	2315	2287	2311	2315	2267	2263	2299	2314	2282	2327	2299	2323	2306	2322	2343	2315	2342	2306	2307	2287	2299	2280	2262	2307	2263	2307	2282	2286	2323	2311	2291	2315	2271	2291	2318	2294	2296	2311	2287	2315	2311	2314	2271	2266	2276	2278	2302	2231	2250	2286	2311	2326	2278	2270	2319	2283	2310	2282	2318	2275	2274	2288	2227	2274	2239	2265	2255	2287	2295	2258	2250	2299	2275	2307	2299	2286	2291	2303	2287	2287	2274	2275	2243	2259	2274	2254	2223	2242	2247	2278	2267	2270	2302	2275	2295	2262	2255	2262	2267	2267	2246	2215	2207	2211	2246	2230	2215	2246	2230	2227	2243	2274	2290	2295	2255	2259	2248	2267	2266	2223	2262	2219	2218	2226	2246	2262	2215	2203	2222	2214	2243	2227	