2335	2310	2318	2322	2370	2354	2338	2374	2338	2368	2391	2367	2383	2372	2354	2330	2327	2358	2319	2327	2311	2306	2306	2283	2311	2330	2331	2322	2328	2354	2331	2375	2367	2319	2307	2331	2351	2327	2302	2319	2294	2279	2303	2298	2331	2318	2283	2318	2343	2350	2379	2323	2359	2306	2291	2302	2315	2319	2307	2270	2287	2311	2302	2303	2270	2310	2310	2298	2310	2290	2318	2284	2310	2343	2279	2307	2287	2274	2279	2258	2275	2266	2302	2275	2287	2299	2268	2310	2283	2311	2275	2274	2295	2279	2303	2300	2251	2295	2287	2270	2263	2262	2230	2226	2259	2271	2275	2247	2270	2243	2319	2266	2259	2287	2275	2258	2283	2291	2267	2259	2247	2246	2254	2250	2223	2235	2263	2263	2263	2286	2290	2278	2254	2242	2282	2274	2243	2287	2226	2251	2215	2250	2218	2243	2230	2242	2215	2251	2239	2283	2262	2246	2238	2294	2260	2219	2259	2274	2230	2218	2210	2199	2206	2243	2219	2211	2230	2275	2235	2242	2230	2238	2239	2239	2263	2266	2278	2227	2247	2186	2235	2194	2200	2215	2210	2231	2223	2251	2218	2254	2231	2226	2266	2240	2263	2246	2246	2232	2214	2230	2199	2214	2230	2195	2259	2190	2242	2259	2227	2218	2248	2242	2211	2210	2223	2259	2215	2199	2215	2226	2211	2203	2207	2164	2206	2190	2223	2198	2207	2239	2231	2199	2223	2203	2267	2247	2217	2214	2215	2179	2199	2195	2211	2174	2187	2239	2215	2219	2218	2251	2247	2214	2211	2267	2206	2194	2264	2199	2206	2238	2195	2239	2191	2219	2191	2226	2227	2202	2246	2270	2235	2243	2274	2243	2251	2231	2217	2250	2188	2231	2191	2190	2219	2251	2195	2211	2214	2246	2218	2266	2279	2230	2270	2287	2255	2235	2214	2238	2227	2210	2239	2203	2239	2255	2267	2215	2262	2283	2279	2279	2290	2314	2339	2279	2327	2312	2290	2275	2326	2283	2346	2279	2319	2314	2379	2339	2383	2435	2387	2432	2426	2454	2454	2511	2495	2511	2498	2470	2479	2519	2543	2551	2551	2599	2587	2582	2607	2675	2686	2670	2703	2694	2735	2704	2751	2766	2771	2811	2823	2792	2819	2863	2822	2846	2911	2918	2934	2951	2963	2970	3011	2999	3010	3031	3067	3031	3054	3099	3039	3080	3135	3079	3146	3134	3186	3135	3195	3242	3218	3230	3231	3263	3271	3242	3294	3287	3303	3259	3298	3267	3303	3295	3290	3322	3347	3351	3330	3394	3371	3363	3407	3407	3379	3383	3387	3403	3363	3383	3383	3367	3347	3395	3376	3407	3391	3426	3431	3415	3414	3439	3416	3452	3431	3419	3423	3410	3399	3359	3342	3386	3395	3387	3355	3355	3375	3363	3375	3363	3398	3375	3375	3387	3367	3359	3339	3315	3311	3322	3287	3314	3319	3307	3294	3294	3283	3315	3271	3303	3310	3272	3315	3287	3271	3258	3282	3258	3263	3231	3238	3255	3255	3222	3227	3186	3255	3223	3218	3219	3235	3207	3227	3250	3211	3214	3207	3227	3170	3155	3210	3175	3178	3182	3167	3194	3175	3152	3203	3195	3162	3178	3207	3175	3174	3203	3167	3166	3167	3143	3159	3159	3171	3167	3171	3158	3183	3143	3151	3143	3171	3187	3198	3198	3154	3155	3143	3138	3131	3179	3127	3131	3095	3111	3143	3150	3111	3116	3111	3134	3155	3139	3146	3123	3118	3119	3138	3110	3103	3083	3055	3111	3079	3091	3102	3083	3083	3106	3086	3064	3103	3099	3062	3103	3046	3079	3055	3047	3054	2987	3026	3011	3015	2982	2995	3014	3019	3035	3035	2975	3022	3014	2987	3015	2971	3007	2994	2967	2947	2974	2974	2975	2914	2919	2923	2927	2955	2939	2970	2931	2945	2967	2971	2959	2947	2943	2939	2915	2947	2870	2915	2867	2906	2891	2899	2890	2902	2919	2915	2899	2927	2928	2939	2939	2919	2899	2879	2923	2895	2903	2896	2866	2855	2894	2890	2886	2890	2887	2919	2883	2907	2902	2907	2918	2915	2890	2887	2886	2879	2862	2902	2855	2866	2890	2830	2886	2878	2883	2881	2911	2867	2866	2887	2871	2926	2907	2859	2896	2862	2874	2855	2831	2839	2835	2846	2855	2883	2850	2863	2862	2856	2918	2867	2870	2878	2839	2835	2827	2862	2843	2826	2819	2830	2842	2807	2832	2807	2818	2847	2867	2835	2834	2854	2886	2848	2827	2815	2839	2794	2819	2839	2819	2786	2762	2814	2794	2779	2819	2771	2810	2811	2802	2822	2775	2810	2770	2763	2798	2811	2795	2743	2735	2747	2738	2754	2762	2743	2751	2771	2790	2738	2751	2755	2770	2750	2763	2759	2751	2707	2739	2698	2675	2691	2731	2682	2672	2699	2702	2718	2687	2751	2715	2727	2734	2706	2679	2667	2639	2650	2687	2627	2639	2666	2670	2667	2640	2655	2662	2635	2659	2671	2659	2679	2635	2668	2659	2638	2622	2595	2619	2606	2627	2606	2592	2590	2579	2594	2648	2610	2579	2635	2614	2630	2579	2583	2567	2567	2587	2576	2547	2546	2530	2538	2567	2575	2538	2575	2582	2535	2539	2540	2586	2571	2543	2563	2511	2527	2558	2534	2514	2514	2479	2511	2511	2522	2515	2512	2527	2498	2495	2530	2507	2558	2542	2543	2518	2466	2503	2475	2511	2502	2487	2502	2499	2492	2494	2454	2458	2487	2519	2518	2515	2471	2518	2486	2507	2499	2459	2439	2442	2430	2443	2446	2408	2442	2418	2455	2431	2459	2448	2459	2450	2439	2467	2459	2478	2450	2410	2410	2455	2434	2434	2407	2431	2399	2475	2403	2458	2395	2419	2467	2470	2427	2439	2455	2439	2423	2434	2402	2410	2395	2386	2382	2407	2378	2387	2442	2415	2395	2439	2419	2464	2438	2423	2402	2442	2390	2414	2390	2427	2391	2347	2366	2394	2426	2398	2435	2395	2395	2423	2426	2451	2438	2426	2431	2443	2387	2422	2431	2386	2407	2359	2415	2371	2366	2367	2406	2403	2415	2395	2443	2454	2406	2375	2397	2410	2395	2378	2430	2403	2402	2387	2367	2410	2395	2371	2399	2407	2387	2415	2391	2415	2410	2411	2423	2395	2391	2382	2367	2410	2350	2343	2371	2379	2370	2362	2382	2407	2384	2375	2395	2382	2395	2406	2363	2402	2391	2379	2386	2343	2391	2355	2330	2394	2339	2378	2347	2370	2366	2391	2418	2378	2391	2362	2402	2387	2383	2335	2387	2343	2343	2374	2347	2338	2318	2355	2343	2395	2339	2363	2387	2363	2359	2375	2387	2379	2359	2394	2354	2351	2359	2343	2314	2362	2358	2335	2318	2347	2347	2351	2354	2354	2343	2343	2390	2327	2326	2335	2355	2347	2298	2339	2330	2322	2343	2319	2310	2359	2311	2355	2335	2359	2375	2355	2346	2311	2342	2314	2299	2327	2283	2303	2291	2295	2323	2339	2330	2335	2327	2346	2354	2331	2359	2351	2330	2287	2297	2350	2310	2295	2291	2282	2306	2270	2307	2299	2295	2287	2315	2318	2350	2331	2303	2279	2328	2307	2263	2283	2242	2247	2295	2262	2279	2259	2310	2272	2307	2315	2291	2282	2271	2274	2282	2280	2299	2280	2270	2242	2267	2238	2275	2226	2271	2255	2287	2274	2286	2275	2303	2254	2289	2289	2262	2254	2247	2298	2254	2227	2231	2267	2246	2275	2263	2278	2218	2263	2266	2230	2287	2280	2278	2294	2295	2238	2294	2275	2279	2250	2255	2238	2234	2247	2251	2216	2231	2259	2238	2275	2259	2290	2246	2298	2275	2287	2291	2249	2275	2263	2262	2247	2251	2243	2247	2215	2275	2230	2279	2259	2251	2295	2299	2303	2255	2242	2310	2263	2239	2267	2251	2234	2242	2276	2222	2222	2238	2242	2282	2247	2247	2264	2279	2263	2279	2263	2247	2243	2278	2286	2247	2223	2223	2254	2215	2227	2227	2219	2251	2283	2243	2286	2287	2291	2271	2280	2279	2235	2271	2250	2211	2207	2203	2200	2199	2243	2199	2259	2275	2279	2247	2271	2235	2235	2230	2238	2270	2246	2219	2207	2270	2255	2235	2188	2190	2227	2222	2234	2206	2235	2254	2235	2266	2267	2262	2207	2216	2191	2203	2255	2199	2234	2214	2178	2187	2211	2227	2231	2243	2203	2187	2243	2219	2215	2231	2247	2211	2279	2259	2231	2187	2214	2179	2219	2247	2247	2172	2183	2230	2230	2218	2239	2219	2234	2203	2267	2254	2242	2243	2175	2231	2198	2202	2170	2182	2200	2196	2191	2219	2251	2246	2231	2247	2271	2287	2286	2242	2230	2239	2270	2219	2207	2211	2235	2230	2243	2234	2264	2258	2302	2307	2359	2314	2355	2363	2343	2366	2359	2387	2344	2375	2367	2402	2411	2375	2447	2455	2475	2495	2479	2483	2498	2551	2599	2574	2610	2619	2627	2591	2594	2643	2672	2635	2674	2667	2696	2670	2703	2731	2807	2783	2814	2850	2867	2855	2910	2887	2928	2918	2918	2931	2903	2950	2927	2958	2971	3019	3015	3031	3067	3083	3087	3123	3123	3159	3135	3152	3146	3146	3175	3203	3170	3206	3167	3237	3223	3230	3255	3255	3254	3279	3343	3331	3295	3326	3315	3302	3327	3358	3354	3375	3319	3362	3315	3338	3345	3372	3359	3375	3347	3355	3371	3403	3419	3367	3395	3423	3356	3370	3390	3350	3367	3351	3371	3355	3355	3355	3364	3343	3391	3355	3359	3351	3355	3334	3371	3339	3346	3334	3351	3314	3319	3287	3275	3335	3330	3327	3295	3331	3299	3271	3287	3303	3290	3311	3290	3258	3295	3239	3234	3255	3255	3214	3207	3239	3239	3216	3215	3256	3266	3230	3251	3239	3230	3210	3262	3243	3195	3199	3182	3187	3155	3179	3139	3191	3151	3139	3139	3223	3183	3187	3182	3187	3195	3183	3186	3195	3150	3155	3131	3167	3134	3159	3111	3135	3127	3127	3100	3131	3151	3131	3171	3115	3150	3143	3146	3167	3143	3116	3087	3095	3110	3070	3087	3087	3099	3118	3071	3096	3107	3135	3131	3114	3150	3115	3166	3091	3079	3102	3090	3083	3088	3059	3087	3055	3059	3110	3055	3103	3099	3079	3065	3071	3070	3075	3078	3040	3066	3071	3047	3019	3018	3015	2990	2991	3007	3027	3018	3012	3003	3046	3030	3027	3035	3043	3042	3006	3003	3003	2995	2983	2991	2971	2966	2946	2969	2955	2992	2951	2958	2947	2978	2951	2927	2982	2922	2967	2919	2946	2907	2927	2926	2871	2923	2910	2870	2903	2915	2879	2903	2907	2902	2911	2923	2914	2915	2871	2887	2910	2906	2875	2846	2850	2864	2855	2887	2878	2871	2858	2886	2883	2904	2915	2904	2918	2874	2864	2854	2864	2855	2883	2842	2850	2842	2839	2863	2862	2875	2871	2851	2843	2859	2871	2887	2859	2879	2879	2835	2839	2831	2854	2822	2827	2822	2832	2846	2827	2875	2851	2875	2866	2851	2855	2870	2887	2859	2871	2879	2862	2835	2842	2867	2815	2831	2842	2834	2847	2855	2840	2843	2855	2863	2864	2847	2875	2859	2835	2827	2859	2811	2843	2799	2815	2826	2830	2818	2819	2807	2825	2855	2847	2819	2875	2835	2803	2832	2779	2786	2776	2790	2819	2775	2767	2750	2778	2775	2743	2771	2774	2747	2783	2795	2759	2778	2791	2775	2779	2747	2719	2763	2750	2695	2722	2710	2694	2683	2687	2711	2715	2730	2719	2739	2714	2703	2682	2671	2687	2695	2702	2654	2651	2630	2623	2658	2619	2679	2655	2615	2662	2674	2663	2671	2643	2671	2635	2643	2611	2643	2658	2627	2603	2611	2602	2571	2615	2579	2643	2603	2599	2639	2643	2659	2599	2623	2635	2603	2574	2579	2590	2554	2571	2551	2551	2582	2586	2547	2534	2563	2560	2550	2575	2591	2567	2571	2583	2547	2587	2531	2548	2531	2559	2531	2514	2507	2515	2559	2523	2547	2539	2502	2551	2558	2526	2543	2519	2519	2511	2555	2531	2494	2479	2490	2475	2472	2487	2475	2467	2503	2491	2507	2502	2483	2482	2475	2519	2495	2470	2476	2483	2451	2496	2435	2455	2439	2475	2448	2478	2482	2438	2479	2475	2475	2454	2451	2495	2451	2439	2459	2443	2416	2434	2438	2423	2426	2451	2404	2458	2431	2454	2455	2463	2427	2463	2472	2411	2474	2471	2435	2427	2431	2431	2415	2403	2391	2419	2367	2387	2399	2443	2447	2407	2443	2471	2431	2454	2411	2449	2387	2408	2379	2410	2439	2395	2411	2375	2391	2415	2395	2392	2439	2463	2399	2422	2463	2406	2419	2438	2407	2378	2399	2395	2390	2355	2367	2374	2371	2402	2379	2407	2390	2439	2426	2450	2430	2390	2426	2446	2411	2403	2378	2378	2387	2379	2371	2387	2371	2390	2411	2363	2371	2394	2382	2407	2414	2398	2406	2391	2379	2395	2362	2367	2403	2331	2355	2359	2383	2403	2382	2416	2391	2367	2430	2411	2443	2371	2422	2394	2387	2374	2395	2367	2351	2338	2362	2351	2358	2375	2359	2371	2363	2403	2402	2359	2419	2387	2362	2363	2379	2400	2383	2375	2367	2362	2340	