2289	2258	2235	2271	2262	2214	2223	2195	2183	2223	2207	2246	2211	2211	2255	2231	2286	2254	2238	2242	2230	2270	2279	2230	2223	2203	2231	2202	2187	2219	2202	2175	2227	2207	2231	2203	2211	2234	2246	2219	2198	2223	2232	2231	2243	2215	2206	2170	2191	2190	2199	2202	2219	2231	2183	2211	2190	2206	2238	2231	2250	2239	2227	2183	2191	2228	2219	2199	2210	2207	2175	2195	2227	2186	2238	2207	2235	2222	2270	2263	2271	2256	2223	2218	2215	2254	2215	2235	2211	2235	2271	2282	2283	2323	2266	2299	2310	2296	2307	2331	2347	2382	2359	2371	2351	2390	2386	2351	2375	2422	2387	2423	2427	2434	2463	2470	2531	2543	2534	2550	2574	2591	2595	2570	2555	2592	2599	2587	2598	2623	2643	2650	2671	2711	2722	2735	2766	2786	2767	2791	2783	2842	2814	2854	2883	2875	2851	2863	2919	2887	2918	2914	2959	2946	3010	3019	3030	3030	3007	3062	3091	3103	3055	3099	3067	3118	3103	3075	3135	3155	3102	3146	3139	3199	3179	3191	3195	3183	3195	3199	3230	3238	3226	3263	3215	3247	3202	3219	3234	3211	3254	3231	3259	3251	3263	3291	3271	3286	3298	3291	3279	3271	3259	3263	3247	3258	3255	3234	3235	3239	3274	3239	3234	3267	3247	3278	3299	3274	3267	3282	3274	3259	3232	3254	3227	3223	3215	3243	3191	3207	3218	3183	3218	3199	3255	3227	3239	3243	3198	3239	3202	3186	3187	3195	3171	3178	3138	3163	3131	3135	3130	3143	3134	3159	3158	3147	3146	3135	3159	3159	3139	3107	3147	3119	3099	3107	3107	3067	3063	3107	3094	3071	3111	3106	3059	3107	3096	3102	3087	3115	3106	3070	3063	3071	3067	3059	3010	3031	3023	3054	3027	3030	3034	3019	3059	3040	3026	3031	3067	3031	3051	3035	3035	3042	3023	3043	3023	2983	3003	3015	3035	3002	3007	3010	3047	3023	3050	3051	3022	3003	3006	3039	2986	2994	2998	2982	2959	2951	2938	2947	2947	2942	2970	2966	2995	2975	2998	2987	2986	2955	2955	2955	2939	2963	2947	2934	2943	2907	2919	2906	2902	2883	2915	2893	2906	2911	2931	2902	2935	2887	2875	2878	2903	2919	2870	2875	2871	2823	2851	2855	2822	2854	2839	2847	2854	2843	2846	2831	2823	2843	2807	2819	2851	2811	2783	2807	2766	2779	2747	2771	2751	2778	2795	2791	2802	2842	2828	2786	2783	2807	2807	2807	2787	2803	2762	2803	2743	2750	2735	2726	2783	2774	2790	2767	2759	2782	2776	2755	2791	2791	2775	2775	2767	2787	2771	2771	2783	2775	2750	2766	2783	2798	2803	2794	2763	2811	2803	2818	2810	2790	2782	2775	2759	2766	2783	2783	2800	2723	2739	2771	2742	2791	2770	2827	2811	2819	2807	2790	2791	2834	2811	2767	2785	2791	2783	2758	2759	2783	2755	2767	2763	2754	2791	2755	2786	2791	2751	2771	2792	2771	2791	2786	2747	2787	2742	2754	2719	2719	2707	2727	2723	2707	2730	2718	2771	2743	2743	2728	2734	2754	2720	2735	2759	2714	2674	2703	2699	2646	2678	2650	2703	2639	2667	2647	2658	2699	2678	2674	2678	2691	2683	2630	2659	2606	2663	2658	2643	2607	2631	2614	2622	2579	2611	2655	2631	2667	2603	2639	2614	2594	2643	2599	2611	2579	2592	2563	2539	2563	2586	2587	2615	2551	2594	2567	2590	2582	2615	2559	2594	2595	2586	2595	2559	2555	2571	2562	2539	2559	2518	2551	2551	2494	2527	2519	2543	2543	2531	2559	2571	2543	2527	2507	2507	2531	2499	2514	2503	2507	2483	2455	2474	2482	2483	2475	2522	2483	2478	2466	2534	2526	2482	2471	2455	2491	2458	2467	2423	2439	2450	2459	2471	2454	2443	2443	2442	2435	2434	2434	2450	2447	2451	2407	2431	2418	2402	2399	2423	2411	2422	2423	2387	2422	2387	2423	2442	2426	2410	2451	2411	2391	2410	2427	2367	2362	2358	2403	2367	2359	2395	2343	2386	2374	2342	2387	2383	2375	2367	2383	2415	2367	2371	2375	2378	2350	2334	2379	2359	2339	2327	2366	2331	2351	2322	2335	2383	2359	2370	2390	2351	2375	2346	2391	2346	2358	2315	2322	2355	2314	2307	2363	2342	2315	2351	2350	2331	2363	2386	2352	2399	2387	2371	2334	2343	2371	2358	2334	2311	2339	2342	2314	2371	2358	2335	2344	2391	2331	2359	2390	2350	2340	2387	2335	2375	2358	2359	2350	2347	2294	2323	2307	2355	2327	2318	2379	2363	2360	2338	2359	2379	2366	2347	2375	2347	2367	2359	2363	2358	2331	2351	2310	2331	2343	2314	2345	2343	2342	2367	2379	2367	2342	2367	2335	2364	2339	2363	2340	2303	2330	2298	2327	2346	2324	2343	2351	2319	2339	2342	2348	2374	2366	2343	2326	2339	2315	2347	2331	2310	2319	2282	2310	2319	2326	2335	2358	2327	2315	2298	2363	2367	2343	2339	2334	2303	2315	2290	2328	2279	2311	2315	2330	2293	2343	2303	2311	2352	2367	2318	2367	2334	2363	2330	2338	2350	2346	2323	2323	2295	2307	2291	2335	2327	2287	2345	2295	2319	2327	2298	2346	2319	2371	2346	2335	2323	2347	2334	2327	2327	2327	2302	2283	2326	2283	2326	2339	2307	2311	2338	2323	2368	2323	2347	2319	2299	2334	2335	2287	2299	2291	2307	2294	2315	2282	2319	2330	2291	2350	2331	2299	2332	2347	2287	2286	2287	2327	2278	2275	2254	2298	2255	2315	2306	2259	2294	2275	2323	2328	2279	2298	2310	2326	2326	2262	2272	2291	2275	2282	2299	2307	2267	2250	2258	2262	2322	2323	2295	2323	2291	2280	2318	2291	2255	2262	2239	2283	2259	2247	2274	2267	2238	2291	2235	2258	2291	2256	2286	2294	2299	2279	2290	2299	2311	2259	2291	2279	2238	2275	2270	2223	2291	2231	2243	2271	2295	2275	2262	2255	2307	2271	2283	2298	2267	2250	2224	2278	2262	2278	2231	2230	2242	2271	2262	2231	2287	2286	2271	2275	2286	2266	2291	2290	2292	2234	2231	2251	2247	2212	2235	2211	2219	2262	2243	2262	2227	2234	2247	2239	2243	2258	2267	2271	2238	2240	2203	2239	2190	2235	2195	2223	2227	2215	2259	2239	2254	2234	2243	2270	2231	2266	2231	2267	2252	2243	2231	2211	2242	2230	2215	2250	2191	2251	2195	2246	2215	2210	2247	2223	2275	2279	2239	2311	2258	2238	2246	2291	2286	2287	2287	2246	2295	2315	2278	2342	2291	2323	2364	2347	2375	2355	2395	2367	2375	2399	2375	2423	2443	2411	2403	2451	2439	2453	2474	2466	2539	2575	2594	2555	2618	2619	2630	2626	2607	2639	2643	2651	2695	2706	2670	2695	2766	2774	2775	2791	2827	2802	2831	2875	2899	2903	2915	2907	2963	2935	2931	2974	2999	2970	3018	3019	3023	3047	3027	3054	3099	3099	3123	3169	3143	3162	3183	3214	3195	3206	3215	3199	3190	3207	3199	3215	3238	3275	3259	3243	3311	3295	3287	3355	3339	3334	3351	3367	3379	3362	3335	3347	3386	3351	3375	3386	3350	3364	3382	3403	3407	3371	3398	3419	3431	3414	3410	3439	3414	3399	3407	3402	3371	3391	3370	3367	3395	3395	3371	3426	3363	3399	3435	3399	3406	3407	3395	3403	3399	3375	3391	3355	3383	3331	3319	3358	3347	3343	3351	3335	3326	3326	3343	3343	3320	3315	3359	3363	3314	3339	3311	3327	3303	3263	3287	3266	3262	3243	3291	3263	3290	3315	3267	3279	3306	3287	3298	3295	3291	3271	3242	3259	3219	3251	3251	3232	3234	3195	3238	3214	3223	3219	3231	3251	3259	3266	3234	3255	3258	3219	3219	3243	3222	3179	3198	3191	3218	3211	3207	3192	3239	3230	3222	3226	3214	3191	3234	3214	3215	3226	3183	3175	3179	3211	3203	3151	3186	3183	3175	3171	3203	3183	3186	3190	3219	3179	3206	3239	3211	3195	3167	3155	3184	3151	3143	3159	3155	3139	3138	3159	3178	3155	3158	3139	3162	3151	3183	3151	3170	3139	3107	3102	3127	3139	3107	3083	3079	3071	3106	3067	3091	3091	3107	3114	3102	3126	3110	3083	3083	3063	3039	3059	3019	3015	3023	3019	3030	3055	3007	3038	3050	3038	3039	3019	3018	3007	3007	3015	3010	2975	2991	2991	2963	2936	2943	2926	2974	2946	2954	2987	2963	2959	3003	2955	2975	2974	2935	2967	2947	2934	2927	2939	2951	2935	2930	2883	2884	2887	2939	2883	2903	2919	2934	2939	2919	2923	2919	2939	2890	2923	2910	2851	2882	2911	2855	2854	2863	2878	2867	2871	2891	2902	2907	2899	2896	2918	2908	2879	2868	2867	2891	2878	2879	2878	2854	2874	2872	2890	2867	2846	2887	2862	2895	2867	2914	2911	2887	2886	2907	2851	2887	2830	2847	2834	2835	2878	2811	2831	2851	2878	2859	2891	2831	2879	2867	2887	2846	2883	2835	2823	2827	2842	2842	2819	2783	2823	2815	2839	2831	2787	2806	2838	2839	2815	2830	2827	2835	2795	2790	2778	2827	2779	2778	2782	2775	2763	2755	2766	2762	2771	2759	2762	2775	2738	2783	2744	2787	2726	2755	2723	2723	2751	2690	2734	2719	2714	2703	2683	2715	2719	2694	2722	2679	2694	2682	2698	2696	2678	2687	2682	2674	2667	2678	2675	2634	2651	2643	2642	2635	2628	2667	2627	2635	2623	2670	2627	2638	2662	2622	2623	2606	2618	2594	2583	2551	2606	2599	2591	2599	2608	2571	2603	2579	2591	2575	2586	2582	2606	2591	2547	2539	2582	2554	2547	2528	2528	2519	2575	2543	2535	2559	2546	2551	2562	2582	2555	2531	2530	2547	2531	2531	2487	2495	2498	2514	2527	2515	2483	2527	2534	2503	2475	2499	2491	2490	2495	2499	2471	2507	2511	2451	2491	2507	2471	2455	2479	2470	2491	2458	2435	2491	2459	2450	2467	2483	2475	2478	2466	2443	2434	2454	2427	2415	2442	2427	2398	2431	2427	2415	2399	2439	2455	2458	2431	2422	2423	2451	2466	2419	2415	2443	2378	2406	2382	2403	2407	2371	2429	2391	2387	2379	2443	2379	2431	2411	2415	2370	2395	2402	2403	2386	2383	2344	2387	2334	2351	2371	2335	2379	2367	2355	2418	2343	2367	2359	2355	2363	2399	2394	2351	2339	2311	2351	2335	2327	2327	2350	2335	2343	2315	2342	2359	2387	2361	2382	2334	2338	2363	2358	2319	2355	2343	2311	2315	2328	2343	2331	2311	2347	2335	2346	2363	2339	2387	2347	2355	2375	2335	2311	2339	2327	2319	2331	2311	2322	2319	2275	2303	2298	2338	2304	2354	2331	2307	2352	2299	2322	2335	2298	2279	2294	2306	2294	2270	2315	2303	2294	2271	2294	2283	2282	2310	2289	2338	2318	2336	2311	2294	2311	2307	2291	2302	2291	2262	2286	2247	2290	2303	2314	2279	2270	2295	2310	2303	2315	2307	2291	2274	2307	2262	2255	2282	2283	2254	2250	2266	2258	2282	2294	2288	2275	2323	2323	2298	2299	2295	2290	2259	2290	2262	2306	2250	2254	2238	2235	2240	2282	2279	2291	2235	2255	2258	2271	2259	2257	2262	2291	2246	2266	2227	2263	2238	2266	2248	2218	2202	2227	2231	2239	2226	2219	2254	2243	2243	2255	2239	2266	2286	2227	2223	2231	2223	2227	2219	2227	2198	2247	2210	2218	2239	2264	2263	2274	2255	2247	2238	2243	2234	2235	2258	2195	2230	2198	2194	2190	2202	2226	2167	2175	2218	2242	2231	2187	2238	2199	2219	2222	2191	2219	2206	2195	2183	2178	2174	2202	2155	2174	2174	2218	2178	2190	2179	2254	2194	2200	2182	2227	2187	2166	2211	2158	2194	2167	2187	2166	2195	2151	2203	2164	2155	2199	2232	2218	2242	2231	2159	2215	2171	2196	2159	2155	2147	2170	2207	2146	2139	2147	2142	2160	2198	2175	2215	2175	2175	2206	2171	2195	2167	2182	2162	2179	2182	2170	2151	2151	2143	2130	2155	2151	2147	2155	2198	2199	2202	2157	2174	2203	2134	2183	2164	2147	2151	2127	2155	2143	2110	2170	2114	2122	2131	2139	2179	2171	2167	2174	2179	2199	2166	2162	2119	2138	2135	2136	2095	2078	2119	2142	2087	2158	2142	2167	2107	2128	2135	2139	2142	2159	2155	2091	2103	2098	2135	2095	2094	2131	2066	2070	2083	2106	2123	2103	2094	2110	2155	2139	2118	2143	2127	2107	2103	2091	2138	2091	2123	2139	2095	2115	2122	2119	2147	2174	2166	2146	2163	2190	2187	2167	2214	2166	2186	2206	2200	2179	2214	2223	2243	2235	2231	2286	2251	2298	2295	2283	2319	2323	2326	2379	2351	2367	2390	2411	2366	2375	2419	2423	2426	2447	2455	2491	2534	2523	2527	2534	2579	2567	2607	2618	2594	2590	2639	2599	2655	2675	2679	2690	2663	2723	2735	2762	2722	2767	2787	2775	2842	2831	2855	2875	2854	2851	2927	2878	2887	2871	2895	2942	2934	2934	2959	2995	3012	2974	3023	3051	3011	3059	3022	3055	3050	