2151	2142	2159	2122	2143	2216	2186	2198	2211	2218	2254	2286	2287	2330	2375	2400	2371	2402	2479	2431	2474	2534	2499	2592	2550	2626	2635	2683	2723	2711	2759	2755	2763	2832	2842	2946	2911	2943	2939	3023	3055	3055	3063	3067	3138	3111	3151	3219	3203	3264	3294	3323	3354	3354	3359	3426	3418	3478	3491	3527	3498	3519	3510	3522	3547	3579	3658	3671	3676	3670	3723	3671	3699	3770	3791	3820	3786	3791	3811	3794	3830	3831	3846	3827	3831	3823	3843	3918	3863	3907	3895	3890	3903	3946	3950	3923	3907	3979	3970	3963	3903	3931	3906	3914	3935	3951	3934	3951	3911	3903	3947	3899	3934	3902	3919	3923	3890	3938	3875	3899	3895	3839	3863	3875	3874	3815	3827	3870	3858	3839	3815	3839	3794	3818	3822	3811	3759	3755	3758	3790	3743	3719	3718	3663	3683	3655	3682	3695	3634	3671	3671	3607	3623	3578	3607	3607	3559	3543	3587	3554	3519	3507	3507	3471	3518	3431	3427	3475	3426	3434	3423	3406	3383	3422	3426	3439	3407	3399	3387	3338	3366	3271	3306	3339	3262	3235	3270	3259	3274	3227	3238	3227	3255	3239	3187	3211	3215	3187	3131	3111	3162	3132	3070	3059	3046	3107	3055	3035	3086	3006	3026	3031	3043	3038	3023	2951	2990	2959	2934	2954	2903	2867	2903	2878	2855	2820	2828	2827	2840	2835	2774	2850	2811	2827	2798	2787	2790	2718	2743	2767	2691	2687	2739	2667	2655	2642	2659	2670	2623	2691	2630	2699	2631	2646	2603	2679	2607	2607	2627	2599	2624	2555	2619	2595	2607	2591	2574	2555	2558	2558	2575	2610	2551	2602	2586	2583	2551	2583	2575	2591	2566	2527	2599	2587	2562	2523	2539	2535	2519	2607	2610	2582	2570	2632	2582	2571	2590	2583	2568	2607	2574	2547	2594	2562	2575	2599	2566	2598	2650	2584	2662	2647	2666	2666	2683	2672	2638	2687	2650	2639	2614	2655	2667	2680	2671	2679	2611	2622	2643	2689	2651	2687	2722	2702	2663	2675	2735	2718	2671	2671	2723	2703	2682	2711	2695	2655	2643	2715	2658	2718	2715	2691	2711	2683	2766	2747	2703	2731	2699	2707	2667	2715	2670	2683	2739	2699	2659	2698	2659	2723	2659	2695	2694	2678	2738	2686	2687	2654	2694	2687	2667	2647	2635	2687	2635	2687	2691	2672	2627	2686	2659	2631	2623	2606	2675	2679	2667	2643	2655	2591	2623	2575	2582	2603	2591	2551	2586	2579	2559	2559	2595	2534	2559	2534	2598	2539	2566	2523	2543	2558	2575	2510	2534	2534	2539	2527	2463	2514	2503	2467	2519	2467	2462	2502	2531	2522	2495	2503	2463	2487	2470	2394	2398	2463	2455	2390	2391	2419	2399	2410	2414	2383	2434	2378	2378	2383	2398	2359	2395	2375	2360	2351	2367	2348	2363	2371	2383	2332	2322	2382	2384	2343	2323	2375	2315	2343	2315	2371	2330	2320	2352	2311	2283	2295	2270	2335	2253	2258	2299	2267	2282	2295	2279	2287	2275	2350	2295	2232	2254	2311	2291	2235	2222	2258	2239	2263	2247	2260	2250	2247	2255	2198	2267	2294	2234	2219	2226	2278	2179	2233	2186	2186	2231	2187	2226	2215	2191	2151	2190	2238	2175	2231	2226	2196	2151	2178	2138	2179	2216	2139	2182	2118	2118	2163	2099	2143	2162	2171	2174	2158	2121	2147	2187	2122	2158	2122	2131	2099	2171	2103	2103	2095	2110	2099	2122	2063	2111	2103	2078	2151	2147	2142	2119	2142	2086	2131	2111	2078	2054	2120	2046	2054	2095	2106	2115	2062	2062	2114	2098	2051	2099	2139	2093	2106	2083	2091	2128	2039	2058	2059	2075	2028	2063	2047	2038	2031	2072	2071	2010	2023	2067	2110	2067	2019	2059	2084	2095	2058	2056	2031	2031	2034	2047	2035	1999	2014	1979	2047	2002	2014	2004	2038	2043	2023	2039	2047	2031	2003	2027	2003	1995	1978	1991	1983	1998	1994	1998	1992	2007	1999	2047	2071	2075	2047	2071	2044	2014	1995	2058	2047	2034	2091	2086	2090	2027	2112	2042	2106	2163	2091	2115	2123	2202	2198	2163	2179	2194	2211	2246	2290	2305	2298	2279	2335	2366	2347	2390	2370	2462	2454	2450	2495	2495	2566	2627	2631	2644	2646	2643	2703	2690	2780	2811	2843	2794	2867	2855	2939	2923	2955	2979	3030	3030	3126	3147	3139	3198	3191	3203	3271	3238	3323	3307	3327	3338	3387	3376	3379	3462	3502	3512	3568	3511	3541	3570	3622	3615	3631	3655	3631	3687	3666	3682	3687	3707	3722	3775	3767	3791	3795	3819	3774	3795	3807	3815	3835	3823	3843	3872	3863	3870	3851	3879	3899	3911	3847	3874	3911	3880	3938	3886	3883	3939	3903	3907	3935	3883	3879	3891	3887	3843	3896	3843	3866	3887	3906	3895	3852	3887	3894	3863	3839	3887	3863	3795	3834	3815	3787	3786	3795	3755	3755	3787	3775	3755	3692	3703	3682	3723	3710	3739	3703	3663	3659	3639	3655	3639	3650	3575	3607	3559	3542	3594	3542	3587	3535	3559	3498	3515	3479	3491	3455	3510	3458	3427	3459	3391	3427	3363	3382	3363	3379	3343	3315	3311	3326	3368	3311	3302	3279	3335	3266	3311	3254	3226	3246	3207	3251	3182	3235	3192	3134	3151	3167	3103	3095	3123	3134	3075	3131	3111	3066	3127	3091	3087	3031	3027	3019	2967	3006	2959	2919	2971	2939	2890	2942	2923	2907	2891	2903	2883	2851	2859	2847	2851	2827	2774	2815	2826	2750	2727	2711	2723	2707	2675	2687	2679	2672	2674	2711	2667	2656	2646	2703	2703	2704	2638	2675	2678	2607	2583	2602	2587	2611	2595	2587	2535	2566	2535	2559	2563	2579	2606	2582	2542	2571	2554	2587	2547	2571	2498	2503	2491	2515	2522	2563	2536	2471	2498	2551	2527	2531	2567	2511	2563	2514	2499	2507	2522	2498	2499	2522	2522	2547	2563	2515	2502	2511	2504	2563	2583	2595	2587	2535	2538	2559	2531	2535	2543	2587	2599	2595	2526	2538	2543	2547	2590	2607	2619	2546	2615	2623	2567	2614	2635	2646	2591	2647	2579	2635	2643	2591	2639	2615	2586	2639	2578	2594	2662	2607	2659	2671	2655	2682	2631	2679	2687	2627	2623	2611	2670	2602	2626	2602	2627	2647	2626	2671	2687	2687	2659	2663	2687	2623	2666	2608	2604	2635	2610	2655	2591	2614	2591	2627	2623	2619	2603	2655	2606	2638	2623	2647	2614	2630	2622	2559	2575	2591	2611	2619	2576	2599	2535	2523	2566	2551	2512	2563	2530	2539	2559	2526	2555	2567	2598	2514	2554	2519	2495	2543	2538	2516	2526	2475	2475	2491	2459	2519	2463	2502	2530	2547	2494	2463	2546	2515	2523	2459	2423	2467	2415	2410	2459	2398	2422	2395	2463	2443	2467	2422	2475	2451	2455	2427	2479	2403	2404	2431	2375	2374	2407	2375	2407	2411	2399	2382	2343	2318	2331	2350	2339	2379	2311	2391	2350	2395	2350	2367	2326	2355	2351	2283	2299	2271	2263	2295	2263	2282	2314	2256	2323	2302	2295	2347	2323	2271	2310	2295	2292	2307	2226	2254	2258	2279	2230	2238	2214	2259	2262	2235	2275	2294	2275	2247	2214	2259	2211	2267	2174	2254	2198	2226	2207	2239	2206	2167	2151	2171	2179	2211	2183	2203	2191	2227	2234	2219	2211	2155	2139	2204	2198	2134	2139	2122	2115	2103	2158	2158	2143	2111	2178	2127	2183	2166	2131	2163	2114	2103	2082	2095	2103	2074	2114	2070	2119	2119	2090	2099	2074	2099	2114	2083	2143	2130	2138	2143	2075	2119	2091	2047	2079	2106	2067	2033	2035	2031	2091	2070	2051	2091	2106	2087	2091	2059	2063	2043	2018	2070	2059	2054	2055	2062	1992	2019	1979	2055	1990	2070	2006	1991	2075	1990	1999	2015	2004	2075	2047	2059	2047	2042	2027	1955	1947	2031	2019	1998	1978	1963	1971	2014	2038	1983	2056	2002	2007	1962	2023	2015	1962	2019	1955	1939	1935	1947	1946	1974	2015	1955	2031	1974	1983	2010	2003	1999	2026	2051	1976	2018	2023	2035	1998	1992	2002	2010	2022	2083	2019	2119	2055	2130	2151	2159	2107	2131	2206	2223	2215	2179	2198	2203	2227	2223	2222	2254	2275	2267	2371	2371	2403	2427	2451	2459	2462	2531	2515	2591	2618	2562	2643	2623	2635	2730	2679	2723	2774	2775	2863	2851	2870	2903	2931	2951	3041	3070	3023	3106	3070	3127	3177	3215	3167	3242	3239	3248	3259	3327	3314	3391	3371	3406	3463	3490	3475	3482	3503	3531	3570	3535	3626	3574	3614	3615	3654	3640	3651	3699	3724	3730	3743	3735	3778	3767	3775	3802	3823	3838	3823	3799	3799	3783	3783	3795	3811	3794	3855	3807	3823	3867	3835	3855	3847	3867	3853	3891	3847	3843	3851	3871	3826	3835	3827	3858	3847	3871	3854	3815	3798	3855	3838	3843	3790	3795	3835	3830	3774	3815	3799	3774	3735	3730	3723	3690	3735	3670	3675	3719	3675	3691	3679	3662	3719	3691	3627	3639	3607	3607	3622	3603	3571	3554	3576	3547	3518	3519	3538	3474	3463	3486	3454	3503	3438	3431	3451	3423	3399	3407	3439	3390	3386	3318	3331	3327	3352	3323	3274	3279	3303	3296	3291	3266	3247	3282	3263	3243	3219	3223	3203	3159	3123	3187	3159	3087	3151	3070	3059	3038	3030	3070	3063	3083	3027	3070	2986	3035	2958	3030	2971	2950	2982	2890	2903	2867	2882	2903	2864	2854	2863	2807	2880	2822	2862	2783	2819	2843	2743	2771	2763	2703	2703	2718	2723	2714	2643	2655	2692	2618	2663	2678	2671	2662	2647	2639	2602	2606	2647	2602	2622	2603	2579	2507	2570	2567	2519	2495	2483	2498	2527	2519	2483	2515	2543	2495	2479	2543	2467	2483	2491	2466	2455	2493	2458	2435	2454	2507	2446	2483	2459	2446	2459	2467	2450	2503	2459	2470	2551	2495	2483	2491	2470	2443	2522	2474	2503	2467	2459	2475	2463	2535	2542	2519	2518	2543	2559	2563	2543	2522	2534	2567	2543	2550	2558	2518	2563	2511	2507	2575	2554	2575	2559	2599	2622	2622	2598	2627	2622	2623	2599	2619	2631	2587	2562	2622	2570	2562	2611	2599	2574	2595	2627	2655	2670	2634	2627	2622	2655	2631	2623	2631	2667	2607	2614	2646	2631	2579	2575	2599	2607	2630	2607	2594	2662	2642	2650	2618	2631	2622	2635	2606	2643	2571	2591	2575	2603	2631	2610	2551	2567	2631	2627	2595	2647	2598	2603	2579	2571	2550	2566	2543	2523	2544	2586	2527	2522	2563	2539	2500	2491	2498	2506	2511	2550	2556	2506	2490	2495	2495	2502	2543	2462	2499	2490	2459	2435	2430	2423	2419	2410	2479	2443	2439	2479	2414	2459	2426	2411	2387	2374	2411	2399	2342	2375	2366	2403	2423	2398	2400	2349	2382	2335	2399	2339	2319	2314	2387	2342	2291	2294	2339	2303	2327	2290	2287	2247	2254	2290	2315	2239	2248	2314	2279	2279	2242	2258	2310	2303	2212	2242	2223	2194	2258	2223	2211	2238	2231	2231	2243	2155	2192	2231	2186	2187	2183	2151	2166	2170	2175	2210	2195	2126	2142	2119	2174	2123	2162	2115	2158	2095	2106	2143	2098	2171	2178	2183	2123	2103	2163	2135	2114	2110	2059	2127	2058	2094	2098	2066	2115	2110	2039	2126	2047	2070	2067	2050	2127	2098	2052	2031	2030	2057	2074	2087	2011	2038	2075	1990	1994	2067	2068	2019	2071	2075	2074	2067	2063	2031	2058	1991	2010	1987	1967	2035	2023	2023	2011	2042	1975	2023	2039	1994	1979	1959	1987	2014	1963	2023	1962	1935	1939	2006	2010	1920	1910	1935	1982	1943	1922	1979	1922	1999	1998	1926	2003	1966	1960	1954	1928	1964	1963	1883	1940	1890	1918	1880	1870	1950	1879	1867	1883	1879	1958	1931	1950	1943	1902	1890	1886	1883	1866	1864	1899	1887	1839	1844	1862	1847	1827	1831	1866	1843	1846	1850	1890	1903	1863	1900	1903	1843	1871	1830	1811	1879	1880	1882	1853	1819	1872	1902	1836	1854	1842	1903	1855	1851	1923	1859	1855	1914	1914	1879	1898	1924	1867	1946	1902	1943	1931	1991	1955	2019	2034	2063	2019	2043	2063	2143	2095	2107	2119	2198	2171	2182	2255	2290	2258	2327	2315	2383	2407	2407	2466	2439	2518	2539	2534	2556	2578	2644	2670	2647	2698	2730	2787	2812	2843	2850	2843	2930	2895	2951	3022	3011	3083	3047	3139	3119	3111	3199	3186	3223	3255	3219	3231	3323	3287	3370	3362	3355	3434	3439	3431	3487	3499	3519	3546	3523	3531	3542	3543	3550	3599	3659	3618	3663	3654	3687	3683	3722	3715	3739	3750	3711	3739	3790	3750	3731	3802	3807	3783	3759	3739	3803	3755	3751	3747	3812	3763	3785	3775	3791	3794	3827	3766	3838	3848	3830	3811	3787	3774	3775	3759	