3335	3299	3263	3264	3272	3254	3239	3231	3190	3215	3202	3169	3175	3099	3147	3087	3130	3086	3023	3003	2979	3022	2967	2975	2998	2950	2887	2883	2898	2867	2915	2839	2879	2871	2822	2859	2839	2751	2771	2722	2731	2723	2715	2658	2639	2679	2643	2583	2627	2635	2611	2627	2603	2530	2506	2510	2563	2472	2466	2487	2479	2407	2391	2390	2399	2362	2355	2379	2351	2363	2387	2326	2388	2375	2350	2346	2287	2352	2271	2266	2270	2261	2274	2203	2279	2255	2267	2223	2203	2254	2206	2275	2199	2271	2246	2219	2259	2211	2191	2242	2235	2203	2170	2175	2227	2187	2242	2219	2179	2268	2247	2234	2226	2259	2259	2218	2207	2203	2207	2199	2270	2187	2259	2199	2239	2219	2207	2291	2271	2299	2262	2279	2278	2327	2275	2359	2331	2279	2351	2295	2298	2367	2283	2299	2307	2378	2375	2346	2411	2382	2363	2366	2407	2387	2423	2395	2423	2422	2415	2415	2423	2438	2394	2463	2443	2474	2399	2430	2439	2479	2439	2495	2443	2523	2519	2479	2526	2498	2471	2503	2483	2523	2478	2471	2491	2439	2499	2458	2551	2518	2507	2563	2550	2542	2514	2510	2514	2498	2471	2491	2487	2511	2540	2482	2499	2546	2506	2479	2527	2550	2515	2523	2474	2498	2559	2523	2522	2474	2462	2482	2519	2458	2450	2462	2470	2510	2470	2446	2518	2531	2530	2519	2499	2507	2494	2543	2475	2446	2479	2486	2447	2451	2451	2410	2419	2411	2430	2415	2479	2414	2471	2440	2430	2436	2459	2407	2462	2435	2431	2402	2383	2411	2366	2407	2350	2415	2371	2360	2362	2374	2391	2422	2366	2419	2382	2399	2399	2367	2319	2331	2315	2347	2319	2363	2342	2299	2311	2322	2327	2303	2298	2327	2326	2279	2355	2327	2263	2299	2307	2259	2250	2235	2230	2263	2275	2274	2302	2242	2242	2227	2239	2255	2303	2307	2247	2226	2235	2207	2294	2235	2267	2235	2254	2182	2184	2212	2166	2174	2228	2174	2223	2198	2198	2234	2211	2170	2210	2219	2170	2143	2223	2170	2156	2139	2195	2134	2187	2131	2122	2139	2135	2139	2175	2174	2166	2132	2126	2115	2106	2111	2083	2114	2135	2142	2092	2127	2079	2067	2067	2078	2071	2068	2139	2126	2138	2123	2096	2078	2067	2051	2047	2059	2095	2107	2046	2035	2118	2107	2115	2055	2118	2075	2115	2135	2114	2087	2142	2082	2127	2087	2146	2163	2090	2114	2178	2122	2163	2219	2226	2182	2263	2283	2282	2251	2339	2299	2343	2394	2323	2386	2411	2414	2462	2487	2479	2503	2575	2578	2587	2631	2654	2704	2674	2766	2762	2799	2782	2867	2851	2882	2922	2918	2987	3003	2982	2999	3039	3122	3127	3131	3207	3195	3263	3259	3250	3294	3367	3366	3403	3354	3374	3451	3454	3459	3483	3535	3502	3547	3598	3567	3599	3623	3635	3659	3679	3699	3690	3667	3707	3683	3702	3767	3718	3783	3779	3747	3759	3815	3815	3786	3807	3843	3855	3858	3862	3882	3843	3806	3875	3866	3858	3818	3823	3875	3846	3855	3847	3866	3823	3866	3843	3867	3822	3843	3867	3831	3795	3843	3811	3795	3803	3807	3807	3787	3779	3718	3731	3774	3747	3715	3730	3703	3719	3683	3655	3659	3690	3638	3634	3595	3599	3623	3562	3583	3531	3571	3558	3518	3536	3478	3511	3491	3483	3507	3502	3431	3423	3363	3415	3359	3359	3383	3306	3338	3330	3282	3259	3279	3256	3259	3270	3286	3207	3199	3175	3199	3198	3183	3119	3155	3111	3115	3055	3031	3040	3063	3039	2986	3015	3031	2951	2955	2991	2923	2939	2875	2870	2875	2871	2838	2843	2823	2790	2762	2734	2719	2703	2703	2667	2714	2707	2718	2646	2627	2619	2663	2579	2631	2563	2599	2583	2555	2519	2535	2463	2491	2455	2515	2471	2455	2442	2451	2447	2427	2435	2422	2447	2391	2391	2399	2363	2403	2394	2327	2399	2382	2318	2315	2319	2342	2342	2340	2355	2310	2342	2315	2350	2331	2358	2315	2315	2315	2343	2359	2319	2330	2314	2323	2338	2346	2343	2403	2415	2346	2394	2383	2354	2387	2423	2371	2383	2363	2379	2399	2414	2359	2399	2438	2414	2387	2439	2415	2414	2502	2439	2462	2458	2442	2415	2427	2442	2439	2451	2507	2462	2519	2486	2538	2495	2487	2535	2507	2552	2571	2538	2572	2555	2499	2586	2523	2574	2519	2563	2575	2546	2575	2531	2563	2579	2582	2587	2575	2574	2571	2619	2643	2578	2595	2639	2618	2574	2563	2631	2555	2626	2611	2578	2591	2619	2583	2627	2659	2639	2623	2671	2666	2603	2583	2656	2643	2627	2583	2582	2574	2583	2631	2630	2607	2642	2655	2572	2583	2638	2595	2618	2635	2607	2543	2587	2582	2578	2575	2578	2543	2599	2564	2598	2579	2530	2559	2587	2535	2555	2574	2538	2590	2575	2490	2563	2539	2547	2471	2470	2503	2462	2534	2455	2486	2479	2467	2526	2523	2487	2478	2459	2471	2438	2463	2499	2471	2419	2475	2459	2423	2443	2454	2440	2455	2463	2462	2467	2424	2439	2431	2451	2399	2382	2366	2363	2407	2354	2383	2391	2326	2360	2406	2335	2378	2399	2350	2403	2355	2335	2367	2371	2374	2403	2359	2294	2338	2283	2326	2326	2334	2299	2318	2276	2295	2272	2322	2315	2302	2338	2327	2267	2287	2254	2248	2299	2243	2295	2278	2235	2243	2271	2262	2194	2195	2258	2198	2243	2251	2194	2255	2190	2195	2179	2174	2191	2231	2214	2187	2182	2183	2170	2195	2158	2195	2151	2139	2219	2150	2131	2130	2138	2173	2190	2146	2135	2103	2110	2163	2139	2136	2082	2080	2131	2082	2107	2099	2099	2114	2114	2139	2094	2083	2103	2082	2095	2123	2074	2086	2142	2110	2119	2111	2111	2183	2195	2196	2171	2214	2167	2203	2239	2266	2216	2222	2266	2275	2323	2270	2315	2378	2430	2375	2446	2487	2475	2522	2502	2539	2599	2595	2607	2626	2676	2695	2698	2755	2783	2811	2811	2823	2907	2926	2939	2983	2995	3006	3099	3079	3111	3134	3176	3171	3198	3262	3230	3255	3275	3351	3375	3390	3399	3447	3450	3487	3478	3494	3534	3531	3522	3543	3611	3599	3635	3670	3667	3623	3674	3703	3678	3707	3742	3703	3767	3711	3795	3754	3795	3768	3831	3819	3826	3827	3795	3807	3800	3791	3811	3807	3819	3831	3848	3831	3799	3799	3803	3835	3779	3807	3838	3795	3782	3787	3827	3759	3767	3763	3719	3727	3758	3691	3774	3695	3763	3747	3710	3691	3683	3675	3663	3646	3634	3647	3634	3615	3603	3582	3567	3554	3535	3579	3532	3523	3487	3519	3535	3487	3506	3495	3435	3443	3494	3415	3395	3407	3390	3382	3343	3375	3315	3304	3331	3250	3279	3243	3271	3259	3271	3258	3270	3211	3231	3178	3178	3122	3166	3139	3122	3043	3043	3055	3043	3046	2991	2998	2978	3002	2951	2930	2987	2902	2959	2894	2867	2902	2831	2874	2811	2811	2783	2795	2766	2723	2711	2742	2695	2738	2671	2730	2671	2659	2686	2635	2654	2611	2591	2611	2527	2510	2574	2491	2486	2515	2495	2455	2487	2446	2486	2455	2442	2463	2418	2395	2371	2367	2403	2403	2342	2367	2339	2318	2387	2362	2338	2334	2355	2382	2299	2320	2302	2370	2343	2366	2343	2276	2299	2294	2358	2291	2328	2258	2334	2295	2343	2318	2343	2290	2314	2351	2286	2363	2319	2343	2371	2286	2334	2295	2342	2303	2338	2334	2395	2379	2343	2403	2335	2427	2374	2423	2374	2411	2427	2431	2371	2408	2435	2415	2375	2403	2471	2407	2411	2414	2435	2475	2446	2511	2519	2459	2470	2486	2527	2491	2486	2535	2519	2527	2542	2526	2503	2526	2566	2487	2522	2568	2510	2559	2599	2566	2575	2539	2616	2615	2582	2574	2588	2590	2542	2595	2583	2595	2610	2602	2551	2615	2594	2615	2574	2583	2590	2567	2574	2603	2563	2623	2547	2618	2619	2555	2550	2598	2607	2555	2559	2607	2571	2623	2626	2603	2627	2619	2562	2623	2607	2526	2583	2523	2531	2583	2527	2546	2586	2523	2574	2523	2563	2591	2590	2539	2551	2531	2563	2554	2511	2550	2531	2539	2527	2475	2474	2439	2474	2503	2490	2506	2479	2514	2527	2443	2503	2487	2435	2479	2424	2470	2427	2395	2387	2383	2439	2419	2431	2391	2379	2383	2386	2378	2422	2395	2416	2431	2392	2347	2399	2335	2319	2323	2358	2319	2307	2327	2304	2294	2311	2339	2367	2326	2378	2367	2295	2291	2288	2319	2267	2323	2328	2259	2263	2291	2275	2294	2298	2299	2295	2240	2283	2250	2299	2231	2286	2275	2214	2247	2207	2232	2246	2178	2247	2171	2246	2179	2162	2250	2183	2175	2231	2223	2208	2226	2199	2211	2166	2139	2159	2155	2118	2111	2155	2099	2151	2162	2160	2130	2135	2126	2178	2159	2158	2175	2158	2075	2083	2151	2074	2134	2102	2064	2051	2095	2031	2098	2035	2030	2087	2058	2035	2099	2091	2123	2111	2087	2090	2091	2096	2018	2011	2019	2083	2071	2014	2071	2075	2103	2043	2082	2055	2106	2131	2087	2106	2154	2147	2087	2107	2123	2154	2154	2159	2171	2171	2242	2187	2274	2255	2303	2331	2331	2402	2408	2437	2443	2418	2471	2491	2511	2558	2518	2567	2631	2623	2695	2694	2707	2755	2819	2799	2810	2883	2899	2903	2959	2967	2975	2986	2995	3035	3087	3094	3135	3138	3167	3210	3259	3223	3243	3294	3299	3334	3339	3363	3427	3443	3411	3459	3491	3491	3495	3523	3531	3499	3534	3563	3606	3567	3599	3635	3635	3664	3642	3694	3675	3651	3666	3702	3670	3658	3663	3651	3667	3714	3719	3695	3695	3694	3744	3703	3761	3759	3759	3751	3743	3755	3677	3715	3679	3698	3647	3675	3651	3647	3666	3647	3639	3634	3634	3623	3671	3615	3646	3651	3575	3610	3567	3618	3550	3515	3566	3551	3523	3526	3479	3486	3511	3443	3455	3447	3499	3479	3411	3474	3399	3410	3414	3355	3355	3347	3320	3294	3314	3287	3323	3255	3235	3239	3278	3271	3251	3227	3231	3194	3163	3131	3143	3134	3107	3083	3102	3087	3082	3046	3011	2998	2972	2963	2938	2947	2930	2970	2975	2919	2928	2867	2903	2863	2819	2823	2767	2758	2742	2747	2731	2687	2727	2654	2639	2687	2639	2698	2610	2630	2586	2598	2610	2592	2567	2490	2483	2470	2494	2463	2475	2455	2447	2400	2391	2407	2394	2394	2410	2395	2347	2384	2382	2346	2334	2263	2319	2279	2263	2287	2243	2271	2278	2239	2251	2219	2222	2280	2239	2191	2226	2243	2238	2195	2216	2174	2163	2183	2226	2166	2227	2163	2186	2243	2179	2175	2247	2203	2210	2183	2235	2195	2175	2250	2202	2235	2166	2247	2210	2239	2223	2183	2207	2217	2279	2291	2230	2270	2243	2311	2275	2310	2287	2263	2307	2270	2263	2251	2326	2259	2295	2339	2347	2302	2314	2391	2378	2351	2411	2356	2339	2362	2402	2410	2390	2355	2370	2431	2355	2423	2431	2383	2419	2430	2455	2403	2474	2455	2490	2474	2419	2411	2447	2439	2438	2459	2480	2459	2423	2467	2435	2507	2490	2463	2495	2459	2483	2459	2447	2530	2455	2462	2503	2438	2495	2443	2434	2498	2463	2498	2442	2494	2483	2499	2486	2519	2488	2514	2522	2474	2451	2474	2435	2431	2490	2415	2443	2463	2415	2410	2410	2427	2407	2428	2459	2463	2455	2427	2418	2455	2391	2411	2395	2406	2410	2375	2378	2418	2355	2366	2351	2415	2398	2355	2426	2351	2391	2406	2403	2403	2371	2383	2359	2363	2327	2351	2355	2327	2351	2318	2318	2291	2275	2343	2271	2291	2291	2327	2282	2347	2260	2299	2278	2291	2230	2279	2278	2214	2195	2215	2207	2270	2270	2210	2199	2222	2279	2232	2230	2212	2227	2243	2207	2198	2147	2166	2199	2195	2142	2192	2122	2147	2166	2195	2170	2188	2155	2218	2179	2211	2115	2163	2104	2122	2151	2162	2114	2159	2123	2135	2126	2071	2122	2059	2150	2063	2067	2107	2122	2082	2118	2062	2058	2098	2026	2003	2003	2055	1999	2014	2003	2070	1990	2059	2007	2067	2059	1983	2043	1999	1963	2006	1963	1962	1958	1943	1939	1998	1928	1947	1986	1966	1975	1983	1942	1978	1998	1943	1954	1967	1978	1995	1974	1919	1967	1955	1898	1903	1971	1966	1988	1914	1939	1911	1951	1926	2003	2010	1967	2014	1935	1947	2015	1962	2022	1946	1982	1963	2034	1998	2055	2070	2115	2057	2103	2151	2175	2127	2151	2222	2219	2224	2294	2243	2302	2267	2354	2343	2402	2426	2391	2495	2470	2519	2554	2523	2570	2639	2627	2651	2663	2754	2707	2715	2820	2847	2867	2842	2856	2883	2943	2982	3030	3027	3086	3067	3139	3139	3171	3198	3139	3231	3192	3263	3252	3231	3287	