2394	2482	2499	2483	2434	2503	2458	2471	2527	2447	2442	2490	2483	2435	2514	2443	2446	2455	2530	2483	2515	2491	2514	2511	2520	2526	2523	2574	2543	2526	2511	2559	2583	2579	2587	2534	2530	2579	2575	2535	2531	2558	2635	2610	2559	2567	2606	2570	2586	2606	2635	2647	2623	2595	2631	2568	2590	2630	2582	2568	2599	2594	2619	2623	2630	2618	2610	2618	2594	2675	2579	2651	2630	2606	2647	2586	2603	2643	2627	2590	2627	2615	2587	2627	2622	2619	2651	2606	2598	2615	2609	2630	2586	2567	2648	2627	2591	2595	2570	2607	2643	2639	2626	2614	2586	2623	2639	2631	2635	2595	2567	2551	2590	2523	2535	2586	2542	2594	2590	2570	2550	2598	2531	2527	2555	2572	2566	2599	2511	2520	2555	2539	2518	2503	2478	2487	2491	2498	2475	2471	2470	2463	2486	2479	2519	2490	2527	2455	2467	2503	2516	2438	2423	2447	2487	2451	2406	2479	2411	2407	2426	2443	2427	2490	2426	2435	2475	2462	2403	2387	2394	2390	2449	2379	2383	2443	2363	2447	2390	2355	2427	2367	2415	2375	2379	2435	2370	2431	2411	2371	2403	2360	2326	2391	2351	2398	2374	2326	2370	2307	2378	2343	2355	2347	2343	2322	2370	2307	2355	2339	2303	2350	2302	2346	2315	2279	2294	2326	2271	2282	2291	2315	2315	2322	2267	2315	2338	2311	2326	2239	2247	2244	2242	2267	2198	2271	2252	2270	2263	2215	2258	2263	2263	2275	2199	2271	2231	2251	2205	2190	2162	2222	2242	2179	2206	2191	2163	2151	2203	2143	2163	2211	2223	2155	2159	2202	2159	2203	2171	2138	2131	2200	2186	2171	2174	2131	2179	2167	2142	2127	2139	2150	2127	2135	2139	2219	2162	2175	2179	2150	2187	2218	2215	2143	2170	2159	2235	2207	2199	2215	2231	2227	2318	2263	2319	2310	2322	2336	2334	2343	2423	2431	2382	2406	2407	2447	2531	2519	2530	2567	2558	2595	2583	2663	2683	2683	2711	2738	2735	2718	2782	2790	2815	2819	2843	2843	2891	2951	2931	2947	3007	3019	3075	3126	3098	3139	3143	3139	3138	3175	3234	3191	3246	3224	3271	3299	3259	3362	3398	3375	3355	3435	3442	3467	3423	3501	3471	3523	3495	3526	3559	3527	3535	3558	3598	3603	3591	3630	3619	3567	3646	3635	3686	3647	3655	3623	3631	3658	3687	3679	3634	3674	3650	3655	3619	3679	3671	3691	3694	3630	3627	3670	3655	3711	3639	3679	3699	3694	3631	3683	3655	3675	3643	3575	3607	3574	3563	3618	3603	3563	3551	3627	3602	3607	3531	3547	3550	3567	3518	3533	3483	3510	3502	3419	3415	3479	3459	3391	3383	3431	3398	3392	3362	3355	3370	3379	3383	3299	3367	3327	3307	3246	3282	3288	3230	3239	3182	3211	3155	3186	3143	3150	3150	3098	3099	3118	3138	3119	3086	3063	3067	3007	2982	3035	2990	2951	2943	2943	2922	2946	2906	2878	2906	2867	2894	2855	2814	2807	2795	2747	2791	2747	2719	2695	2738	2675	2670	2695	2675	2643	2691	2603	2635	2607	2628	2643	2591	2595	2528	2539	2518	2486	2478	2531	2439	2434	2486	2483	2455	2442	2482	2419	2487	2455	2414	2431	2367	2363	2366	2367	2343	2343	2315	2371	2362	2274	2291	2359	2350	2322	2303	2338	2346	2291	2304	2271	2263	2247	2259	2255	2310	2288	2234	2242	2294	2286	2233	2227	2310	2230	2306	2294	2255	2283	2286	2335	2319	2263	2298	2347	2315	2286	2266	2318	2295	2259	2266	2310	2371	2311	2366	2343	2334	2350	2331	2374	2367	2339	2362	2375	2371	2419	2383	2415	2378	2363	2383	2440	2431	2426	2439	2431	2427	2446	2486	2495	2462	2463	2510	2443	2494	2466	2490	2450	2488	2499	2451	2534	2475	2515	2555	2523	2542	2520	2523	2575	2535	2531	2528	2542	2542	2530	2599	2579	2598	2587	2599	2578	2587	2623	2571	2631	2648	2559	2606	2590	2618	2574	2611	2606	2599	2571	2614	2602	2559	2559	2562	2582	2567	2639	2643	2615	2655	2649	2643	2595	2614	2614	2623	2570	2622	2566	2570	2611	2591	2595	2626	2614	2619	2563	2635	2639	2578	2663	2600	2643	2579	2630	2595	2563	2546	2547	2575	2598	2543	2587	2554	2599	2599	2534	2607	2623	2539	2563	2547	2551	2583	2580	2594	2586	2515	2510	2510	2551	2554	2551	2499	2570	2511	2495	2530	2487	2495	2566	2523	2479	2499	2543	2494	2499	2487	2475	2459	2530	2450	2506	2515	2503	2438	2447	2443	2515	2467	2475	2455	2475	2467	2463	2427	2411	2439	2462	2395	2446	2406	2379	2439	2399	2403	2408	2471	2463	2398	2471	2406	2395	2415	2471	2439	2462	2390	2375	2447	2443	2447	2375	2399	2367	2362	2406	2371	2367	2451	2438	2362	2378	2379	2439	2359	2395	2379	2395	2391	2347	2347	2351	2403	2402	2399	2342	2327	2339	2346	2351	2347	2374	2403	2331	2387	2347	2319	2314	2371	2371	2347	2279	2295	2310	2335	2339	2282	2302	2306	2343	2338	2290	2327	2351	2299	2290	2320	2338	2282	2316	2227	2287	2231	2307	2303	2310	2306	2299	2315	2270	2299	2239	2266	2306	2238	2223	2243	2286	2267	2198	2270	2255	2218	2199	2207	2239	2235	2310	2295	2211	2278	2218	2295	2243	2246	2243	2290	2259	2215	2251	2282	2219	2266	2243	2291	2250	2299	2331	2299	2278	2306	2327	2374	2382	2314	2392	2407	2335	2423	2363	2378	2379	2406	2418	2507	2520	2515	2526	2559	2535	2590	2586	2627	2622	2650	2690	2675	2680	2746	2787	2723	2787	2775	2851	2867	2916	2894	2930	2987	2999	3023	3040	3063	3106	3110	3059	3151	3171	3163	3211	3159	3194	3199	3271	3294	3327	3315	3347	3368	3362	3415	3434	3420	3490	3459	3511	3423	3494	3522	3478	3503	3554	3510	3567	3543	3615	3576	3639	3610	3680	3690	3655	3648	3694	3695	3667	3707	3663	3682	3703	3734	3679	3731	3723	3703	3723	3683	3743	3775	3711	3759	3718	3775	3755	3739	3703	3707	3679	3730	3671	3710	3727	3667	3687	3655	3690	3683	3666	3683	3651	3711	3694	3691	3631	3659	3642	3603	3587	3567	3570	3554	3543	3603	3590	3546	3571	3590	3543	3574	3539	3506	3494	3499	3527	3455	3446	3479	3414	3414	3415	3366	3390	3350	3343	3354	3343	3335	3359	3383	3359	3330	3331	3307	3267	3308	3288	3263	3263	3243	3235	3175	3171	3202	3187	3167	3175	3111	3103	3138	3135	3067	3071	3108	3086	3035	3046	3011	2947	2974	2975	2946	2943	2958	2910	2942	2855	2906	2867	2831	2828	2899	2795	2866	2834	2743	2743	2722	2751	2699	2686	2663	2711	2699	2682	2699	2618	2682	2634	2595	2623	2590	2591	2634	2607	2555	2551	2543	2491	2486	2515	2495	2478	2519	2487	2487	2458	2474	2495	2490	2519	2442	2503	2463	2495	2471	2423	2403	2463	2431	2403	2423	2447	2391	2465	2463	2406	2443	2467	2391	2403	2487	2391	2478	2430	2470	2430	2387	2463	2384	2434	2463	2463	2402	2407	2411	2450	2458	2499	2487	2503	2423	2447	2515	2479	2466	2419	2495	2467	2511	2486	2446	2451	2454	2499	2527	2531	2523	2495	2515	2583	2535	2535	2583	2579	2527	2530	2515	2559	2583	2555	2551	2587	2591	2622	2570	2646	2559	2626	2651	2623	2668	2648	2591	2583	2591	2658	2623	2606	2651	2591	2623	2634	2675	2615	2618	2634	2634	2695	2674	2707	2716	2635	2650	2699	2690	2646	2695	2670	2682	2643	2627	2670	2678	2703	2687	2683	2727	2707	2698	2722	2710	2662	2662	2671	2658	2651	2647	2707	2643	2618	2678	2619	2631	2710	2643	2687	2638	2728	2706	2695	2687	2638	2650	2654	2623	2614	2663	2603	2627	2625	2659	2583	2590	2671	2659	2606	2611	2614	2675	2642	2603	2623	2611	2587	2623	2650	2633	2611	2573	2631	2623	2555	2614	2563	2627	2563	2575	2594	2646	2591	2635	2566	2559	2575	2582	2551	2555	2559	2598	2587	2562	2523	2526	2547	2543	2599	2599	2602	2607	2551	2527	2579	2554	2595	2531	2538	2567	2532	2526	2483	2487	2490	2503	2480	2483	2527	2539	2543	2491	2567	2535	2480	2542	2527	2523	2522	2455	2538	2483	2471	2478	2458	2451	2503	2510	2519	2474	2458	2447	2430	2442	2438	2438	2423	2407	2419	2395	2439	2474	2462	2386	2383	2391	2395	2402	2439	2427	2415	2382	2423	2471	2423	2427	2442	2422	2395	2420	2363	2333	2343	2399	2336	2362	2403	2386	2398	2323	2374	2343	2355	2395	2347	2350	2379	2331	2363	2291	2302	2323	2279	2310	2270	2271	2342	2347	2275	2303	2287	2298	2287	2259	2355	2335	2274	2291	2254	2263	2288	2255	2263	2235	2295	2270	2267	2320	2315	2283	2299	2310	2251	2251	2282	2267	2291	2251	2318	2319	2231	2276	2319	2319	2263	2271	2324	2338	2321	2311	2395	2366	2402	2419	2431	2419	2379	2394	2426	2479	2430	2458	2487	2463	2482	2571	2594	2610	2571	2618	2643	2634	2675	2675	2703	2783	2734	2759	2783	2805	2855	2835	2843	2882	2883	2947	2942	3006	3023	3070	3119	3152	3153	3131	3119	3183	3222	3239	3263	3243	3283	3258	3331	3306	3319	3335	3343	3407	3435	3483	3507	3474	3527	3486	3535	3506	3539	3591	3547	3575	3610	3592	3586	3567	3610	3603	3678	3670	3711	3710	3707	3671	3704	3747	3760	3694	3727	3730	3691	3723	3674	3743	3697	3698	3706	3775	3751	3739	3747	3723	3739	3743	3755	3695	3727	3695	3747	3711	3722	3671	3687	3695	3670	3703	3719	3643	3646	3651	3675	3619	3695	3627	3622	3603	3626	3615	3623	3583	3603	3599	3586	3502	3519	3515	3503	3491	3483	3522	3482	3527	3491	3491	3463	3451	3439	3459	3379	3395	3403	3379	3323	3342	3318	3294	3343	3315	3338	3255	3258	3279	3303	3295	3275	3283	3247	3238	3186	3159	3155	3175	3147	3099	3095	3103	3075	3027	3051	3027	3066	3015	3006	2990	2985	2943	2943	2939	2903	2954	2899	2923	2867	2839	2879	2830	2842	2807	2791	2794	2779	2754	2811	2807	2746	2779	2719	2691	2708	2678	2662	2667	2683	2599	2631	2618	2598	2574	2595	2551	2548	2587	2539	2590	2559	2495	2499	2559	2534	2531	2530	2514	2506	2486	2498	2415	2459	2474	2459	2458	2411	2427	2403	2434	2386	2442	2459	2394	2406	2383	2387	2350	2419	2379	2371	2391	2391	2350	2335	2419	2415	2359	2366	2399	2423	2415	2371	2422	2395	2351	2355	2423	2378	2351	2358	2359	2383	2367	2378	2458	2427	2427	2399	2403	2391	2412	2422	2470	2459	2435	2414	2426	2411	2439	2422	2442	2482	2435	2510	2515	2467	2506	2535	2474	2479	2475	2503	2507	2506	2490	2543	2528	2518	2483	2562	2514	2539	2551	2507	2550	2543	2571	2619	2607	2623	2618	2587	2590	2551	2579	2632	2583	2590	2550	2603	2615	2611	2590	2568	2587	2634	2594	2583	2615	2664	2638	2592	2671	2651	2583	2647	2611	2591	2582	2647	2655	2651	2575	2650	2627	2592	2610	2643	2626	2627	2631	2627	2615	2606	2583	2567	2631	2643	2630	2619	2598	2563	2638	2611	2594	2590	2603	2652	2571	2623	2611	2599	2582	2599	2550	2547	2558	2603	2535	2542	2519	2590	2571	2592	2574	2603	2563	2555	2530	2519	2547	2579	2567	2576	2555	2566	2543	2487	2531	2487	2519	2503	2499	2487	2526	2510	2506	2479	2555	2514	2474	2451	2447	2510	2510	2439	2502	2419	2435	2455	2431	2443	2487	2427	2427	2415	2474	2483	2451	2483	2411	2411	2391	2439	2383	2406	2382	2392	2403	2355	2382	2355	2350	2395	2367	2422	2423	2431	2403	2347	2351	2346	2387	2318	2334	2343	2362	2342	2378	2343	2311	2338	2339	2343	2315	2314	2363	2358	2331	2367	2283	2335	2359	2315	2274	2343	2303	2255	2292	2283	2238	2255	2255	2250	2263	2261	2286	2331	2263	2314	2254	2303	2272	2287	2284	2210	2194	2263	2231	2182	2246	2178	2179	2207	2203	2202	2183	2251	2248	2183	2226	2163	2150	2206	2172	2138	2195	2206	2135	2164	2126	2179	2183	2131	2195	2170	2151	2143	2123	2194	2130	2135	2179	2162	2182	2095	2146	2110	2175	2123	2183	2179	2143	2131	2188	2182	2147	2186	2151	2211	2171	2143	2135	2146	2159	2183	2219	2203	2243	2202	2234	2251	2270	2242	2274	2307	2315	2375	2327	2334	2403	2375	2439	2399	2443	2474	2435	2495	2531	2503	2574	2603	2622	2594	2675	2686	2695	2723	2755	2743	2742	2779	2807	2811	2883	2878	2894	2955	2955	2999	2990	3015	3003	3063	3059	3079	3123	3171	3143	3163	3227	3211	3279	3235	3246	3275	3299	3283	3326	3390	3391	3414	3367	3419	3487	3470	