2539	2579	2607	2583	2595	2595	2627	2615	2635	2607	2627	2651	2602	2599	2623	2594	2567	2587	2639	2591	2623	2602	2616	2654	2654	2666	2662	2675	2695	2679	2671	2679	2702	2643	2639	2667	2647	2659	2675	2675	2659	2675	2651	2663	2678	2731	2702	2747	2683	2742	2699	2694	2694	2671	2721	2703	2658	2674	2699	2674	2711	2662	2675	2707	2691	2699	2726	2715	2707	2728	2755	2723	2691	2711	2723	2699	2687	2695	2682	2651	2663	2683	2655	2719	2675	2715	2703	2695	2718	2703	2722	2723	2690	2702	2699	2658	2630	2666	2627	2602	2663	2655	2651	2674	2654	2642	2658	2643	2659	2699	2639	2686	2615	2635	2643	2603	2603	2599	2623	2555	2586	2615	2639	2603	2614	2643	2614	2631	2627	2619	2609	2599	2570	2571	2562	2543	2554	2590	2582	2527	2563	2575	2530	2570	2567	2534	2575	2599	2603	2590	2563	2573	2535	2558	2491	2551	2507	2459	2471	2495	2511	2503	2467	2503	2492	2494	2514	2505	2527	2483	2511	2515	2482	2482	2479	2455	2439	2451	2422	2455	2447	2475	2430	2479	2439	2443	2491	2467	2467	2495	2433	2443	2431	2427	2430	2407	2439	2383	2435	2391	2387	2434	2394	2450	2399	2459	2411	2455	2426	2419	2447	2410	2431	2423	2367	2390	2359	2414	2371	2366	2347	2363	2394	2370	2414	2394	2422	2434	2398	2410	2411	2391	2403	2394	2342	2327	2343	2326	2351	2323	2315	2324	2371	2406	2367	2410	2390	2400	2370	2397	2366	2342	2395	2323	2339	2351	2343	2334	2314	2334	2338	2314	2327	2319	2395	2391	2407	2395	2371	2354	2362	2363	2391	2323	2350	2298	2351	2318	2287	2283	2326	2294	2310	2354	2334	2371	2339	2322	2376	2351	2334	2319	2346	2339	2311	2318	2274	2278	2310	2326	2303	2303	2358	2279	2335	2323	2331	2351	2335	2302	2343	2303	2343	2342	2267	2276	2271	2255	2299	2235	2291	2278	2274	2323	2295	2287	2347	2366	2371	2310	2315	2319	2299	2295	2305	2283	2318	2270	2314	2335	2323	2294	2362	2338	2387	2407	2418	2431	2415	2414	2427	2410	2463	2447	2447	2450	2475	2463	2467	2502	2491	2542	2551	2627	2639	2655	2690	2671	2746	2707	2751	2755	2759	2747	2771	2767	2786	2838	2806	2842	2903	2899	2935	2951	2983	2999	3003	3047	3059	3054	3055	3051	3099	3070	3078	3114	3106	3118	3155	3147	3151	3179	3203	3239	3263	3223	3235	3294	3267	3298	3322	3295	3282	3286	3291	3287	3246	3271	3275	3315	3299	3307	3306	3335	3303	3343	3314	3398	3359	3390	3338	3358	3330	3367	3335	3351	3362	3319	3323	3290	3314	3307	3346	3346	3347	3359	3375	3343	3371	3315	3323	3291	3283	3315	3283	3295	3231	3270	3266	3239	3243	3238	3234	3295	3251	3227	3255	3287	3299	3244	3266	3206	3235	3242	3222	3199	3139	3158	3159	3131	3111	3121	3122	3119	3127	3147	3162	3139	3098	3100	3106	3123	3059	3066	3006	2999	2991	3018	3019	2987	2990	2995	2975	3019	2990	2982	2991	2979	3002	3002	2971	2935	2915	2947	2891	2875	2883	2887	2831	2854	2895	2855	2838	2831	2863	2879	2874	2878	2878	2827	2815	2802	2783	2795	2773	2758	2782	2742	2747	2727	2735	2726	2734	2727	2726	2715	2795	2755	2707	2766	2698	2719	2675	2671	2647	2682	2638	2642	2615	2603	2631	2598	2630	2603	2635	2615	2651	2622	2619	2590	2611	2550	2607	2578	2535	2539	2539	2555	2539	2514	2514	2555	2507	2515	2551	2555	2512	2526	2538	2527	2542	2519	2542	2511	2498	2510	2479	2498	2507	2507	2494	2515	2495	2475	2515	2547	2499	2515	2523	2486	2488	2479	2523	2527	2503	2515	2483	2479	2459	2467	2507	2498	2510	2523	2547	2510	2567	2514	2574	2559	2551	2547	2551	2542	2510	2555	2523	2543	2495	2558	2538	2535	2543	2567	2610	2615	2615	2607	2579	2591	2603	2586	2608	2579	2547	2539	2571	2543	2599	2567	2595	2575	2615	2587	2623	2643	2630	2623	2608	2622	2619	2647	2651	2647	2623	2631	2615	2599	2578	2615	2593	2626	2623	2659	2675	2626	2663	2694	2662	2694	2695	2663	2674	2627	2619	2631	2638	2630	2611	2599	2591	2643	2623	2639	2663	2687	2655	2663	2662	2655	2683	2630	2643	2607	2594	2647	2626	2559	2625	2583	2579	2606	2635	2635	2655	2654	2614	2659	2655	2651	2603	2610	2631	2611	2567	2578	2542	2575	2570	2568	2547	2598	2618	2618	2599	2587	2618	2638	2574	2575	2570	2566	2555	2587	2568	2530	2515	2510	2559	2527	2519	2503	2559	2570	2531	2550	2571	2571	2606	2534	2535	2570	2555	2538	2479	2499	2450	2506	2459	2451	2471	2503	2478	2480	2515	2526	2527	2539	2499	2515	2494	2491	2483	2466	2435	2422	2415	2446	2459	2407	2467	2459	2427	2474	2467	2475	2490	2495	2474	2430	2475	2422	2406	2403	2434	2419	2390	2416	2403	2387	2414	2422	2410	2411	2387	2391	2434	2454	2434	2387	2423	2398	2366	2419	2378	2323	2383	2367	2355	2359	2347	2374	2398	2403	2375	2355	2415	2430	2403	2355	2354	2339	2371	2318	2375	2366	2315	2331	2351	2310	2363	2334	2319	2327	2387	2343	2367	2338	2331	2351	2318	2327	2355	2327	2311	2271	2327	2295	2282	2282	2323	2311	2314	2299	2335	2339	2379	2347	2382	2330	2347	2306	2327	2346	2323	2270	2306	2259	2307	2306	2283	2330	2339	2327	2323	2347	2335	2303	2303	2360	2287	2346	2335	2323	2271	2279	2299	2298	2255	2239	2331	2306	2347	2350	2282	2298	2307	2342	2306	2322	2347	2282	2338	2295	2311	2286	2291	2250	2279	2250	2303	2283	2270	2288	2307	2323	2295	2303	2347	2331	2307	2288	2315	2255	2246	2235	2299	2287	2254	2243	2244	2246	2299	2315	2326	2311	2346	2327	2346	2335	2330	2278	2299	2302	2275	2275	2334	2266	2323	2291	2343	2371	2383	2422	2391	2383	2455	2423	2431	2475	2495	2495	2471	2467	2487	2499	2539	2535	2582	2559	2587	2663	2679	2659	2751	2731	2779	2790	2783	2842	2859	2843	2826	2875	2843	2907	2927	2946	2894	3002	2975	3002	3015	3040	3047	3099	3123	3159	3182	3170	3183	3174	3159	3155	3191	3166	3219	3231	3230	3199	3255	3246	3295	3295	3287	3327	3315	3383	3358	3318	3351	3347	3387	3331	3327	3343	3348	3343	3350	3358	3411	3359	3403	3355	3363	3399	3399	3427	3419	3430	3407	3415	3399	3383	3378	3391	3343	3351	3383	3343	3347	3399	3367	3367	3383	3379	3367	3388	3367	3358	3351	3359	3335	3303	3297	3315	3287	3295	3258	3311	3326	3303	3303	3275	3307	3303	3299	3298	3294	3262	3267	3267	3226	3223	3195	3203	3199	3183	3171	3178	3187	3171	3187	3195	3195	3159	3179	3163	3135	3139	3091	3091	3098	3099	3091	3051	3067	3015	3038	3014	3051	3034	3062	2999	3030	2995	3002	3010	3026	3023	3014	2947	2939	2971	2931	2935	2910	2931	2898	2923	2871	2915	2887	2906	2919	2914	2895	2923	2895	2902	2839	2827	2836	2799	2791	2808	2806	2775	2766	2731	2731	2814	2763	2811	2786	2743	2758	2786	2751	2727	2698	2759	2751	2699	2679	2658	2663	2679	2679	2675	2674	2662	2683	2695	2687	2663	2687	2679	2634	2606	2663	2607	2611	2598	2566	2559	2547	2559	2543	2586	2579	2542	2566	2590	2599	2583	2586	2626	2574	2602	2555	2562	2570	2543	2534	2523	2562	2515	2515	2514	2515	2559	2547	2563	2575	2567	2615	2599	2563	2590	2578	2534	2586	2551	2531	2535	2563	2546	2516	2546	2574	2554	2551	2579	2615	2579	2587	2587	2634	2571	2599	2598	2570	2607	2583	2539	2595	2575	2558	2551	2575	2603	2587	2606	2658	2631	2662	2607	2663	2675	2667	2614	2622	2651	2595	2631	2662	2627	2646	2618	2635	2639	2647	2659	2659	2706	2655	2658	2656	2676	2699	2662	2647	2639	2667	2618	2671	2619	2670	2667	2659	2687	2639	2687	2667	2667	2679	2710	2667	2687	2675	2639	2655	2627	2622	2654	2643	2647	2630	2635	2618	2678	2675	2659	2679	2679	2659	2654	2654	2675	2691	2667	2663	2663	2599	2591	2619	2582	2591	2627	2639	2611	2655	2659	2628	2675	2678	2691	2662	2615	2643	2619	2575	2583	2618	2566	2547	2595	2598	2587	2551	2555	2582	2559	2595	2594	2575	2551	2602	2559	2607	2594	2571	2535	2535	2527	2550	2515	2515	2518	2507	2543	2527	2563	2559	2523	2515	2531	2583	2543	2499	2527	2515	2466	2467	2499	2447	2503	2459	2502	2479	2499	2502	2467	2511	2490	2479	2499	2462	2447	2495	2486	2451	2443	2413	2407	2398	2406	2395	2394	2459	2440	2474	2471	2463	2427	2442	2426	2442	2431	2411	2382	2450	2403	2403	2359	2394	2395	2370	2366	2383	2383	2427	2376	2375	2390	2394	2418	2399	2418	2366	2363	2363	2387	2387	2359	2322	2323	2326	2330	2311	2359	2383	2354	2371	2343	2379	2422	2363	2383	2375	2359	2335	2374	2323	2315	2338	2323	2283	2347	2294	2355	2343	2383	2330	2335	2378	2371	2370	2347	2314	2311	2339	2290	2283	2279	2279	2263	2306	2258	2291	2318	2295	2334	2332	2358	2351	2359	2308	2302	2338	2326	2315	2268	2283	2283	2279	2319	2311	2270	2262	2291	2275	2323	2354	2339	2355	2338	2315	2350	2287	2282	2323	2259	2258	2247	2251	2279	2262	2266	2239	2266	2290	2303	2343	2363	2335	2334	2311	2327	2274	2322	2322	2307	2286	2303	2303	2243	2282	2251	2275	2286	2315	2315	2318	2327	2331	2319	2286	2298	2298	2290	2295	2243	2246	2246	2291	2235	2290	2275	2279	2274	2274	2287	2291	2331	2343	2295	2271	2287	2283	2243	2306	2307	2239	2297	2282	2291	2278	2255	2267	2286	2311	2298	2327	2382	2354	2334	2338	2371	2367	2383	2354	2387	2375	2359	2411	2382	2416	2442	2463	2499	2503	2506	2543	2603	2599	2591	2606	2639	2651	2706	2642	2699	2667	2739	2743	2775	2751	2795	2811	2827	2886	2887	2966	2930	2984	2999	2983	3050	3031	3015	3043	3055	3054	3059	3079	3114	3111	3130	3175	3179	3199	3219	3239	3271	3243	3319	3290	3306	3279	3287	3311	3287	3279	3306	3274	3311	3323	3351	3355	3366	3366	3415	3398	3383	3411	3427	3383	3394	3382	3375	3375	3379	3339	3367	3410	3399	3391	3358	3399	3374	3411	3387	3395	3387	3387	3446	3395	3386	3430	3355	3367	3363	3311	3343	3351	3359	3327	3311	3318	3344	3358	3387	3319	3314	3355	3335	3314	3295	3307	3274	3247	3274	3255	3239	3263	3254	3251	3231	3227	3242	3231	3231	3219	3222	3219	3227	3203	3183	3203	3126	3127	3126	3092	3086	3111	3098	3075	3094	3099	3050	3090	3079	3103	3063	3091	3111	3070	3027	3031	3015	2999	2955	2955	2975	2963	2907	2976	2920	2947	2971	2931	2967	2923	2971	2963	2951	2890	2879	2895	2863	2863	2814	2835	2803	2839	2826	2803	2795	2807	2786	2779	2811	2831	2807	2782	2807	2795	2779	2758	2723	2711	2762	2702	2679	2714	2694	2726	2706	2667	2667	2667	2723	2691	2719	2719	2703	2702	2667	2679	2635	2619	2647	2592	2606	2619	2595	2587	2578	2631	2598	2622	2619	2599	2606	2574	2627	2587	2607	2606	2567	2583	2519	2566	2515	2554	2571	2533	2563	2563	2546	2563	2567	2583	2571	2567	2606	2562	2571	2550	2535	2555	2531	2563	2506	2570	2547	2563	2531	2566	2588	2598	2559	2555	2582	2586	2602	2591	2579	2583	2590	2551	2575	2559	2551	2559	2578	2551	2594	2595	2566	2623	2631	2610	2627	2623	2623	2666	2635	2599	2607	2606	2639	2651	2607	2591	2618	2598	2603	2602	2630	2687	2695	2691	2710	2646	2687	2711	2666	2687	2646	2670	2635	2627	2651	2647	2658	2651	2674	2691	2639	2687	2687	2719	2727	2679	2674	2707	2671	2695	2684	2643	2694	2666	2639	2651	2682	2627	2650	2651	2671	2694	2718	2670	2671	2686	2698	2686	2691	2643	2690	2627	2627	2663	2618	2634	2651	2655	2656	2642	2682	2647	2650	2634	2643	2647	2638	2635	2615	2663	2607	2639	2651	2578	2638	2606	2587	2611	2582	2602	2622	2647	2595	2606	2658	2634	2619	2646	2606	2623	2599	2595	2539	2518	2531	2567	2551	2559	2567	2547	2555	2563	2547	2599	2571	2543	2579	2538	2583	2547	2522	2530	2479	2523	2483	2483	2510	2534	2478	2535	2527	2527	2551	2539	2523	2526	2527	2543	2538	2459	2467	2475	2455	2426	2479	2470	2407	2487	2426	2467	2468	2475	2522	2514	2486	2479	2447	2495	2475	2415	2414	2411	2435	2395	2430	2398	2382	2422	2391	