2339	2367	2386	2378	2411	2407	2411	2406	2451	2411	2443	2458	2507	2546	2562	2554	2619	2602	2643	2695	2727	2726	2723	2743	2790	2759	2791	2810	2838	2830	2879	2870	2863	2915	2954	2955	2991	3015	3030	3039	3083	3094	3120	3111	3123	3147	3130	3119	3151	3111	3154	3175	3162	3174	3191	3227	3255	3295	3319	3274	3302	3338	3343	3311	3331	3343	3295	3339	3271	3311	3307	3299	3335	3336	3326	3339	3347	3403	3411	3402	3422	3383	3382	3370	3387	3383	3354	3359	3339	3334	3331	3334	3331	3335	3374	3359	3387	3383	3367	3363	3370	3374	3351	3331	3363	3342	3335	3327	3299	3267	3271	3267	3283	3247	3258	3279	3263	3310	3246	3271	3295	3282	3223	3264	3239	3267	3183	3207	3195	3146	3166	3199	3139	3138	3171	3167	3139	3146	3163	3187	3166	3147	3135	3131	3095	3086	3090	3070	3023	3022	3026	3003	3002	3051	3010	2991	2987	3035	3062	3031	3019	3002	3003	3010	2994	2951	2931	2903	2927	2920	2942	2915	2902	2891	2910	2871	2931	2891	2951	2895	2886	2902	2866	2875	2907	2838	2855	2848	2823	2795	2830	2778	2811	2830	2807	2851	2802	2794	2843	2858	2831	2835	2787	2831	2774	2780	2755	2779	2718	2728	2711	2747	2718	2686	2734	2746	2718	2718	2763	2763	2743	2695	2710	2683	2727	2682	2674	2659	2670	2654	2675	2615	2615	2651	2671	2691	2675	2647	2638	2690	2683	2659	2618	2643	2603	2642	2610	2591	2594	2619	2571	2567	2598	2626	2635	2582	2599	2614	2639	2614	2599	2635	2610	2603	2647	2602	2574	2595	2619	2591	2582	2559	2619	2583	2623	2599	2607	2659	2611	2694	2619	2623	2619	2626	2675	2657	2627	2615	2623	2615	2607	2647	2603	2603	2639	2614	2654	2639	2655	2646	2707	2655	2679	2707	2626	2671	2675	2635	2626	2602	2650	2667	2622	2667	2675	2643	2659	2651	2711	2690	2675	2675	2699	2658	2683	2687	2659	2646	2679	2666	2627	2627	2650	2627	2659	2686	2695	2683	2659	2723	2678	2686	2722	2671	2655	2651	2651	2695	2626	2687	2635	2619	2630	2643	2671	2686	2674	2670	2680	2707	2658	2714	2679	2674	2691	2651	2662	2635	2631	2594	2639	2603	2599	2611	2618	2614	2623	2670	2675	2674	2687	2615	2646	2658	2601	2627	2606	2615	2611	2570	2563	2611	2603	2582	2627	2596	2567	2647	2591	2639	2646	2643	2603	2607	2595	2607	2546	2518	2519	2558	2519	2550	2534	2546	2523	2531	2570	2562	2551	2538	2531	2527	2518	2575	2552	2487	2502	2538	2459	2503	2503	2491	2491	2499	2459	2535	2475	2498	2471	2502	2550	2495	2503	2467	2495	2422	2450	2479	2403	2422	2435	2416	2398	2398	2419	2458	2455	2471	2446	2451	2491	2442	2448	2423	2435	2407	2426	2427	2374	2406	2394	2367	2354	2363	2434	2422	2375	2386	2391	2447	2410	2455	2427	2398	2399	2383	2366	2383	2327	2323	2339	2363	2335	2347	2338	2390	2363	2351	2383	2374	2395	2391	2343	2331	2371	2366	2359	2296	2286	2287	2299	2331	2298	2296	2362	2366	2326	2327	2331	2375	2380	2326	2375	2371	2315	2331	2319	2331	2299	2278	2294	2270	2331	2286	2291	2294	2335	2334	2318	2354	2351	2339	2327	2311	2351	2291	2267	2299	2295	2270	2263	2295	2291	2306	2338	2346	2323	2303	2307	2326	2343	2351	2311	2314	2291	2318	2258	2275	2286	2275	2286	2303	2278	2259	2258	2291	2303	2291	2295	2347	2302	2347	2299	2335	2311	2299	2303	2250	2279	2278	2258	2275	2251	2302	2287	2311	2307	2351	2310	2287	2339	2346	2290	2343	2291	2286	2291	2262	2287	2255	2274	2235	2258	2279	2267	2288	2319	2295	2331	2299	2307	2319	2342	2315	2311	2247	2283	2306	2282	2295	2295	2259	2290	2250	2283	2319	2335	2291	2320	2314	2331	2295	2327	2282	2256	2303	2262	2310	2230	2239	2234	2239	2295	2254	2259	2259	2323	2291	2327	2354	2334	2266	2291	2318	2315	2279	2251	2275	2254	2266	2259	2255	2259	2278	2290	2255	2287	2295	2318	2319	2311	2315	2275	2258	2287	2266	2263	2227	2251	2239	2226	2255	2271	2251	2279	2310	2299	2323	2279	2335	2314	2287	2282	2283	2271	2299	2267	2263	2262	2235	2227	2279	2246	2274	2255	2255	2258	2275	2279	2350	2307	2287	2295	2283	2247	2235	2238	2246	2251	2270	2207	2223	2238	2230	2275	2238	2263	2267	2306	2286	2318	2303	2254	2239	2299	2270	2263	2263	2215	2254	2214	2258	2214	2255	2250	2251	2247	2299	2307	2298	2275	2270	2315	2299	2280	2239	2235	2247	2206	2239	2243	2215	2254	2215	2266	2267	2267	2243	2251	2267	2255	2303	2278	2255	2283	2199	2211	2230	2239	2207	2226	2239	2250	2207	2242	2236	2247	2234	2295	2238	2242	2311	2243	2234	2275	2211	2239	2227	2239	2227	2243	2299	2239	2302	2307	2323	2326	2331	2363	2363	2427	2378	2422	2418	2431	2405	2426	2490	2462	2487	2478	2503	2547	2554	2606	2627	2663	2658	2706	2707	2751	2787	2790	2754	2771	2799	2786	2847	2807	2887	2918	2851	2922	2927	2923	3007	2982	3034	3030	3067	3039	3106	3079	3087	3079	3127	3131	3106	3142	3135	3131	3154	3174	3191	3219	3219	3231	3263	3271	3283	3290	3314	3311	3306	3307	3311	3271	3291	3275	3283	3319	3319	3334	3319	3307	3335	3347	3334	3394	3398	3363	3359	3399	3343	3359	3366	3379	3315	3331	3295	3299	3351	3355	3331	3311	3322	3331	3343	3343	3378	3344	3339	3343	3319	3323	3267	3294	3263	3263	3275	3207	3231	3267	3246	3219	3247	3234	3231	3247	3251	3223	3267	3199	3207	3175	3183	3186	3155	3119	3146	3131	3111	3095	3118	3138	3099	3111	3162	3099	3099	3114	3087	3123	3095	3083	3062	3031	3023	3031	2955	2968	3015	3002	2962	3015	2963	2966	2983	2971	2975	3002	2951	2930	2939	2907	2915	2927	2874	2870	2863	2875	2871	2867	2895	2867	2855	2883	2887	2899	2862	2883	2871	2807	2807	2847	2795	2754	2786	2771	2766	2758	2775	2731	2758	2778	2727	2754	2759	2774	2783	2778	2799	2703	2747	2722	2727	2675	2687	2694	2679	2647	2639	2679	2663	2678	2659	2691	2647	2671	2698	2672	2691	2626	2618	2587	2590	2586	2630	2587	2554	2599	2543	2574	2610	2579	2575	2594	2614	2639	2619	2618	2619	2563	2566	2559	2571	2542	2527	2519	2551	2523	2527	2562	2552	2594	2539	2555	2571	2571	2610	2563	2583	2547	2543	2595	2547	2546	2534	2499	2522	2567	2519	2567	2554	2583	2599	2559	2575	2579	2618	2610	2603	2639	2575	2606	2591	2595	2575	2595	2539	2562	2563	2559	2578	2639	2607	2603	2666	2662	2667	2643	2658	2642	2647	2595	2639	2591	2614	2607	2602	2615	2583	2591	2614	2643	2615	2643	2691	2655	2663	2699	2651	2690	2639	2643	2599	2651	2615	2635	2619	2590	2643	2635	2659	2631	2639	2679	2667	2699	2714	2679	2679	2639	2666	2659	2663	2642	2631	2595	2611	2623	2642	2666	2650	2639	2675	2694	2711	2646	2643	2671	2646	2686	2619	2611	2639	2598	2598	2627	2615	2619	2631	2631	2619	2595	2638	2639	2611	2623	2647	2618	2631	2651	2654	2598	2603	2603	2602	2607	2583	2571	2571	2579	2562	2579	2611	2575	2606	2591	2614	2614	2595	2583	2586	2538	2535	2538	2558	2523	2495	2531	2506	2487	2535	2576	2571	2570	2563	2583	2554	2555	2518	2531	2531	2538	2519	2515	2482	2447	2499	2478	2447	2487	2502	2491	2479	2483	2522	2522	2518	2471	2506	2463	2481	2435	2466	2411	2406	2407	2439	2446	2403	2427	2407	2447	2474	2415	2478	2446	2462	2479	2458	2418	2423	2431	2383	2378	2390	2390	2351	2363	2363	2371	2366	2355	2423	2383	2423	2403	2435	2415	2375	2382	2379	2395	2354	2386	2323	2366	2283	2358	2315	2335	2327	2374	2350	2339	2335	2375	2378	2387	2342	2371	2327	2356	2314	2343	2298	2310	2266	2315	2275	2272	2333	2314	2302	2327	2334	2387	2315	2343	2359	2342	2331	2323	2286	2302	2299	2270	2247	2267	2262	2315	2254	2266	2335	2323	2302	2283	2290	2267	2307	2298	2290	2286	2255	2295	2238	2267	2227	2286	2274	2267	2256	2298	2302	2287	2318	2295	2302	2275	2319	2283	2243	2318	2291	2275	2219	2214	2238	2267	2291	2291	2291	2284	2311	2287	2279	2283	2298	2319	2300	2306	2295	2230	2267	2223	2222	2247	2266	2279	2214	2211	2270	2239	2295	2311	2291	2255	2259	2306	2326	2279	2322	2279	2222	2231	2238	2262	2230	2218	2247	2215	2251	2239	2315	2267	2339	2262	2254	2302	2287	2251	2243	2275	2275	2263	2242	2255	2282	2239	2266	2283	2263	2275	2295	2247	2303	2266	2326	2287	2315	2263	2291	2271	2271	2235	2263	2278	2263	2243	2239	2278	2243	2292	2275	2287	2315	2334	2271	2307	2310	2310	2271	2263	2262	2223	2222	2270	2247	2277	2279	2267	2310	2318	2279	2278	2270	2319	2342	2287	2311	2338	2299	2298	2287	2251	2242	2250	2235	2280	2235	2286	2275	2283	2259	2263	2287	2347	2342	2295	2300	2250	2302	2315	2259	2286	2242	2219	2232	2238	2255	2271	2255	2263	2259	2271	2327	2295	2286	2279	2274	2319	2322	2275	2278	2291	2279	2238	2238	2215	2243	2278	2263	2267	2327	2319	2314	2291	2339	2300	2275	2323	2307	2291	2282	2271	2230	2230	2259	2230	2270	2242	2262	2307	2295	2322	2279	2266	2311	2298	2262	2270	2275	2294	2214	2275	2254	2254	2238	2230	2263	2282	2251	2271	2303	2303	2346	2306	2318	2354	2331	2314	2310	2310	2310	2342	2302	2334	2370	2375	2398	2367	2391	2431	2438	2471	2514	2527	2570	2511	2526	2539	2547	2587	2606	2575	2634	2646	2675	2675	2723	2739	2726	2815	2795	2859	2866	2900	2906	2890	2915	2963	2974	2983	2955	2971	2975	2994	3003	3031	3079	3080	3114	3095	3179	3182	3186	3227	3226	3219	3247	3250	3227	3254	3255	3235	3267	3287	3278	3259	3303	3302	3319	3367	3383	3387	3411	3391	3402	3419	3423	3382	3374	3399	3374	3367	3386	3367	3411	3411	3402	3415	3406	3442	3415	3439	3475	3443	3450	3462	3450	3426	3411	3403	3419	3424	3403	3422	3415	3355	3403	3371	3379	3403	3395	3415	3403	3415	3406	3434	3414	3395	3394	3367	3347	3310	3342	3287	3312	3278	3278	3291	3303	3331	3310	3291	3303	3275	3290	3290	3254	3286	3243	3263	3190	3207	3187	3174	3215	3175	3203	3147	3203	3187	3178	3179	3203	3195	3186	3151	3126	3166	3135	3107	3083	3079	3082	3027	3030	3062	3071	3067	3036	3054	3043	3051	3067	3018	3046	3034	3003	3011	2991	2979	2967	2936	2943	2895	2939	2911	2958	2895	2923	2907	2939	2934	2967	2903	2906	2927	2930	2886	2903	2835	2867	2866	2818	2798	2843	2835	2815	2826	2814	2827	2839	2811	2875	2810	2803	2862	2831	2815	2771	2778	2730	2727	2754	2751	2719	2758	2751	2747	2726	2754	2743	2763	2778	2775	2735	2771	2734	2722	2707	2663	2664	2706	2647	2659	2626	2666	2635	2650	2651	2719	2666	2682	2686	2694	2687	2663	2686	2686	2651	2634	2591	2606	2622	2598	2576	2622	2623	2651	2618	2683	2622	2627	2639	2675	2698	2630	2663	2618	2642	2642	2578	2627	2607	2627	2594	2591	2590	2619	2643	2650	2654	2659	2634	2662	2643	2638	2642	2638	2611	2603	2643	2651	2650	2603	2615	2646	2631	2683	2643	2686	2706	2671	2667	2683	2706	2683	2699	2671	2650	2643	2642	2667	2635	2675	2634	2664	2639	2676	2675	2711	2702	2719	2714	2723	2719	2690	2683	2663	2651	2639	2702	2671	2670	2659	2670	2687	2658	2670	2695	2667	2694	2731	2743	2718	2734	2702	2711	2719	2683	2687	2678	2654	2639	2658	2690	2631	2626	2634	2702	2686	2659	2690	2718	2710	2682	2675	2662	2702	2647	2675	2618	2662	2626	2611	2631	2638	2651	2631	2639	2675	2694	2663	2663	2695	2643	2682	2639	2655	2614	2662	2591	2627	2595	2571	2583	2590	2574	2575	2626	2631	2619	2606	2594	2651	2599	2590	2598	2606	2595	2550	2559	2559	2562	2590	2523	2522	2544	2535	2595	2550	2555	2551	2607	2549	2566	2539	2567	2523	2550	2507	2527	2518	2503	2506	2526	2507	2519	2498	2487	2515	2535	2514	2514	2535	2502	2531	2526	2534	2459	2483	2502	2423	2447	2430	2446	2467	2479	2427	2443	2438	2499	2467	2475	2495	2459	2490	2439	2427	2427	2427	2382	2415	2411	2427	2382	2376	2407	2410	2419	2407	2455	2403	2427	2427	2399	