2318	2266	2283	2322	2255	2303	2278	2295	2259	2294	2258	2287	2275	2323	2295	2315	2306	2290	2306	2335	2283	2274	2258	2255	2235	2294	2291	2302	2259	2251	2278	2303	2311	2290	2327	2280	2294	2323	2325	2291	2291	2303	2299	2279	2267	2314	2255	2299	2267	2259	2318	2307	2274	2314	2342	2331	2326	2282	2310	2287	2298	2315	2275	2278	2263	2266	2259	2234	2250	2294	2287	2288	2302	2310	2307	2318	2291	2302	2287	2302	2278	2311	2267	2287	2271	2278	2286	2255	2283	2295	2262	2275	2263	2308	2295	2323	2347	2327	2335	2327	2311	2323	2295	2302	2254	2263	2303	2283	2266	2262	2274	2283	2338	2271	2343	2299	2315	2311	2323	2347	2295	2323	2267	2306	2259	2267	2290	2311	2299	2307	2278	2299	2338	2355	2347	2330	2334	2383	2367	2371	2338	2354	2379	2322	2371	2387	2391	2398	2395	2374	2466	2422	2443	2479	2539	2527	2535	2590	2559	2587	2627	2603	2599	2611	2642	2703	2691	2687	2711	2771	2795	2835	2858	2862	2891	2911	2963	2978	2958	3015	2979	3006	3019	3007	3051	3019	3090	3107	3094	3094	3163	3175	3210	3223	3239	3255	3255	3303	3303	3275	3303	3323	3287	3299	3303	3326	3327	3351	3359	3375	3350	3387	3415	3407	3403	3415	3415	3439	3407	3451	3391	3414	3419	3423	3422	3418	3398	3394	3411	3443	3418	3422	3460	3482	3478	3483	3454	3451	3471	3431	3431	3443	3450	3423	3425	3407	3395	3420	3382	3427	3435	3399	3403	3402	3399	3411	3383	3399	3403	3343	3370	3371	3311	3299	3295	3310	3307	3295	3307	3283	3314	3291	3267	3255	3271	3286	3262	3263	3287	3266	3238	3210	3216	3159	3199	3170	3151	3151	3115	3183	3167	3147	3134	3159	3159	3143	3143	3098	3095	3142	3075	3083	3043	3019	3034	3022	2991	3027	2986	2983	3014	3011	2983	3022	3002	2995	2978	2966	2947	2963	2951	2907	2935	2907	2855	2862	2870	2903	2858	2863	2878	2899	2854	2862	2867	2875	2855	2887	2834	2806	2815	2826	2823	2763	2738	2767	2774	2743	2750	2750	2739	2726	2734	2770	2780	2755	2759	2719	2722	2735	2715	2675	2699	2703	2678	2659	2630	2675	2630	2698	2635	2619	2686	2635	2654	2663	2656	2666	2651	2647	2606	2622	2611	2584	2590	2586	2595	2550	2599	2599	2575	2606	2603	2615	2623	2607	2630	2582	2607	2571	2602	2591	2591	2551	2587	2543	2546	2535	2558	2578	2606	2607	2590	2583	2626	2610	2643	2619	2599	2627	2623	2579	2598	2615	2590	2584	2579	2575	2587	2575	2636	2626	2619	2646	2674	2623	2667	2664	2651	2647	2631	2603	2643	2635	2610	2619	2631	2611	2641	2643	2614	2671	2662	2702	2703	2698	2720	2690	2691	2691	2671	2646	2675	2627	2626	2658	2671	2658	2695	2659	2678	2670	2667	2710	2711	2739	2695	2742	2714	2722	2682	2659	2703	2683	2695	2651	2703	2707	2671	2714	2667	2704	2759	2703	2707	2731	2699	2695	2715	2718	2682	2704	2663	2631	2679	2687	2643	2659	2687	2663	2711	2666	2659	2722	2706	2703	2687	2658	2703	2671	2683	2699	2635	2594	2631	2639	2643	2643	2607	2623	2658	2667	2667	2666	2638	2659	2695	2627	2682	2611	2619	2590	2571	2595	2594	2615	2550	2562	2587	2567	2579	2606	2582	2599	2566	2606	2619	2595	2590	2587	2578	2552	2574	2519	2551	2515	2531	2550	2555	2514	2550	2583	2551	2555	2531	2555	2531	2527	2559	2531	2495	2483	2491	2499	2467	2510	2475	2454	2491	2455	2478	2511	2498	2487	2482	2507	2503	2459	2499	2467	2471	2463	2435	2402	2475	2451	2446	2415	2395	2411	2422	2463	2450	2443	2467	2443	2423	2458	2415	2422	2443	2415	2410	2415	2374	2395	2402	2386	2375	2395	2410	2422	2435	2406	2379	2438	2427	2410	2404	2411	2363	2343	2383	2374	2367	2363	2310	2319	2363	2359	2394	2334	2403	2355	2367	2383	2343	2394	2374	2383	2378	2378	2291	2338	2339	2346	2319	2311	2338	2311	2314	2358	2371	2366	2362	2370	2327	2379	2343	2346	2306	2295	2287	2306	2303	2290	2334	2342	2303	2319	2338	2327	2343	2350	2343	2387	2330	2355	2359	2319	2331	2306	2279	2315	2302	2315	2284	2302	2314	2295	2295	2279	2356	2342	2311	2327	2354	2335	2303	2319	2306	2303	2303	2287	2311	2279	2274	2267	2279	2326	2314	2339	2342	2350	2377	2331	2316	2330	2351	2367	2335	2287	2273	2282	2295	2275	2290	2275	2327	2315	2306	2299	2327	2322	2303	2322	2354	2343	2364	2331	2310	2303	2322	2299	2259	2287	2319	2326	2314	2287	2279	2367	2319	2326	2354	2346	2359	2322	2315	2307	2304	2318	2306	2327	2327	2282	2290	2286	2266	2278	2294	2307	2323	2334	2339	2355	2346	2379	2370	2298	2331	2323	2323	2302	2307	2334	2283	2299	2303	2307	2302	2327	2343	2330	2339	2339	2363	2323	2319	2310	2291	2278	2339	2302	2302	2286	2311	2306	2330	2319	2312	2342	2359	2367	2343	2390	2383	2379	2355	2399	2358	2379	2374	2386	2391	2371	2395	2419	2447	2451	2495	2471	2502	2523	2543	2574	2574	2638	2600	2611	2651	2650	2658	2712	2715	2751	2738	2779	2782	2799	2826	2887	2890	2939	2955	2986	3011	2970	3015	3034	3019	3007	3083	3062	3075	3083	3126	3115	3163	3150	3187	3223	3215	3230	3275	3266	3294	3303	3320	3326	3303	3327	3312	3322	3295	3318	3323	3359	3358	3363	3379	3407	3435	3419	3431	3431	3418	3407	3442	3411	3430	3443	3415	3410	3424	3435	3411	3443	3427	3423	3427	3427	3454	3459	3447	3443	3467	3454	3419	3463	3399	3403	3367	3383	3351	3351	3367	3395	3359	3351	3378	3354	3419	3387	3387	3378	3355	3347	3339	3347	3315	3283	3299	3255	3276	3304	3222	3258	3267	3274	3263	3271	3255	3247	3283	3283	3262	3219	3230	3187	3198	3167	3192	3147	3158	3131	3087	3086	3103	3110	3118	3110	3091	3079	3106	3119	3087	3079	3087	3035	3035	3031	3015	2990	3007	2954	2999	3003	2947	2963	3002	2939	2959	2951	2986	2966	2951	2911	2922	2894	2883	2898	2889	2831	2883	2819	2867	2854	2871	2863	2847	2871	2851	2858	2819	2839	2827	2827	2806	2843	2806	2807	2755	2751	2723	2759	2723	2742	2734	2739	2755	2747	2778	2739	2762	2743	2719	2715	2731	2730	2675	2651	2659	2627	2614	2626	2658	2642	2651	2655	2606	2671	2647	2651	2659	2646	2671	2678	2623	2607	2594	2607	2590	2572	2615	2555	2578	2578	2571	2595	2615	2574	2635	2626	2615	2614	2631	2586	2586	2619	2559	2615	2531	2575	2599	2583	2609	2571	2599	2587	2610	2574	2614	2614	2610	2618	2651	2630	2606	2575	2603	2575	2575	2604	2582	2602	2607	2619	2595	2631	2618	2630	2646	2639	2678	2667	2690	2646	2643	2635	2638	2663	2623	2619	2603	2619	2620	2659	2642	2623	2659	2643	2666	2707	2683	2700	2674	2672	2670	2674	2699	2687	2659	2643	2678	2643	2686	2651	2667	2679	2675	2707	2723	2694	2731	2746	2726	2691	2718	2707	2672	2658	2711	2651	2663	2707	2650	2686	2694	2691	2719	2698	2715	2727	2703	2719	2711	2687	2718	2742	2662	2707	2683	2659	2667	2647	2682	2663	2639	2686	2682	2687	2683	2683	2700	2690	2710	2678	2662	2651	2647	2643	2623	2606	2614	2598	2635	2598	2618	2606	2622	2627	2659	2622	2650	2658	2623	2615	2646	2618	2614	2615	2583	2594	2555	2559	2591	2543	2586	2566	2578	2615	2607	2583	2571	2595	2566	2598	2583	2546	2559	2510	2531	2491	2506	2498	2527	2494	2519	2531	2511	2578	2527	2536	2558	2559	2523	2539	2474	2479	2491	2463	2450	2451	2487	2474	2471	2443	2459	2451	2455	2491	2498	2482	2462	2511	2458	2487	2446	2431	2454	2435	2411	2387	2394	2387	2406	2395	2399	2395	2459	2435	2423	2463	2419	2471	2423	2427	2446	2402	2410	2407	2363	2390	2346	2402	2359	2347	2367	2410	2391	2407	2410	2431	2430	2399	2386	2362	2424	2346	2355	2338	2351	2319	2331	2319	2343	2323	2375	2355	2354	2350	2403	2372	2383	2379	2371	2390	2371	2355	2306	2350	2346	2275	2294	2335	2287	2290	2323	2307	2311	2347	2354	2382	2355	2347	2359	2347	2314	2331	2295	2331	2279	2267	2303	2271	2294	2287	2331	2322	2334	2346	2294	2335	2343	2361	2347	2318	2351	2306	2302	2315	2315	2299	2251	2274	2303	2275	2290	2294	2335	2347	2371	2363	2311	2335	2327	2338	2318	2355	2323	2287	2288	2262	2316	2251	2266	2311	2295	2307	2327	2320	2355	2350	2311	2346	2370	2311	2290	2303	2291	2315	2295	2255	2319	2331	2323	2315	2310	2287	2348	2335	2358	2326	2327	2358	2339	2330	2331	2323	2303	2299	2292	2303	2262	2283	2310	2262	2286	2310	2334	2327	2363	2322	2335	2323	2343	2351	2306	2343	2322	2323	2315	2319	2287	2266	2327	2311	2315	2310	2291	2319	2338	2320	2315	2334	2323	2303	2319	2354	2286	2290	2302	2280	2275	2318	2275	2310	2303	2335	2319	2347	2306	2358	2334	2326	2291	2323	2306	2315	2294	2303	2275	2283	2310	2291	2275	2278	2267	2311	2346	2339	2351	2350	2296	2334	2327	2362	2306	2287	2338	2327	2323	2246	2313	2270	2302	2292	2306	2335	2307	2334	2351	2346	2346	2315	2323	2327	2382	2315	2318	2323	2335	2331	2378	2367	2407	2374	2387	2411	2451	2491	2542	2511	2559	2530	2579	2582	2583	2638	2587	2622	2643	2627	2690	2682	2743	2759	2771	2771	2795	2851	2843	2894	2915	2959	2931	2946	2991	2979	3015	3030	3023	3006	3019	3047	3110	3082	3111	3115	3135	3187	3218	3198	3223	3243	3251	3243	3250	3288	3291	3287	3259	3275	3314	3331	3291	3339	3327	3343	3363	3371	3375	3386	3375	3387	3423	3374	3414	3398	3382	3383	3375	3358	3363	3415	3367	3391	3375	3415	3423	3411	3435	3447	3423	3423	3423	3382	3370	3415	3403	3386	3367	3339	3350	3339	3355	3347	3327	3355	3339	3362	3375	3368	3323	3346	3319	3367	3298	3286	3263	3299	3256	3246	3231	3255	3239	3263	3203	3215	3246	3235	3238	3215	3251	3247	3215	3239	3186	3159	3146	3131	3139	3087	3130	3095	3142	3094	3071	3107	3095	3070	3078	3071	3063	3106	3066	3023	3010	3030	3007	3018	3014	2994	2978	2979	2982	2974	2939	2983	2983	2963	2950	2947	2943	2971	2935	2928	2871	2907	2879	2870	2882	2831	2867	2815	2823	2822	2823	2831	2837	2838	2862	2811	2794	2794	2839	2807	2803	2743	2787	2728	2739	2742	2747	2698	2742	2738	2735	2727	2718	2711	2736	2722	2698	2731	2683	2727	2674	2703	2666	2694	2651	2618	2603	2607	2639	2647	2646	2611	2632	2623	2662	2651	2650	2611	2666	2602	2627	2647	2578	2571	2555	2578	2535	2582	2595	2564	2562	2611	2619	2639	2610	2603	2611	2626	2615	2571	2595	2623	2603	2547	2547	2542	2535	2590	2571	2542	2599	2587	2574	2642	2591	2639	2627	2603	2642	2615	2603	2587	2579	2603	2607	2610	2595	2619	2610	2607	2590	2614	2646	2655	2671	2670	2642	2643	2638	2663	2638	2651	2618	2655	2619	2615	2623	2646	2643	2635	2694	2675	2718	2691	2687	2686	2671	2722	2679	2703	2682	2666	2703	2651	2658	2647	2686	2698	2679	2655	2679	2707	2700	2735	2719	2727	2727	2735	2718	2712	2719	2702	2683	2731	2671	2723	2651	2698	2723	2703	2710	2727	2738	2778	2747	2743	2707	2754	2746	2706	2742	2727	2734	2675	2667	2687	2659	2695	2691	2698	2707	2719	2671	2731	2691	2722	2715	2687	2718	2679	2698	2687	2631	2686	2638	2683	2626	2630	2643	2666	2624	2675	2666	2667	2635	2647	2699	2691	2662	2651	2647	2611	2631	2583	2583	2590	2555	2603	2618	2639	2611	2622	2631	2630	2614	2607	2595	2607	2575	2566	2600	2555	2566	2522	2521	2538	2511	2515	2531	2531	2519	2507	2591	2534	2571	2543	2559	2570	2523	2519	2507	2503	2491	2491	2487	2503	2491	2499	2466	2503	2499	2531	2490	2491	2542	2499	2507	2534	2475	2459	2474	2459	2438	2419	2431	2411	2438	2435	2435	2435	2434	2463	2435	2453	2419	2471	2446	2482	2422	2470	2447	2419	2455	2439	2410	2391	2370	2383	2407	2390	2403	2399	2415	2435	2454	2459	2423	2398	2427	2386	2359	2379	2342	2351	2367	2387	2339	2326	2343	2339	2395	2366	2403	2398	2391	2390	2371	2403	2347	2363	2374	2351	2338	2355	2339	2334	2351	2320	2350	2375	2334	2379	2354	2335	2338	2367	2407	2379	2362	2391	2350	2311	