2451	2446	2523	2451	2470	2439	2407	2355	2398	2382	2458	2346	2470	2378	2387	2406	2391	2483	2394	2391	2366	2375	2430	2355	2415	2359	2343	2391	2295	2334	2351	2347	2359	2407	2402	2386	2339	2403	2348	2391	2339	2379	2391	2351	2298	2291	2291	2335	2380	2354	2342	2304	2291	2363	2406	2423	2427	2434	2331	2390	2314	2382	2363	2294	2371	2266	2315	2338	2263	2247	2259	2287	2283	2375	2326	2343	2399	2338	2319	2415	2394	2338	2295	2363	2331	2303	2250	2247	2238	2240	2322	2339	2295	2318	2295	2370	2326	2351	2363	2322	2295	2323	2263	2322	2254	2287	2242	2194	2299	2235	2199	2231	2295	2230	2271	2227	2311	2290	2247	2323	2303	2275	2219	2198	2243	2231	2202	2157	2131	2107	2215	2194	2131	2191	2175	2166	2255	2195	2183	2150	2234	2211	2150	2095	2151	2083	2070	2063	2134	2147	2046	2098	2055	2083	2103	2113	2103	2087	2115	2086	2079	2079	2042	2042	2013	2055	2083	2044	1978	2018	2043	2074	2098	1995	1995	2014	2118	2086	2059	2099	2099	1999	1974	1959	1950	1951	2010	1919	2003	2006	1894	1959	1967	1923	2002	2007	2034	2006	2007	1954	2023	2002	1967	1899	1894	1879	1918	1895	1890	1927	1870	1907	1851	1879	1926	1966	1918	1978	1962	1983	1963	1859	1930	1847	1922	1906	1819	1802	1838	1786	1871	1803	1883	1911	1907	1931	1850	1894	1903	1847	1843	1822	1800	1855	1878	1811	1842	1828	1755	1746	1778	1759	1810	1799	1810	1863	1886	1803	1891	1878	1854	1823	1798	1743	1842	1830	1711	1723	1823	1818	1818	1776	1839	1842	1750	1863	1855	1855	1839	1870	1763	1766	1739	1747	1798	1807	1712	1695	1714	1687	1718	1779	1822	1767	1774	1851	1854	1859	1816	1762	1754	1842	1830	1815	1746	1786	1694	1679	1790	1690	1790	1779	1735	1806	1834	1787	1807	1754	1767	1786	1771	1754	1790	1799	1695	1722	1795	1687	1739	1798	1803	1794	1723	1726	1811	1746	1758	1751	1759	1782	1750	1759	1715	1803	1770	1786	1763	1794	1767	1786	1691	1718	1723	1726	1727	1802	1751	1746	1844	1738	1738	1818	1783	1730	1786	1711	1718	1691	1774	1682	1755	1730	1742	1799	1811	1822	1723	1835	1795	1809	1707	1799	1754	1778	1666	1706	1726	1743	1755	1662	1674	1735	1678	1735	1703	1691	1803	1791	1780	1803	1795	1787	1771	1747	1727	1691	1667	1650	1638	1672	1738	1720	1679	1798	1786	1826	1739	1779	1819	1744	1791	1826	1799	1771	1811	1739	1754	1843	1858	1879	1887	1898	1963	1898	1926	1970	1971	2050	2023	2018	2059	2114	2059	2187	2099	2138	2246	2178	2194	2286	2271	2331	2451	2435	2419	2466	2554	2639	2639	2635	2603	2728	2630	2759	2715	2755	2779	2739	2859	2906	2942	2903	2923	2995	3059	3099	3175	3074	3215	3135	3187	3258	3235	3175	3206	3203	3331	3343	3259	3347	3330	3439	3415	3419	3454	3459	3463	3571	3563	3606	3582	3595	3494	3599	3510	3586	3494	3603	3615	3526	3618	3575	3667	3587	3614	3635	3619	3627	3719	3707	3654	3654	3663	3619	3550	3555	3619	3639	3536	3630	3647	3587	3559	3646	3563	3567	3579	3574	3554	3614	3547	3539	3499	3563	3454	3479	3515	3423	3470	3527	3423	3422	3503	3483	3423	3471	3426	3454	3523	3438	3479	3439	3390	3426	3319	3331	3302	3343	3299	3279	3287	3290	3315	3379	3295	3311	3383	3295	3274	3327	3274	3310	3227	3235	3227	3195	3175	3159	3231	3201	3211	3158	3231	3223	3182	3179	3259	3162	3215	3174	3167	3114	3171	3194	3150	3051	3106	3038	3038	3107	3067	3055	3182	3155	3171	3071	3082	3086	3059	3143	3035	3023	3110	2995	2983	3059	3062	3058	3023	2998	2983	2959	3071	3063	3075	2982	3055	3046	3070	3059	3011	2926	2986	2983	2939	2871	2859	2855	2859	2883	2891	2915	2935	2962	2947	2895	2955	2862	2951	2838	2831	2831	2851	2771	2747	2767	2806	2727	2763	2791	2787	2750	2799	2823	2779	2727	2723	2718	2710	2786	2703	2642	2627	2695	2594	2686	2563	2563	2618	2646	2594	2579	2566	2615	2562	2675	2662	2634	2579	2566	2599	2506	2503	2479	2479	2490	2462	2527	2435	2423	2507	2451	2455	2535	2551	2507	2574	2519	2451	2430	2503	2414	2451	2387	2419	2370	2442	2407	2414	2466	2363	2467	2486	2391	2502	2467	2486	2467	2395	2455	2449	2416	2375	2362	2343	2339	2410	2354	2346	2342	2454	2446	2451	2371	2398	2470	2419	2387	2475	2394	2471	2462	2398	2367	2340	2422	2423	2358	2399	2375	2371	2431	2347	2390	2376	2471	2439	2466	2366	2455	2334	2350	2326	2315	2323	2383	2403	2370	2295	2302	2391	2394	2339	2334	2359	2454	2358	2415	2430	2331	2351	2391	2311	2386	2270	2263	2279	2323	2331	2275	2294	2291	2291	2334	2306	2302	2395	2394	2342	2315	2303	2318	2242	2291	2314	2210	2242	2302	2310	2250	2315	2286	2319	2239	2231	2294	2338	2243	2239	2195	2299	2223	2270	2195	2231	2231	2194	2215	2146	2138	2158	2247	2243	2207	2163	2159	2222	2266	2174	2242	2151	2142	2210	2107	2171	2067	2126	2043	2054	2143	2166	2174	2094	2126	2139	2078	2118	2179	2146	2086	2131	2039	2058	2079	2083	2023	2039	1995	2034	2007	2002	2118	2095	2020	2031	2083	2067	2087	2106	2070	2007	1982	2075	1975	1930	2035	1922	1959	1927	1931	1963	1979	2062	2010	1966	2066	1979	2039	1967	2031	2019	1938	1911	1895	1914	1923	1950	1983	1874	1940	1974	1919	1914	1955	1911	1979	2015	1947	1971	1894	1979	1939	1863	1839	1923	1839	1887	1898	1922	1879	1938	1950	1858	1866	1874	1975	1890	1959	1954	1867	1838	1847	1827	1875	1786	1862	1806	1831	1846	1814	1911	1918	1923	1847	1906	1899	1938	1934	1887	1902	1783	1872	1814	1875	1770	1850	1834	1759	1834	1815	1846	1795	1867	1823	1794	1803	1814	1895	1847	1786	1862	1771	1774	1746	1727	1771	1746	1834	1822	1840	1752	1831	1776	1814	1855	1795	1847	1867	1823	1818	1791	1767	1847	1730	1722	1807	1771	1746	1771	1816	1783	1751	1855	1872	1810	1823	1830	1831	1775	1779	1799	1783	1724	1719	1718	1810	1707	1775	1794	1755	1838	1859	1811	1787	1783	1838	1838	1780	1791	1846	1819	1823	1735	1711	1711	1794	1695	1811	1711	1830	1767	1827	1843	1759	1846	1767	1775	1782	1754	1791	1838	1727	1823	1803	1754	1723	1715	1697	1815	1803	1727	1743	1818	1831	1862	1815	1778	1775	1738	1750	1725	1811	1794	1766	1722	1734	1782	1767	1778	1743	1754	1723	1826	1839	1842	1750	1786	1799	1769	1779	1808	1690	1682	1759	1659	1671	1730	1716	1667	1718	1691	1706	1819	1735	1727	1798	1795	1818	1722	1798	1779	1794	1759	1783	1778	1678	1679	1726	1702	1811	1806	1802	1863	1791	1854	1911	1830	1843	1883	1895	1855	1942	1947	1894	1886	1930	1915	2023	2007	2071	2055	2155	2211	2139	2211	2195	2294	2239	2291	2379	2379	2406	2359	2355	2471	2447	2522	2471	2523	2547	2642	2726	2731	2711	2759	2871	2874	2927	2847	2871	2895	2943	3011	3030	2990	3059	3019	3086	3091	3179	3216	3263	3211	3279	3311	3291	3346	3323	3330	3403	3351	3371	3470	3363	3423	3411	3430	3527	3475	3495	3491	3518	3535	3647	3666	3683	3675	3695	3659	3611	3682	3583	3651	3667	3643	3675	3647	3639	3594	3610	3699	3671	3707	3655	3663	3735	3643	3683	3675	3667	3623	3600	3663	3555	3535	3547	3643	3547	3567	3607	3642	3551	3547	3603	3591	3555	3595	3615	3619	3571	3543	3539	3518	3491	3415	3435	3394	3491	3390	3399	3487	3503	3395	3439	3492	3467	3410	3434	3459	3447	3311	3311	3315	3271	3302	3315	3327	3258	3279	3343	3311	3383	3371	3358	3318	3258	3300	3326	3239	3210	3231	3178	3262	3250	3138	3187	3206	3123	3134	3155	3207	3144	3194	3226	3218	3134	3235	3122	3091	3135	3079	3158	3043	3055	3018	3015	3082	3039	3111	3063	3126	3103	3051	3039	3095	3039	3099	3020	3110	3082	3066	2975	3023	2963	3031	2939	2967	3022	3011	2979	3007	3035	2962	2979	2955	3051	3023	3031	2918	3003	2938	2910	2847	2862	2855	2863	2914	2915	2819	2811	2882	2859	2826	2843	2907	2835	2867	2782	2763	2855	2784	2707	2799	2750	2770	2739	2643	2659	2698	2687	2755	2762	2755	2731	2686	2742	2727	2695	2610	2627	2575	2542	2542	2615	2574	2598	2523	2507	2579	2487	2558	2598	2571	2535	2535	2531	2503	2551	2479	2471	2506	2430	2514	2514	2447	2411	2491	2459	2491	2426	2418	2511	2527	2483	2526	2439	2459	2430	2507	2462	2447	2379	2347	2423	2439	2411	2450	2443	2386	2454	2470	2431	2487	2395	2402	2395	2410	2471	2471	2439	2386	2398	2383	2399	2342	2395	2431	2412	2426	2350	2408	2378	2466	2395	2427	2411	2411	2486	2395	2410	2363	2358	2427	2343	2403	2406	2347	2326	2334	2399	2431	2387	2434	2387	2463	2391	2458	2366	2439	2339	2339	2378	2331	2335	2366	2359	2327	2359	2402	2395	2354	2398	2442	2423	2379	2418	2346	2382	2375	2371	2339	2270	2359	2275	2311	2275	2354	2247	2258	2374	2378	2290	2335	2343	2298	2343	2383	2327	2323	2275	2282	2251	2222	2190	2199	2243	2283	2251	2258	2290	2230	2214	2223	2223	2274	2319	2259	2218	2266	2190	2207	2135	2177	2198	2134	2107	2214	2166	2131	2199	2227	2250	2163	2255	2158	2151	2154	2174	2178	2091	2083	2123	2135	2063	2107	2070	2119	2147	2115	2158	2167	2159	2134	2179	2167	2083	2167	2055	2119	2023	2055	2111	2050	2067	2070	2014	1979	2078	2046	1991	2011	2095	2014	2031	2018	2086	2103	2095	2087	2062	2051	2047	2027	1982	1983	1935	2026	2002	1935	1983	2058	1995	1966	1983	1967	2062	1999	2042	1966	1927	2006	1903	1979	1890	1907	1886	1983	1975	1931	1954	1987	2011	1983	1910	1983	1975	2023	1899	1971	1915	1923	1907	1851	1934	1939	1891	1898	1846	1850	1951	1966	1918	1935	1898	1966	1947	1906	1954	1859	1934	1875	1923	1811	1850	1791	1871	1799	1807	1807	1871	1911	1895	1851	1842	1848	1935	1846	1824	1831	1859	1799	1790	1871	1778	1766	1839	1843	1830	1795	1822	1903	1831	1838	1927	1939	1843	1830	1919	1847	1886	1806	1811	1771	1867	1750	1767	1867	1823	1842	1864	1890	1887	1883	1823	1834	1839	1819	1875	1791	1782	1811	1803	1859	1746	1819	1818	1802	1766	1830	1858	1798	1903	1866	1889	1862	1886	1867	1795	1854	1779	1762	1755	1838	1767	1771	1762	1842	1770	1815	1846	1807	1810	1803	1823	1835	1867	1902	1834	1822	1831	1863	1810	1763	1782	1807	1763	1771	1799	1798	1792	1890	1819	1914	1907	1834	1866	1890	1787	1782	1775	1838	1827	1847	1750	1823	1815	1739	1767	1870	1871	1866	1867	1859	1911	1866	1875	1819	1822	1775	1763	1791	1766	1719	1731	1726	1719	1827	1839	1767	1791	1811	1894	1814	1863	1891	1786	1872	1774	1826	1755	1759	1786	1774	1794	1787	1710	1774	1826	1750	1754	1755	1875	1754	1827	1818	1823	1846	1783	1803	1830	1731	1794	1803	1731	1755	1767	1762	1774	1770	1898	1875	1875	1882	1879	1954	1915	1906	1995	1943	1907	2010	1934	1927	1971	1979	1994	2018	2158	2171	2223	2159	2235	2227	2335	2262	2343	2414	2394	2383	2359	2498	2431	2531	2502	2486	2527	2662	2623	2666	2795	2730	2866	2794	2883	2855	2990	3006	3014	2987	3010	3071	2990	3019	3139	3075	3182	3131	3247	3250	3230	3363	3306	3419	3358	3352	3447	3415	3475	3439	3435	3507	3431	3434	3467	3547	3511	3598	3523	3603	3555	3623	3691	3619	3627	3710	3738	3735	3658	3650	3690	3663	3603	3710	3687	3622	3638	3626	3658	3731	3663	3703	3774	3775	3667	3667	3655	3747	3694	3711	3599	3571	3642	3663	3562	3647	3618	3631	3595	3647	3563	3567	3627	3667	3559	3602	3575	3614	3575	3575	3566	3527	3523	3419	3403	3387	3431	3427	3447	3495	3507	3398	3483	3475	3403	3470	3431	3375	3434	3415	3359	3327	3351	3275	3282	3350	3315	3267	3323	3338	3251	3271	3303	3270	3247	3231	3235	3307	3275	3251	3146	3171	3142	3134	3171	3203	3095	3182	3119	3107	3166	3107	3215	3139	3115	3207	3107	3171	3167	3127	3123	3071	3026	3071	3095	3007	3090	3107	3015	3010	3015	3082	3023	3070	3055	3091	3095	3071	3043	2955	2959	