3086	3086	3007	2943	2947	2951	2999	2907	2935	2890	2903	2879	2903	2843	2855	2930	2903	2867	2830	2934	2939	2818	2855	2895	2770	2755	2835	2811	2722	2751	2791	2758	2683	2706	2791	2722	2802	2759	2703	2719	2787	2726	2783	2719	2658	2666	2739	2611	2671	2662	2643	2583	2618	2691	2679	2626	2698	2635	2667	2646	2622	2619	2611	2671	2663	2571	2651	2614	2618	2534	2542	2598	2615	2571	2583	2555	2567	2582	2582	2583	2639	2631	2579	2551	2590	2631	2575	2554	2483	2495	2538	2590	2491	2555	2511	2559	2526	2603	2631	2642	2542	2547	2623	2623	2503	2539	2571	2515	2479	2447	2467	2483	2559	2499	2571	2582	2539	2507	2595	2523	2531	2494	2482	2482	2527	2439	2547	2495	2403	2395	2503	2483	2391	2510	2455	2426	2539	2463	2470	2523	2470	2467	2470	2430	2403	2379	2467	2351	2338	2358	2431	2434	2331	2431	2351	2352	2471	2376	2367	2419	2463	2467	2410	2442	2422	2306	2306	2382	2259	2366	2287	2367	2363	2259	2307	2362	2374	2294	2343	2323	2394	2391	2358	2355	2351	2327	2242	2255	2286	2247	2183	2295	2263	2194	2307	2291	2270	2330	2327	2246	2323	2319	2207	2310	2278	2174	2227	2247	2154	2227	2127	2235	2131	2215	2130	2150	2211	2255	2166	2243	2167	2230	2147	2203	2131	2191	2155	2083	2082	2091	2071	2071	2067	2083	2179	2147	2167	2207	2179	2203	2130	2226	2198	2087	2087	2163	2090	2086	2147	2147	2030	2139	2063	2062	2071	2143	2195	2151	2090	2150	2199	2195	2087	2175	2111	2115	2091	2123	2019	2007	2027	2098	2027	2042	2082	2071	2067	2190	2075	2143	2155	2156	2143	2079	2071	2115	2058	2062	2071	2094	2115	2122	2078	2079	2134	2131	2111	2171	2070	2147	2067	2167	2111	2086	2118	2079	2066	2019	2099	2131	2042	2039	2054	2079	2106	2079	2099	2111	2123	2078	2082	2178	2186	2055	2047	2143	2127	2123	2075	2019	2043	2015	2038	2094	2071	2130	2074	2075	2074	2075	2154	2070	2158	2115	2134	2039	2086	2103	2034	2003	2102	1996	2046	2066	2094	2103	2127	2050	2071	2139	2106	2111	2078	2058	2063	2083	2123	2043	2091	2059	2098	1995	2031	2014	2131	2043	2051	2051	2102	2138	2106	2130	2078	2122	2030	2022	1987	1983	2034	2065	1979	2010	1995	2007	2046	2123	2139	2039	2058	2051	2126	2058	2035	2119	2103	1995	2038	2047	2039	2034	2035	2083	2010	2038	2099	2098	2051	2031	2119	2058	2106	2042	2055	2122	2154	2066	2067	2035	2110	2134	2051	2071	2127	2186	2147	2146	2235	2182	2211	2223	2262	2279	2359	2255	2251	2262	2286	2283	2355	2374	2447	2374	2474	2431	2535	2618	2582	2651	2610	2742	2699	2686	2754	2806	2839	2783	2855	2851	2878	2908	2883	2942	3031	2995	3018	3075	3115	3219	3162	3275	3218	3327	3354	3363	3343	3319	3339	3323	3423	3355	3442	3510	3491	3463	3531	3519	3595	3671	3647	3619	3654	3691	3654	3758	3663	3655	3735	3667	3678	3711	3751	3719	3775	3746	3851	3799	3839	3890	3883	3907	3914	3823	3931	3862	3819	3787	3835	3819	3771	3878	3823	3859	3850	3807	3899	3806	3815	3842	3847	3883	3854	3823	3799	3790	3827	3734	3803	3691	3759	3687	3771	3775	3707	3670	3683	3750	3715	3771	3695	3767	3707	3687	3683	3672	3687	3595	3683	3586	3575	3531	3575	3603	3526	3547	3607	3547	3550	3651	3647	3566	3615	3547	3535	3471	3494	3467	3422	3431	3435	3415	3463	3399	3379	3458	3431	3426	3471	3431	3415	3507	3467	3411	3443	3454	3351	3315	3415	3391	3267	3391	3387	3363	3271	3342	3327	3354	3375	3331	3294	3311	3330	3287	3379	3306	3286	3255	3315	3239	3171	3191	3219	3275	3210	3294	3200	3207	3235	3311	3279	3294	3219	3199	3258	3255	3215	3139	3170	3151	3147	3179	3179	3183	3066	3166	3095	3127	3166	3099	3142	3159	3123	3075	3147	3134	2995	3054	3071	3039	2983	2931	2938	2923	2995	2930	2959	2934	3027	2951	3027	2935	2970	2982	2995	2974	2831	2947	2818	2831	2871	2814	2799	2799	2779	2898	2875	2819	2903	2807	2875	2839	2882	2799	2859	2827	2707	2714	2767	2754	2663	2658	2755	2775	2742	2706	2695	2687	2788	2711	2787	2707	2707	2787	2682	2639	2691	2638	2718	2630	2639	2615	2695	2602	2630	2631	2722	2627	2738	2715	2715	2714	2736	2642	2719	2671	2578	2643	2566	2571	2555	2591	2632	2554	2562	2675	2583	2587	2703	2654	2620	2702	2595	2675	2682	2574	2606	2611	2627	2523	2535	2511	2631	2626	2638	2543	2623	2547	2666	2559	2559	2595	2667	2555	2575	2615	2514	2503	2566	2454	2466	2563	2527	2551	2476	2482	2479	2491	2499	2490	2539	2594	2567	2475	2551	2487	2415	2407	2482	2399	2383	2454	2461	2379	2374	2423	2387	2375	2390	2469	2463	2463	2406	2419	2448	2311	2346	2299	2299	2323	2267	2347	2343	2343	2278	2275	2306	2383	2351	2378	2283	2378	2255	2319	2307	2235	2315	2195	2228	2271	2183	2190	2238	2147	2151	2215	2194	2207	2168	2190	2191	2202	2247	2135	2211	2190	2187	2134	2151	2151	2131	2043	2039	2047	2155	2159	2158	2138	2191	2086	2082	2160	2171	2054	2079	2038	2111	2003	1991	2007	2075	2075	2050	1967	1990	1979	1986	2098	2078	2046	2079	2011	1979	1974	2055	1959	2022	2015	1955	1907	1946	1926	1903	1923	1947	1977	1947	1999	2035	1998	1979	2003	2018	2011	1942	1950	1907	2003	1878	1914	1870	1879	1986	1871	1895	1950	1930	2014	1903	2035	1938	2015	2011	1898	1891	1971	1875	1910	1955	1843	1903	1942	1894	1850	1854	1953	1939	1946	1915	1906	1986	1994	1895	1879	1935	1834	1862	1926	1927	1857	1890	1895	1834	1899	1835	1918	1923	1903	1871	1863	1963	1882	1926	1934	1883	1931	1843	1838	1791	1842	1790	1839	1831	1791	1903	1803	1842	1906	1890	1939	1875	1839	1938	1823	1866	1818	1826	1814	1818	1811	1875	1830	1803	1828	1810	1894	1830	1898	1835	1847	1835	1823	1919	1907	1902	1878	1840	1851	1835	1854	1827	1767	1779	1870	1779	1792	1794	1899	1903	1895	1859	1883	1915	1823	1887	1875	1815	1827	1847	1793	1801	1814	1791	1807	1838	1867	1846	1782	1846	1834	1818	1806	1826	1859	1767	1847	1762	1750	1763	1707	1724	1775	1718	1718	1782	1798	1775	1791	1839	1794	1847	1882	1787	1763	1802	1803	1822	1798	1810	1771	1706	1807	1799	1710	1755	1802	1778	1743	1799	1847	1791	1759	1751	1759	1814	1807	1698	1703	1767	1670	1682	1710	1787	1782	1810	1771	1830	1810	1786	1782	1791	1739	1838	1727	1752	1751	1708	1698	1703	1771	1771	1734	1790	1783	1702	1811	1782	1790	1758	1767	1859	1750	1775	1747	1815	1843	1826	1779	1759	1847	1746	1759	1883	1803	1822	1846	1886	1986	2023	2055	2011	1994	2071	2011	2058	2099	2047	2131	2067	2195	2207	2231	2195	2243	2255	2412	2363	2379	2514	2479	2539	2498	2527	2566	2575	2587	2703	2747	2735	2787	2810	2815	2891	2835	2979	2986	2947	3075	3142	3154	3087	3119	3231	3251	3162	3283	3247	3302	3319	3367	3283	3319	3418	3463	3407	3486	3551	3494	3622	3559	3570	3575	3579	3671	3627	3583	3611	3631	3703	3711	3719	3651	3750	3663	3699	3803	3815	3727	3823	3751	3839	3747	3839	3831	3795	3715	3707	3743	3735	3783	3763	3707	3742	3774	3799	3702	3787	3719	3742	3743	3715	3726	3670	3711	3687	3610	3719	3687	3595	3567	3638	3583	3591	3643	3574	3663	3578	3667	3631	3658	3639	3599	3539	3483	3458	3475	3539	3462	3402	3487	3431	3375	3383	3447	3426	3411	3406	3367	3374	3387	3435	3443	3327	3327	3354	3283	3247	3335	3227	3207	3218	3203	3210	3259	3243	3275	3271	3218	3303	3318	3199	3287	3255	3223	3143	3131	3231	3207	3099	3082	3199	3183	3115	3179	3155	3224	3206	3183	3171	3167	3131	3231	3183	3183	3159	3127	3147	3034	3015	3015	3115	3111	3039	3035	3046	3143	3134	3147	3099	3158	3034	3019	3079	3107	2991	3067	3052	2938	2939	3019	3015	2915	3014	3007	2922	2978	2971	2947	2974	3039	2955	2899	2967	2879	2950	2919	2839	2795	2783	2851	2794	2798	2827	2823	2864	2849	2878	2859	2780	2859	2735	2723	2731	2726	2748	2678	2682	2679	2607	2686	2658	2651	2599	2671	2627	2643	2714	2671	2659	2610	2679	2611	2651	2563	2654	2544	2523	2615	2479	2483	2487	2531	2503	2574	2534	2563	2616	2622	2582	2603	2623	2575	2586	2554	2450	2447	2474	2542	2495	2430	2535	2547	2443	2559	2531	2494	2517	2591	2538	2558	2486	2570	2474	2538	2478	2539	2518	2410	2506	2515	2503	2419	2535	2499	2451	2456	2530	2558	2535	2478	2579	2518	2470	2447	2559	2434	2426	2483	2447	2458	2416	2426	2479	2531	2447	2564	2531	2498	2499	2503	2579	2579	2470	2543	2487	2478	2462	2499	2455	2447	2407	2410	2514	2426	2515	2444	2450	2547	2559	2458	2450	2543	2471	2470	2406	2451	2479	2394	2455	2447	2351	2431	2438	2435	2430	2507	2419	2454	2406	2432	2395	2398	2430	2383	2342	2347	2327	2346	2423	2402	2319	2319	2322	2423	2362	2449	2359	2334	2459	2442	2346	2331	2311	2371	2367	2263	2282	2262	2271	2243	2239	2338	2342	2263	2255	2375	2327	2299	2303	2351	2266	2347	2238	2247	2211	2207	2299	2194	2163	2160	2259	2171	2279	2283	2275	2278	2311	2214	2195	2247	2183	2226	2214	2170	2227	2107	2215	2106	2091	2095	2190	2163	2215	2206	2179	2131	2179	2230	2235	2207	2163	2119	2086	2091	2110	2163	2038	2062	2027	2099	2019	2043	2139	2063	2054	2083	2167	2162	2063	2094	2143	2135	2070	2047	2103	2083	2003	1959	1950	2027	1947	1967	2071	1975	2059	1995	2078	2011	2110	2095	2090	1970	1958	2034	1982	2011	1898	1887	1907	1958	1914	1986	2011	1891	2007	1939	1915	2031	1926	1922	1931	1907	1930	1876	1958	1951	1887	1895	1931	1927	1827	1882	1847	1959	1875	1919	1878	1994	1987	1882	1959	1887	1894	1822	1912	1915	1843	1791	1816	1909	1791	1854	1918	1910	1843	1944	1858	1862	1894	1851	1846	1906	1846	1863	1799	1891	1882	1855	1871	1851	1839	1830	1795	1915	1882	1939	1846	1847	1911	1863	1863	1926	1918	1810	1875	1799	1807	1851	1782	1822	1871	1823	1810	1826	1842	1911	1882	1938	1835	1883	1895	1858	1862	1790	1779	1871	1802	1831	1839	1831	1803	1818	1883	1906	1854	1931	1838	1859	1855	1936	1831	1943	1843	1870	1802	1779	1871	1831	1878	1795	1810	1823	1871	1862	1915	1843	1923	1855	1862	1923	1867	1915	1899	1855	1914	1859	1871	1795	1858	1818	1913	1935	1823	1950	1914	1963	1895	1882	1990	1886	1891	1859	1843	1898	1923	1819	1831	1922	1879	1891	1927	1942	1886	1850	1934	1875	1938	1990	1894	1955	1879	1950	1923	1899	1910	1927	1822	1895	1802	1915	1859	1910	1927	1919	1935	1890	1894	2003	1963	1986	1995	1926	1895	1927	1855	1943	1935	1939	1879	1935	1859	1910	1982	1999	1918	1947	1942	2030	1955	2055	2031	1931	2022	2004	1935	1982	2002	2039	1979	1978	1982	2107	2059	2083	2091	2143	2227	2219	2194	2212	2187	2295	2215	2278	2327	2279	2264	2358	2418	2430	2415	2406	2554	2579	2591	2566	2694	2618	2647	2691	2691	2804	2831	2786	2782	2895	2887	2855	2979	2918	2967	3023	3034	3143	3127	3151	3170	3214	3235	3279	3327	3275	3372	3335	3391	3435	3442	3423	3495	3431	3547	3491	3606	3562	3643	3579	3647	3642	3683	3710	3650	3767	3683	3695	3768	3666	3683	3775	3779	3806	3739	3723	3751	3771	3870	3867	3887	3854	3891	3838	3795	3854	3871	3875	3754	3847	3731	3767	3823	3822	3767	3823	3803	3847	3814	3851	3791	3774	3819	3834	3727	3707	3791	3762	3743	3699	3634	3595	3663	3587	3627	3627	3591	3659	3643	3595	3603	3591	3583	3551	3627	3554	3503	3583	3450	3463	3446	3427	3495	3518	3479	3435	3482	3507	3502	3419	3407	3514	3423	3479	3378	3406	3383	3346	3287	3267	3363	3251	3351	3322	3345	3254	3315	3267	3282	3282	3367	3303	3334	3295	3231	3231	3255	3291	3187	3150	3143	3211	3216	3247	3158	3135	3243	3159	3255	3263	3206	3231	3233	3203	3143	3186	3198	3162	3139	3167	3070	3035	3146	3131	3058	3071	3095	3159	3075	3171	3078	3078	3047	3143	3139	3067	