2546	2610	2551	2514	2499	2578	2567	2567	2479	2487	2491	2511	2550	2630	2567	2630	2542	2623	2650	2651	2599	2595	2565	2619	2510	2495	2523	2578	2586	2483	2542	2534	2566	2518	2583	2622	2523	2550	2534	2530	2602	2511	2514	2475	2479	2472	2479	2551	2456	2467	2475	2559	2567	2543	2483	2619	2590	2562	2591	2590	2499	2519	2547	2470	2442	2543	2418	2451	2502	2515	2431	2499	2447	2446	2527	2507	2568	2523	2455	2499	2468	2523	2475	2462	2479	2491	2407	2390	2458	2379	2391	2399	2431	2419	2414	2426	2462	2410	2450	2466	2454	2395	2375	2363	2371	2426	2354	2363	2323	2387	2298	2367	2320	2359	2311	2398	2371	2335	2403	2435	2403	2359	2286	2363	2275	2339	2318	2219	2238	2266	2294	2251	2246	2319	2367	2307	2367	2342	2263	2271	2247	2303	2291	2203	2307	2234	2174	2246	2243	2238	2182	2243	2183	2290	2286	2270	2282	2266	2211	2231	2227	2230	2175	2171	2178	2231	2179	2191	2219	2187	2155	2207	2242	2158	2158	2151	2174	2162	2195	2250	2210	2235	2146	2135	2147	2162	2086	2142	2171	2110	2100	2194	2103	2158	2138	2138	2227	2122	2135	2202	2186	2159	2103	2171	2151	2062	2143	2143	2122	2071	2146	2098	2142	2107	2135	2098	2095	2110	2102	2123	2178	2135	2158	2079	2143	2122	2031	2103	2070	2039	2034	2058	2171	2094	2082	2191	2187	2150	2115	2148	2162	2075	2079	2066	2147	2139	2083	2071	2087	2038	2055	2147	2087	2091	2147	2098	2123	2178	2155	2127	2124	2071	2142	2153	2039	2151	2031	2122	2135	2042	2066	2074	2099	2147	2150	2087	2139	2106	2158	2154	2098	2071	2173	2114	2139	2147	2046	2043	2063	2095	2051	2058	2150	2067	2139	2191	2130	2106	2159	2119	2203	2079	2087	2154	2059	2124	2047	2063	2134	2111	2066	2130	2132	2083	2079	2127	2107	2178	2102	2087	2167	2167	2059	2094	2150	2115	2011	2128	2015	2035	2034	2074	2122	2119	2159	2195	2102	2103	2175	2091	2191	2070	2151	2103	2072	2055	2067	2011	2102	2054	2130	2114	2083	2059	2127	2199	2107	2127	2194	2218	2195	2199	2130	2174	2171	2167	2091	2142	2163	2231	2168	2259	2275	2251	2267	2278	2407	2314	2435	2431	2399	2371	2391	2495	2394	2455	2515	2507	2494	2559	2541	2631	2654	2658	2783	2839	2831	2787	2878	2899	2935	2931	2907	3015	3006	2963	3075	3111	3119	3147	3119	3143	3203	3262	3322	3383	3391	3338	3362	3471	3387	3510	3411	3422	3502	3463	3574	3515	3583	3527	3642	3598	3691	3679	3659	3690	3803	3718	3754	3759	3779	3843	3830	3735	3847	3823	3739	3787	3790	3871	3890	3806	3915	3823	3851	3943	3903	3851	3851	3870	3859	3919	3863	3915	3802	3871	3843	3810	3831	3863	3863	3847	3803	3807	3843	3834	3847	3871	3783	3867	3767	3795	3823	3755	3751	3763	3667	3639	3698	3675	3662	3747	3695	3735	3707	3679	3703	3663	3631	3654	3707	3691	3566	3571	3619	3551	3519	3610	3530	3559	3495	3499	3519	3503	3551	3519	3603	3490	3582	3495	3527	3491	3451	3418	3398	3390	3455	3371	3355	3447	3359	3387	3434	3486	3371	3411	3479	3471	3343	3443	3438	3323	3379	3363	3331	3279	3351	3339	3287	3338	3262	3307	3271	3359	3378	3382	3338	3271	3259	3279	3323	3251	3235	3278	3223	3240	3259	3155	3239	3171	3151	3234	3218	3219	3239	3243	3187	3275	3270	3171	3142	3171	3211	3091	3091	3119	3055	3147	3106	3126	3082	3150	3059	3091	3155	3163	3110	3159	3055	3115	3015	3030	2991	3003	2946	2943	3018	3014	2918	2911	2923	3014	2999	2939	2998	3003	2947	2910	2958	2894	2890	2871	2878	2814	2870	2783	2783	2819	2822	2806	2863	2766	2871	2882	2770	2847	2855	2763	2830	2851	2727	2720	2760	2723	2667	2678	2759	2691	2743	2659	2739	2727	2783	2754	2703	2683	2770	2763	2787	2771	2715	2710	2631	2693	2642	2666	2694	2674	2591	2631	2691	2674	2622	2731	2726	2646	2706	2639	2667	2711	2699	2594	2675	2651	2582	2567	2647	2555	2667	2654	2675	2579	2715	2607	2699	2722	2711	2627	2611	2659	2594	2594	2635	2582	2627	2614	2543	2586	2594	2638	2563	2563	2571	2611	2579	2619	2618	2659	2686	2619	2638	2626	2531	2631	2626	2523	2595	2595	2619	2611	2591	2539	2646	2618	2592	2631	2590	2559	2634	2619	2626	2618	2599	2574	2491	2495	2459	2559	2530	2507	2470	2562	2583	2535	2551	2558	2559	2482	2479	2574	2527	2547	2495	2446	2507	2420	2487	2399	2435	2390	2415	2410	2434	2526	2531	2543	2518	2442	2514	2423	2487	2471	2387	2339	2334	2318	2338	2395	2314	2426	2378	2434	2422	2403	2331	2347	2346	2439	2390	2402	2359	2386	2374	2254	2323	2278	2331	2215	2259	2271	2347	2259	2251	2347	2343	2359	2258	2314	2311	2347	2236	2302	2263	2183	2255	2207	2154	2162	2186	2179	2176	2198	2211	2226	2267	2302	2211	2247	2230	2267	2195	2175	2131	2190	2087	2171	2126	2107	2191	2160	2215	2187	2139	2151	2235	2203	2228	2190	2154	2211	2133	2083	2107	2126	2110	2043	2043	2027	2095	2146	2102	2158	2154	2186	2111	2171	2146	2127	2130	2144	2043	2075	2047	2066	2111	2047	2039	1995	2095	2007	2118	2026	2027	2039	2047	2143	2130	2099	2119	2106	2083	2059	2083	2055	2051	1991	1970	1963	1967	2055	2034	1999	2007	2107	2115	2015	2102	2079	2059	2094	1986	2055	2075	1998	1955	2035	1974	1943	1931	1947	2011	2071	2006	1987	2007	2043	2098	2095	1983	2007	1970	1962	1970	2035	1927	2023	1915	1922	1934	1939	1987	1954	1990	2054	1970	2043	2094	1978	1983	1974	1998	2035	1926	1919	1914	1922	1954	1938	2010	1958	2047	2039	2055	1987	2055	1979	2083	1978	2071	1967	1934	1978	1971	1987	1906	1890	1903	1991	1970	2010	1919	2042	2059	2007	1999	2003	1991	1950	1998	1958	2007	1943	1966	1878	1975	1931	1927	1875	1890	1903	1897	1975	1962	2047	2039	1995	1958	2030	1926	1931	1998	1971	1895	1870	1874	1890	1971	1947	1923	1915	1938	1931	1971	1971	1970	2015	2010	2039	1979	2058	2031	2070	2055	2015	2026	1986	2059	2047	1999	2035	2067	2079	2110	2123	2170	2186	2260	2191	2287	2323	2315	2244	2259	2355	2311	2322	2435	2395	2407	2459	2538	2611	2619	2650	2614	2683	2770	2723	2799	2835	2855	2807	2787	2911	2855	2862	2947	3030	2963	3091	3075	3119	3155	3134	3191	3287	3231	3238	3274	3382	3331	3319	3395	3411	3446	3446	3482	3414	3438	3459	3486	3511	3547	3651	3631	3647	3631	3706	3695	3663	3634	3667	3691	3622	3699	3646	3723	3662	3690	3687	3703	3759	3806	3799	3815	3787	3759	3823	3710	3711	3691	3754	3670	3674	3666	3687	3703	3735	3643	3739	3730	3747	3763	3746	3659	3662	3675	3755	3707	3698	3666	3563	3663	3551	3535	3626	3519	3611	3570	3595	3535	3555	3555	3630	3607	3551	3526	3555	3583	3484	3551	3486	3448	3403	3427	3467	3462	3379	3378	3403	3426	3414	3479	3407	3459	3486	3459	3367	3430	3342	3319	3355	3379	3354	3363	3311	3354	3281	3287	3362	3343	3267	3306	3338	3295	3355	3362	3282	3239	3243	3207	3275	3223	3155	3151	3150	3151	3243	3147	3187	3243	3222	3163	3263	3263	3274	3263	3154	3190	3131	3143	3099	3187	3139	3147	3139	3159	3088	3063	3071	3127	3095	3091	3087	3119	3103	3112	3146	3118	3123	3018	3039	3047	2986	2975	3022	3058	2974	2995	2955	2975	3002	3003	3067	3059	2999	2967	2951	2963	2911	2999	2939	2903	2838	2834	2859	2902	2926	2907	2835	2887	2851	2879	2851	2891	2830	2859	2866	2783	2811	2855	2719	2807	2702	2679	2767	2664	2682	2722	2743	2719	2682	2779	2718	2739	2750	2743	2731	2682	2627	2674	2583	2679	2655	2611	2579	2655	2563	2554	2610	2583	2595	2658	2578	2655	2579	2679	2559	2550	2539	2519	2507	2592	2575	2571	2518	2478	2483	2506	2555	2510	2522	2591	2623	2535	2595	2583	2626	2602	2594	2559	2571	2558	2507	2451	2447	2506	2567	2563	2543	2579	2503	2503	2563	2519	2507	2519	2543	2523	2491	2490	2475	2506	2447	2554	2442	2447	2478	2454	2488	2495	2507	2559	2503	2514	2602	2507	2486	2582	2538	2491	2456	2427	2475	2515	2435	2443	2427	2474	2442	2503	2527	2479	2582	2531	2570	2530	2552	2531	2543	2467	2406	2459	2391	2390	2415	2379	2414	2475	2435	2438	2518	2419	2479	2523	2426	2502	2442	2495	2435	2423	2354	2358	2354	2411	2426	2419	2435	2411	2395	2351	2403	2415	2355	2379	2431	2455	2443	2318	2367	2411	2294	2282	2266	2315	2275	2259	2363	2370	2279	2331	2294	2286	2359	2298	2371	2286	2374	2252	2338	2339	2319	2303	2182	2215	2227	2215	2198	2227	2199	2207	2279	2255	2230	2223	2255	2314	2206	2270	2183	2175	2154	2231	2227	2150	2174	2138	2122	2231	2226	2202	2160	2218	2174	2262	2159	2259	2159	2234	2191	2207	2091	2114	2158	2167	2087	2118	2067	2143	2191	2131	2207	2227	2123	2119	2210	2199	2147	2095	2130	2142	2134	2050	2066	2091	2074	2047	2075	2122	2043	2059	2123	2056	2110	2062	2167	2094	2099	2070	2039	2047	2091	1995	1978	1974	1978	2038	1978	2083	2111	2042	2123	2118	2115	2067	2023	2010	1996	2102	1979	1991	2051	1946	2027	1982	2050	1967	2059	2042	2067	1971	2047	1997	1990	2015	2007	2095	2044	2067	2023	2030	2003	2003	1963	1946	2027	2023	1927	1934	2015	2035	1999	1995	2063	2079	2027	1983	1975	1962	2043	1931	1926	1970	1911	1931	1963	1951	2022	2038	1994	2001	1966	2066	2007	1987	1995	2023	1998	1947	1946	1975	2022	1990	1915	1935	2010	1918	1958	1939	2047	1982	1951	2002	2058	2003	2047	2071	1946	2031	1943	1959	2007	2006	1915	1942	1908	2006	1915	1930	1930	1982	1958	1975	1983	2067	1971	1962	1950	2023	1943	2010	1914	1970	1999	2003	1919	2007	1983	1970	1954	2006	1991	1951	1974	2054	2034	1954	1946	1922	1906	2003	1922	1911	1878	1986	1895	1867	1919	2002	1915	2030	1943	1958	2031	1950	1986	2007	1915	2007	1979	1974	1959	1859	1970	1911	1939	1978	1983	1970	1902	1934	1922	2043	1959	1966	2054	2039	1932	2030	1914	2027	1939	1918	1930	2011	2019	2064	2003	1991	2099	2074	2150	2167	2206	2131	2183	2163	2167	2147	2179	2214	2191	2303	2254	2283	2331	2375	2455	2459	2447	2481	2570	2626	2566	2579	2635	2679	2659	2675	2698	2707	2730	2742	2879	2826	2854	2973	2943	2959	3070	3126	3162	3167	3174	3215	3230	3219	3231	3323	3259	3342	3299	3295	3311	3411	3347	3390	3487	3431	3555	3591	3626	3614	3599	3635	3690	3591	3611	3610	3647	3607	3599	3639	3599	3623	3638	3736	3662	3731	3695	3710	3815	3768	3770	3826	3791	3754	3826	3734	3703	3706	3683	3679	3735	3687	3746	3686	3723	3775	3764	3715	3719	3807	3732	3767	3678	3739	3658	3647	3623	3703	3679	3584	3571	3559	3574	3662	3626	3607	3614	3564	3642	3579	3575	3598	3631	3562	3599	3522	3523	3558	3455	3471	3515	3443	3475	3398	3498	3511	3467	3422	3486	3514	3511	3411	3390	3406	3442	3355	3343	3378	3314	3359	3374	3282	3363	3315	3307	3291	3370	3382	3350	3361	3374	3283	3258	3238	3235	3262	3211	3310	3206	3246	3267	3238	3235	3163	3247	3271	3235	3279	3186	3227	3258	3195	3171	3186	3239	3134	3139	3115	3091	3163	3131	3090	3134	3095	3075	3162	3202	3119	3126	3207	3143	3119	3179	3082	3063	3100	3035	3079	3111	3099	3038	2983	2987	3079	3091	3079	2999	3056	3010	3003	3062	3003	3027	3018	3043	2987	2915	2986	2891	2963	2895	2902	2923	2935	2951	2946	2930	2883	2939	2891	2854	2858	2930	2902	2846	2829	2774	2738	2831	2699	2699	2800	2783	2683	2695	2795	2799	2739	2767	2775	2807	2778	2767	2734	2651	2698	2730	2634	2627	2611	2615	2602	2683	2571	2594	2659	2595	2651	2654	2606	2631	2595	2642	2594	2564	2640	2554	2559	2531	2535	2510	2599	2571	2582	2535	2579	2623	2670	2630	2583	2575	2631	2614	2619	2627	2598	2518	2499	2586	2598	2499	2591	2495	2587	2618	2602	2635	2539	2650	2638	2591	2547	2634	2527	2618	2606	2547	2575	2535	2575	2555	2495	2495	2510	2551	2571	2595	2602	2531	2651	2539	2591	2547	2607	2599	2499	2543	