3323	3291	3303	3325	3279	3303	3323	3271	3271	3279	3294	3262	3255	3314	3227	3271	3263	3277	3278	3279	3271	3231	3230	3215	3186	3211	3246	3175	3171	3162	3223	3154	3146	3147	3183	3167	3143	3163	3130	3107	3131	3127	3139	3123	3094	3123	3123	3063	3091	3079	3063	3107	3075	3083	3086	3082	3067	3047	3031	3006	3071	3038	3035	3027	3043	2971	2970	2955	3015	2958	2943	2975	2971	2951	2998	2923	2991	2931	2951	2903	2963	2907	2955	2947	2883	2911	2915	2931	2903	2883	2891	2891	2883	2902	2919	2927	2891	2855	2854	2863	2863	2835	2895	2826	2834	2842	2854	2839	2823	2822	2847	2843	2807	2843	2815	2815	2827	2783	2834	2810	2807	2799	2818	2810	2843	2786	2759	2818	2755	2827	2751	2759	2787	2751	2751	2755	2735	2739	2730	2730	2715	2739	2710	2747	2734	2723	2711	2739	2710	2731	2750	2699	2678	2702	2695	2735	2727	2683	2727	2731	2703	2663	2694	2699	2706	2691	2647	2691	2627	2675	2627	2630	2666	2626	2610	2619	2650	2611	2614	2610	2643	2630	2618	2615	2634	2576	2619	2627	2618	2571	2611	2562	2583	2623	2583	2567	2622	2635	2627	2627	2619	2583	2583	2574	2595	2551	2603	2591	2563	2619	2635	2575	2599	2551	2602	2582	2583	2615	2559	2598	2558	2611	2559	2598	2558	2619	2555	2606	2606	2622	2611	2579	2618	2575	2583	2622	2595	2611	2574	2619	2590	2583	2619	2594	2634	2611	2576	2590	2567	2626	2586	2623	2595	2642	2651	2622	2651	2638	2615	2607	2599	2575	2602	2598	2574	2639	2590	2607	2567	2622	2622	2611	2611	2635	2579	2643	2599	2603	2646	2599	2627	2623	2646	2607	2590	2587	2571	2639	2575	2622	2615	2595	2566	2646	2579	2607	2606	2611	2567	2611	2603	2584	2614	2563	2602	2606	2602	2555	2558	2566	2622	2587	2618	2627	2584	2607	2559	2599	2583	2570	2566	2590	2554	2587	2591	2603	2615	2582	2563	2538	2579	2587	2558	2586	2570	2595	2543	2563	2523	2575	2522	2519	2527	2555	2522	2507	2567	2562	2506	2566	2491	2507	2507	2562	2522	2539	2491	2550	2523	2542	2498	2526	2511	2512	2538	2503	2531	2515	2531	2527	2483	2502	2506	2471	2527	2498	2510	2535	2467	2487	2458	2443	2466	2459	2502	2470	2507	2498	2483	2495	2442	2431	2435	2431	2447	2451	2446	2499	2479	2490	2483	2462	2443	2475	2494	2443	2434	2454	2411	2435	2479	2474	2434	2487	2471	2454	2414	2411	2459	2427	2414	2431	2443	2399	2395	2394	2399	2422	2446	2386	2411	2399	2415	2402	2440	2442	2391	2403	2427	2422	2394	2418	2378	2406	2415	2366	2431	2439	2378	2430	2386	2383	2355	2387	2360	2395	2367	2382	2378	2410	2434	2354	2391	2403	2379	2371	2355	2395	2374	2343	2387	2411	2351	2350	2371	2399	2362	2383	2403	2375	2371	2366	2319	2343	2351	2346	2355	2350	2342	2331	2402	2335	2347	2323	2375	2335	2347	2331	2371	2356	2334	2370	2334	2375	2342	2342	2351	2354	2379	2334	2315	2342	2371	2319	2411	2395	2395	2383	2375	2395	2399	2326	2379	2347	2339	2378	2347	2394	2347	2371	2324	2342	2346	2395	2327	2346	2335	2379	2379	2405	2375	2343	2342	2379	2398	2370	2383	2342	2390	2402	2351	2371	2318	2339	2359	2335	2383	2339	2359	2387	2332	2367	2363	2391	2351	2376	2375	2347	2374	2350	2398	2395	2350	2346	2362	2403	2363	2371	2347	2351	2398	2395	2391	2387	2359	2394	2378	2350	2367	2394	2356	2394	2395	2387	2339	2371	2375	2407	2403	2339	2403	2346	2395	2414	2343	2339	2355	2395	2395	2354	2395	2375	2362	2399	2402	2407	2407	2375	2403	2351	2391	2335	2335	2366	2354	2362	2387	2371	2387	2331	2390	2387	2334	2378	2391	2335	2335	2346	2383	2410	2394	2391	2394	2387	2346	2358	2368	2363	2319	2355	2371	2402	2374	2398	2391	2354	2367	2351	2403	2379	2358	2375	2362	2398	2427	2378	2431	2382	2414	2419	2447	2446	2443	2443	2475	2459	2515	2516	2479	2531	2542	2503	2563	2542	2566	2579	2570	2639	2659	2623	2662	2686	2714	2687	2698	2754	2747	2786	2779	2743	2799	2803	2811	2839	2895	2839	2902	2912	2942	2938	2934	2983	2983	2966	2999	3051	3019	3010	3034	3062	3063	3123	3087	3135	3147	3183	3170	3139	3187	3203	3174	3178	3199	3195	3255	3199	3199	3259	3271	3247	3247	3271	3266	3239	3319	3303	3273	3291	3311	3286	3282	3291	3303	3299	3314	3319	3307	3287	3287	3323	3306	3307	3283	3315	3315	3306	3263	3318	3311	3246	3291	3263	3226	3275	3242	3231	3279	3271	3259	3243	3282	3278	3238	3235	3250	3199	3174	3175	3199	3198	3191	3206	3175	3183	3166	3169	3191	3143	3115	3154	3158	3104	3143	3099	3122	3083	3082	3139	3127	3083	3095	3062	3050	3063	3047	3058	3034	3011	3050	3012	3054	3031	3055	3022	2994	3019	2971	2978	3014	2959	2999	2958	3015	2991	2983	2971	2987	2978	2967	2963	2938	2909	2970	2959	2935	2914	2935	2926	2867	2939	2879	2891	2870	2923	2890	2866	2912	2862	2850	2890	2868	2888	2915	2830	2847	2827	2849	2835	2819	2899	2823	2795	2863	2874	2831	2807	2811	2835	2811	2814	2775	2779	2839	2806	2799	2779	2839	2822	2819	2775	2782	2778	2795	2778	2819	2834	2802	2779	2811	2762	2727	2731	2751	2770	2778	2726	2771	2751	2743	2715	2722	2706	2738	2715	2698	2683	2691	2751	2683	2683	2710	2723	2666	2670	2663	2679	2678	2719	2659	2674	2695	2663	2715	2647	2686	2655	2698	2631	2635	2698	2671	2659	2671	2599	2638	2671	2666	2670	2599	2634	2666	2611	2647	2603	2658	2615	2615	2599	2651	2631	2631	2635	2607	2599	2646	2658	2635	2587	2615	2603	2615	2646	2634	2663	2658	2659	2619	2591	2594	2615	2638	2640	2586	2619	2610	2635	2606	2646	2627	2591	2651	2647	2604	2647	2647	2599	2631	2635	2635	2654	2635	2606	2603	2599	2658	2658	2627	2690	2615	2646	2615	2618	2654	2671	2671	2623	2674	2683	2682	2619	2663	2675	2671	2671	2675	2635	2638	2622	2655	2663	2666	2662	2684	2666	2663	2631	2643	2619	2643	2665	2682	2671	2611	2639	2662	2650	2679	2635	2627	2631	2646	2627	2658	2615	2690	2612	2611	2635	2627	2663	2626	2607	2666	2614	2651	2675	2651	2634	2599	2603	2630	2647	2651	2635	2619	2627	2655	2615	2643	2655	2647	2631	2582	2655	2630	2583	2590	2602	2599	2578	2574	2642	2578	2595	2634	2578	2586	2607	2618	2599	2575	2546	2631	2550	2590	2574	2575	2558	2606	2539	2587	2567	2534	2598	2559	2559	2563	2567	2539	2535	2527	2547	2539	2518	2563	2531	2534	2543	2539	2582	2514	2579	2515	2555	2514	2542	2523	2526	2522	2519	2555	2483	2547	2543	2503	2498	2498	2566	2510	2527	2511	2486	2495	2494	2551	2478	2475	2479	2467	2518	2518	2467	2463	2481	2507	2471	2471	2486	2467	2515	2491	2490	2510	2515	2459	2515	2503	2459	2463	2494	2506	2479	2478	2438	2446	2498	2455	2462	2423	2443	2451	2475	2515	2474	2499	2459	2427	2474	2487	2486	2447	2487	2482	2448	2430	2426	2427	2450	2455	2447	2439	2499	2454	2443	2486	2438	2467	2431	2435	2435	2431	2458	2423	2435	2438	2406	2423	2391	2403	2463	2415	2423	2459	2411	2410	2427	2438	2399	2439	2448	2423	2392	2415	2391	2434	2403	2414	2419	2435	2394	2430	2390	2435	2399	2459	2434	2411	2402	2414	2430	2391	2414	2400	2382	2427	2414	2427	2382	2438	2442	2434	2430	2406	2459	2407	2379	2378	2387	2387	2391	2415	2384	2411	2446	2422	2403	2402	2418	2395	2467	2434	2434	2383	2430	2431	2450	2391	2427	2415	2410	2391	2406	2407	2395	2402	2435	2439	2458	2447	2444	2387	2462	2398	2427	2418	2422	2435	2418	2439	2407	2383	2395	2426	2443	2443	2443	2435	2427	2471	2382	2455	2455	2443	2439	2415	2471	2402	2458	2395	2446	2435	2466	2415	2411	2434	2414	2419	2451	2418	2407	2415	2467	2463	2410	2422	2470	2419	2415	2467	2467	2410	2423	2466	2446	2439	2446	2438	2455	2407	2403	2403	2435	2422	2446	2443	2459	2479	2415	2443	2418	2422	2455	2399	2406	2458	2434	2435	2439	2402	2427	2466	2423	2446	2403	2398	2463	2415	2394	2442	2427	2439	2403	2443	2427	2451	2431	2458	2449	2407	2410	2443	2474	2434	2399	2395	2431	2415	2426	2438	2455	2454	2486	2491	2489	2435	2478	2511	2507	2511	2514	2551	2494	2525	2490	2550	2527	2539	2550	2571	2583	2575	2595	2594	2615	2623	2651	2646	2651	2682	2731	2699	2766	2740	2738	2735	2790	2799	2854	2791	2823	2903	2890	2904	2903	2895	2930	2919	2942	2942	3011	3018	3002	3034	3019	3026	3091	3051	3110	3103	3111	3095	3107	3167	3131	3190	3147	3191	3174	3167	3223	3171	3211	3251	3255	3223	3271	3263	3259	3255	3226	3255	3283	3287	3310	3310	3283	3315	3243	3267	3282	3287	3323	3302	3279	3266	3295	3302	3263	3251	3275	3271	3263	3243	3251	3234	3294	3267	3291	3250	3290	3259	3226	3246	3243	3267	3250	3199	3207	3263	3262	3243	3190	3219	3155	3203	3226	3227	3170	3190	3143	3175	3142	3171	3127	3123	3103	3131	3075	3099	3090	3094	3127	3055	3099	3059	3090	3062	3067	3047	3043	3083	3071	3010	3023	3022	3043	2991	2982	2995	2999	3023	2955	2963	2987	2999	2999	2971	2931	2983	2927	2942	2911	2894	2923	2919	2915	2899	2902	2890	2895	2930	2883	2851	2915	2879	2863	2855	2838	2887	2899	2823	2854	2831	2811	2819	2815	2847	2859	2838	2839	2847	2794	2787	2811	2842	2830	2831	2838	2787	2775	2799	2770	2830	2782	2822	2767	2787	2763	2814	2779	2802	2766	2787	2759	2786	2759	2731	2775	2746	2767	2767	2754	2719	2754	2735	2715	2707	2711	2727	2735	2703	2683	2686	2682	2675	2687	2699	2699	2695	2706	2670	2727	2679	2635	2695	2715	2683	2699	2675	2666	2679	2631	2650	2667	2618	2647	2615	2635	2639	2667	2631	2658	2598	2620	2595	2643	2623	2619	2618	2571	2626	2623	2610	2639	2579	2622	2607	2627	2610	2587	2607	2638	2574	2567	2555	2574	2551	2598	2611	2551	2611	2606	2623	2567	2590	2619	2590	2627	2611	2562	2587	2591	2594	2563	2571	2623	2595	2566	2595	2607	2611	2622	2626	2575	2582	2610	2583	2631	2611	2583	2647	2611	2643	2642	2643	2615	2595	2603	2587	2643	2631	2627	2667	2623	2670	2610	2630	2638	2627	2678	2654	2639	2622	2626	2639	2643	2655	2623	2651	2651	2622	2618	2647	2639	2674	2660	2634	2626	2674	2634	2639	2643	2618	2690	2687	2667	2635	2622	2683	2675	2659	2631	2615	2619	2663	2687	2647	2650	2639	2679	2692	2675	2635	2691	2691	2643	2655	2647	2623	2683	2638	2667	2642	2675	2634	2664	2623	2618	2639	2606	2635	2655	2663	2631	2683	2643	2663	2623	2607	2675	2626	2670	2635	2595	2659	2611	2654	2651	2594	2603	2602	2619	2651	2615	2647	2647	2647	2591	2598	2586	2595	2575	2646	2615	2583	2634	2575	2646	2574	2567	2615	2630	2580	2603	2620	2562	2599	2575	2571	2559	2614	2587	2563	2571	2615	2607	2551	2566	2575	2566	2611	2591	2567	2555	2587	2591	2577	2573	2535	2551	2592	2583	2527	2571	2538	2519	2567	2534	2551	2583	2539	2531	2530	2570	2579	2543	2518	2522	2531	2554	2506	2498	2539	2550	2498	2510	2563	2482	2527	2539	2555	2514	2507	2506	2558	2523	2491	2487	2518	2479	2487	2535	2534	2459	2486	2471	2535	2519	2486	2503	2523	2482	2470	2510	2539	2499	2491	2502	2458	2459	2455	2447	2466	2487	2510	2511	2510	2491	2464	2487	2478	2470	2466	2510	2466	2506	2507	2499	2450	2462	2455	2443	2498	2495	2430	2472	2447	2499	2446	2486	2499	2486	2411	2447	2456	2495	2490	2426	2439	2471	2439	2487	2427	2470	2415	2419	2467	2483	2471	2443	2467	2491	2463	2431	2459	2435	2502	2487	2467	2446	2431	2435	2467	2426	2435	2418	2483	2463	2418	2419	2483	2478	2423	2475	2503	2490	2454	2426	2415	2480	2450	2479	2443	2466	2491	2419	2434	2415	2491	2459	2475	2438	2427	2458	2436	2479	2449	2458	2479	2422	2423	2399	2423	2411	2475	2415	2443	2443	2470	2434	2422	2426	2463	2439	2418	2447	2463	2438	2461	2482	2482	2420	2435	2415	2439	2439	2447	2473	2431	2450	2435	2458	2454	2447	2426	2423	2475	2424	2431	2430	