3146	3166	3091	3134	3082	3083	3135	3148	3063	3063	3091	3047	3047	3055	3103	3039	3043	3043	3031	2999	3015	3031	3019	3006	3019	3047	2987	3023	2967	2999	2987	2990	2947	2979	3018	2971	2954	3000	2991	2935	2967	2946	2918	2991	2979	2943	2979	2923	2891	2959	2898	2899	2950	2883	2878	2923	2863	2899	2867	2862	2899	2846	2907	2842	2822	2819	2863	2819	2838	2817	2807	2799	2871	2879	2795	2807	2839	2770	2759	2771	2771	2819	2743	2763	2747	2803	2723	2790	2791	2738	2755	2727	2755	2730	2715	2711	2731	2694	2767	2763	2687	2747	2678	2710	2683	2694	2747	2707	2742	2683	2674	2719	2715	2687	2679	2722	2735	2659	2690	2654	2690	2658	2731	2679	2706	2715	2655	2731	2647	2670	2649	2691	2706	2727	2726	2703	2703	2671	2651	2655	2651	2643	2675	2655	2682	2654	2719	2715	2690	2691	2704	2671	2674	2703	2738	2690	2730	2675	2662	2686	2742	2727	2671	2699	2738	2731	2727	2743	2663	2683	2686	2663	2735	2710	2730	2711	2715	2744	2714	2706	2757	2743	2679	2751	2703	2691	2711	2690	2767	2750	2715	2703	2711	2743	2754	2755	2699	2739	2774	2706	2734	2691	2747	2691	2715	2734	2706	2691	2735	2703	2702	2735	2703	2767	2783	2755	2731	2714	2698	2702	2707	2759	2759	2731	2735	2751	2699	2726	2703	2739	2763	2738	2715	2758	2683	2706	2683	2702	2680	2698	2743	2706	2738	2699	2726	2674	2738	2686	2711	2666	2663	2655	2723	2747	2727	2674	2662	2718	2715	2647	2695	2686	2643	2667	2702	2687	2639	2651	2631	2691	2646	2679	2670	2631	2635	2638	2615	2647	2618	2622	2675	2662	2614	2607	2627	2626	2678	2666	2674	2667	2598	2592	2631	2603	2615	2594	2647	2655	2611	2590	2591	2619	2575	2574	2571	2598	2582	2590	2583	2595	2567	2559	2631	2611	2618	2559	2547	2555	2559	2534	2587	2599	2578	2542	2551	2571	2542	2571	2522	2530	2591	2539	2583	2542	2566	2530	2582	2494	2566	2495	2495	2494	2526	2542	2490	2471	2551	2511	2483	2490	2511	2550	2539	2474	2491	2519	2523	2463	2534	2487	2526	2483	2491	2459	2447	2442	2519	2463	2503	2490	2463	2467	2506	2486	2443	2451	2471	2419	2438	2498	2487	2483	2443	2463	2402	2451	2406	2475	2430	2439	2475	2426	2435	2426	2395	2431	2423	2431	2407	2466	2394	2462	2386	2414	2462	2387	2447	2415	2435	2454	2401	2458	2390	2395	2387	2378	2383	2382	2407	2419	2422	2442	2439	2375	2419	2366	2391	2447	2443	2395	2371	2431	2414	2446	2435	2387	2399	2395	2431	2435	2418	2383	2355	2359	2371	2363	2407	2411	2430	2443	2403	2375	2435	2418	2387	2366	2383	2350	2426	2434	2394	2351	2347	2398	2359	2390	2358	2351	2358	2414	2375	2391	2430	2435	2423	2402	2347	2432	2355	2419	2391	2391	2351	2346	2428	2378	2355	2374	2343	2354	2391	2426	2374	2350	2422	2399	2423	2411	2355	2407	2389	2339	2338	2362	2351	2343	2402	2334	2351	2383	2393	2418	2343	2343	2403	2351	2351	2335	2331	2411	2395	2347	2327	2387	2403	2410	2335	2338	2382	2362	2419	2347	2410	2422	2406	2402	2374	2359	2403	2362	2411	2439	2411	2379	2371	2390	2456	2386	2467	2431	2426	2419	2466	2506	2507	2463	2507	2479	2574	2530	2519	2590	2523	2579	2567	2638	2651	2687	2647	2691	2663	2675	2699	2706	2767	2766	2743	2831	2854	2839	2855	2830	2883	2894	2947	2903	2906	2971	2963	3030	3063	3051	3099	3063	3055	3079	3166	3118	3179	3203	3147	3231	3195	3202	3230	3291	3291	3263	3335	3338	3319	3319	3314	3323	3375	3371	3423	3427	3354	3418	3411	3451	3419	3418	3430	3443	3504	3483	3451	3503	3507	3458	3459	3539	3534	3531	3474	3543	3466	3543	3478	3535	3530	3547	3559	3507	3483	3523	3535	3531	3539	3483	3470	3526	3478	3451	3486	3454	3450	3506	3443	3503	3502	3463	3431	3475	3439	3467	3454	3443	3411	3435	3431	3435	3439	3387	3407	3367	3403	3346	3414	3339	3410	3366	3351	3386	3303	3319	3346	3282	3293	3330	3339	3315	3303	3254	3267	3235	3247	3258	3279	3227	3238	3226	3274	3227	3186	3258	3238	3203	3198	3238	3182	3154	3195	3191	3135	3143	3146	3107	3147	3175	3091	3147	3106	3155	3119	3091	3103	3063	3078	3106	3078	3110	3062	3087	3030	3015	3022	3050	3059	2999	3015	3055	3023	3043	2995	2959	3030	3007	2951	2955	2951	2954	2931	2931	2987	2923	2954	2975	2919	2970	2911	2891	2899	2930	2918	2943	2918	2950	2947	2899	2911	2907	2918	2862	2927	2850	2842	2891	2903	2895	2878	2838	2883	2827	2818	2874	2878	2867	2811	2790	2815	2818	2838	2823	2771	2770	2775	2775	2827	2759	2807	2750	2734	2798	2812	2790	2754	2775	2759	2750	2747	2775	2743	2723	2775	2763	2754	2711	2763	2746	2687	2755	2763	2739	2718	2691	2750	2699	2747	2742	2719	2687	2742	2667	2667	2658	2751	2678	2738	2699	2659	2739	2647	2718	2651	2719	2691	2686	2741	2707	2683	2682	2694	2698	2727	2659	2706	2694	2664	2671	2735	2672	2750	2727	2658	2731	2726	2694	2727	2735	2727	2719	2750	2743	2742	2691	2707	2687	2763	2703	2763	2755	2686	2746	2687	2751	2766	2722	2695	2759	2755	2775	2742	2726	2727	2747	2759	2715	2703	2774	2755	2783	2714	2719	2706	2775	2755	2731	2719	2722	2735	2758	2734	2714	2714	2755	2755	2719	2767	2771	2711	2763	2771	2730	2734	2787	2775	2771	2779	2779	2786	2767	2787	2723	2707	2771	2742	2779	2707	2738	2711	2751	2715	2747	2738	2771	2787	2759	2711	2706	2711	2707	2719	2766	2767	2689	2682	2763	2678	2735	2683	2715	2763	2698	2683	2739	2723	2691	2671	2699	2667	2743	2719	2737	2742	2658	2662	2699	2703	2683	2723	2703	2678	2686	2678	2642	2683	2635	2675	2675	2642	2715	2615	2627	2634	2662	2691	2639	2643	2607	2607	2627	2629	2658	2606	2659	2642	2634	2623	2598	2638	2607	2659	2586	2622	2619	2578	2582	2579	2579	2647	2631	2642	2563	2643	2639	2563	2615	2615	2623	2606	2579	2614	2586	2602	2607	2623	2574	2602	2579	2547	2606	2531	2530	2571	2603	2602	2579	2538	2551	2590	2598	2547	2534	2534	2503	2507	2534	2535	2510	2510	2586	2579	2547	2547	2559	2551	2523	2559	2471	2555	2515	2486	2511	2491	2482	2491	2482	2524	2523	2547	2471	2495	2539	2471	2535	2462	2511	2502	2483	2463	2526	2499	2526	2518	2491	2443	2527	2511	2434	2514	2523	2475	2438	2514	2490	2446	2479	2471	2482	2459	2446	2434	2435	2450	2426	2510	2507	2442	2467	2490	2482	2499	2494	2444	2499	2467	2467	2487	2431	2438	2418	2462	2415	2426	2435	2426	2414	2423	2426	2460	2442	2423	2418	2471	2427	2475	2415	2454	2455	2411	2431	2462	2430	2410	2459	2455	2442	2395	2423	2462	2459	2462	2431	2450	2407	2403	2431	2459	2430	2390	2399	2436	2462	2451	2443	2407	2466	2423	2422	2427	2386	2382	2462	2374	2419	2450	2459	2435	2434	2427	2419	2455	2367	2431	2435	2412	2379	2383	2375	2379	2463	2373	2443	2463	2390	2403	2395	2387	2414	2423	2423	2462	2426	2414	2483	2495	2427	2495	2455	2459	2483	2527	2491	2486	2499	2503	2587	2547	2579	2546	2571	2599	2654	2662	2675	2678	2699	2742	2742	2683	2762	2798	2754	2754	2843	2799	2839	2852	2874	2870	2859	2935	2959	2995	2970	2950	2982	3002	2990	3063	3075	3107	3111	3075	3110	3158	3111	3143	3158	3211	3215	3194	3199	3203	3274	3222	3299	3294	3283	3311	3294	3274	3359	3302	3387	3355	3363	3391	3359	3391	3439	3428	3423	3362	3375	3471	3399	3391	3431	3463	3391	3431	3415	3447	3411	3431	3471	3479	3423	3471	3431	3466	3462	3487	3491	3442	3459	3455	3458	3458	3399	3431	3471	3463	3447	3395	3375	3379	3431	3410	3443	3419	3427	3379	3359	3411	3347	3334	3335	3379	3331	3391	3370	3315	3375	3367	3343	3363	3303	3334	3350	3338	3311	3283	3323	3290	3239	3286	3287	3255	3218	3275	3230	3255	3230	3227	3195	3254	3202	3210	3179	3159	3211	3146	3206	3191	3131	3190	3131	3147	3174	3135	3102	3119	3099	3122	3091	3086	3106	3143	3079	3082	3090	3115	3050	3054	3039	3043	3023	3091	3070	3015	3055	3006	3058	2999	3056	3007	3051	3019	3010	2999	2963	3023	3035	3023	2955	3015	2947	2963	2990	3003	2936	2971	2945	2982	2983	2922	2971	2918	2946	2911	2911	2959	2902	2907	2907	2883	2858	2871	2934	2922	2911	2847	2895	2843	2835	2894	2867	2882	2914	2822	2886	2874	2823	2871	2799	2863	2827	2843	2775	2787	2771	2843	2763	2810	2755	2767	2774	2742	2743	2754	2775	2727	2722	2711	2786	2719	2703	2719	2743	2772	2723	2719	2755	2742	2691	2726	2695	2715	2710	2731	2751	2687	2726	2747	2663	2739	2719	2714	2651	2686	2682	2647	2698	2659	2719	2663	2702	2663	2719	2639	2702	2651	2684	2686	2695	2714	2663	2647	2691	2695	2694	2710	2647	2659	2691	2698	2647	2651	2695	2659	2631	2659	2711	2703	2666	2679	2659	2715	2703	2714	2658	2699	2654	2651	2651	2651	2695	2662	2654	2691	2734	2667	2719	2727	2707	2699	2699	2707	2691	2663	2654	2686	2710	2691	2735	2686	2659	2678	2742	2686	2715	2691	2690	2702	2734	2694	2671	2715	2719	2678	2763	2672	2683	2679	2735	2671	2742	2686	2686	2747	2730	2714	2702	2738	2680	2679	2667	2722	2686	2663	2695	2679	2715	2695	2723	2719	2679	2715	2703	2723	2698	2660	2671	2735	2710	2683	2659	2667	2690	2654	2711	2723	2679	2702	2722	2678	2706	2710	2643	2695	2630	2663	2642	2691	2691	2679	2682	2659	2675	2658	2678	2627	2615	2695	2663	2670	2635	2682	2618	2684	2666	2670	2606	2678	2674	2595	2647	2610	2591	2611	2603	2662	2635	2622	2650	2619	2563	2646	2603	2602	2567	2571	2572	2606	2563	2555	2595	2607	2583	2554	2602	2543	2555	2583	2622	2579	2543	2551	2539	2531	2575	2546	2587	2583	2599	2563	2547	2590	2579	2571	2535	2526	2528	2570	2570	2518	2563	2555	2590	2554	2579	2498	2543	2563	2566	2538	2515	2559	2546	2558	2479	2486	2546	2551	2475	2551	2495	2495	2499	2503	2475	2543	2522	2491	2535	2478	2527	2451	2523	2531	2527	2458	2467	2523	2494	2462	2446	2487	2455	2527	2498	2490	2462	2519	2518	2519	2439	2495	2514	2479	2459	2467	2499	2470	2498	2446	2466	2506	2467	2439	2495	2465	2423	2447	2486	2463	2434	2463	2430	2427	2414	2439	2422	2479	2494	2431	2470	2459	2495	2423	2491	2407	2494	2463	2451	2454	2422	2415	2431	2479	2470	2431	2491	2407	2430	2430	2450	2486	2462	2427	2467	2431	2411	2434	2398	2415	2443	2487	2486	2470	2470	2495	2422	2455	2443	2467	2410	2494	2459	2471	2479	2431	2458	2491	2403	2410	2407	2447	2422	2483	2406	2399	2418	2407	2423	2470	2470	2427	2486	2423	2475	2419	2503	2431	2414	2406	2451	2479	2487	2470	2435	2439	2439	2495	2427	2490	2487	2415	2467	2487	2458	2415	2398	2406	2458	2470	2427	2431	2439	2479	2411	2407	2447	2442	2395	2403	2479	2498	2427	2483	2474	2462	2415	2447	2470	2407	2471	2490	2487	2451	2447	2419	2466	2462	2479	2491	2494	2458	2479	2495	2430	2430	2483	2454	2455	2444	2507	2478	2531	2535	2487	2503	2567	2583	2563	2551	2543	2598	2615	2612	2595	2603	2655	2663	2687	2666	2723	2699	2679	2770	2767	2802	2779	2823	2775	2842	2866	2843	2875	2847	2902	2915	2926	2942	2943	3022	2971	3003	3007	3043	3119	3071	3070	3095	3175	3143	3135	3203	3207	3175	3195	3202	3223	3291	3307	3302	3279	3291	3282	3323	3311	3343	3403	3378	3375	3414	3411	3363	3422	3422	3443	3407	3427	3458	3455	3447	3451	3458	3483	3442	3494	3463	3463	3503	3499	3487	3447	3491	3463	3511	3487	3527	3515	3455	3474	3511	3479	3471	3455	3518	3498	3495	3451	3514	3503	3455	3419	3479	3439	3411	3435	3379	3451	3399	3455	3418	3387	3423	3439	3371	3390	3367	3431	3371	3387	3383	3375	3362	3331	3330	3362	3307	3307	3315	3295	3298	3315	3314	3263	3259	3290	3283	3247	3251	3307	3215	3283	3274	3238	3235	3210	3195	3171	3186	3156	3170	3167	3183	3207	3207	3203	3199	3190	3171	3155	3180	3179	3154	3162	3151	3115	3095	3098	3079	3067	