2999	2991	2987	2983	2995	2979	2987	2987	3003	2987	2991	2967	2942	2955	2959	2927	2922	2959	2926	2967	2910	2955	2959	2959	2955	2942	2883	2907	2882	2875	2891	2887	2945	2906	2935	2912	2859	2875	2918	2843	2875	2878	2906	2883	2899	2887	2907	2859	2882	2823	2811	2803	2870	2810	2855	2799	2850	2811	2807	2807	2819	2794	2838	2807	2807	2774	2803	2747	2798	2822	2734	2751	2791	2731	2783	2726	2767	2751	2751	2759	2715	2774	2715	2695	2726	2755	2739	2695	2699	2694	2751	2678	2723	2674	2720	2671	2662	2738	2662	2691	2702	2715	2698	2694	2691	2719	2662	2698	2695	2646	2707	2663	2654	2651	2670	2643	2703	2654	2658	2715	2707	2647	2702	2674	2691	2655	2647	2639	2651	2687	2706	2703	2676	2695	2655	2670	2647	2663	2663	2675	2716	2671	2670	2690	2707	2678	2667	2674	2726	2674	2671	2718	2714	2702	2690	2667	2678	2707	2719	2731	2682	2695	2679	2702	2739	2715	2695	2673	2673	2711	2700	2691	2707	2739	2683	2739	2722	2678	2675	2675	2743	2715	2683	2739	2739	2743	2687	2707	2690	2703	2734	2715	2691	2683	2738	2711	2682	2690	2731	2735	2687	2727	2683	2714	2707	2714	2686	2747	2683	2666	2691	2715	2726	2667	2683	2655	2698	2727	2727	2715	2674	2662	2667	2719	2687	2730	2711	2691	2699	2647	2715	2691	2654	2650	2683	2635	2639	2642	2666	2675	2650	2682	2663	2682	2655	2631	2642	2611	2671	2635	2631	2675	2674	2679	2647	2674	2610	2599	2590	2634	2643	2631	2631	2622	2575	2583	2579	2583	2639	2631	2582	2575	2618	2575	2593	2610	2603	2642	2599	2571	2583	2578	2587	2599	2593	2556	2554	2606	2543	2602	2607	2574	2542	2571	2551	2523	2594	2587	2571	2538	2547	2523	2499	2523	2554	2515	2579	2510	2527	2555	2547	2498	2563	2543	2511	2495	2570	2550	2559	2563	2523	2470	2490	2487	2515	2463	2487	2499	2542	2478	2502	2519	2534	2535	2475	2463	2463	2523	2494	2459	2467	2482	2494	2447	2483	2479	2482	2434	2435	2438	2479	2467	2419	2486	2499	2494	2495	2446	2458	2467	2487	2426	2407	2479	2491	2487	2459	2471	2471	2431	2399	2415	2426	2463	2462	2430	2474	2459	2455	2443	2475	2411	2459	2406	2455	2427	2415	2446	2447	2458	2442	2430	2415	2411	2424	2444	2427	2399	2398	2403	2395	2468	2464	2454	2427	2390	2419	2403	2402	2451	2447	2407	2458	2455	2443	2438	2458	2454	2439	2418	2408	2451	2394	2439	2427	2462	2391	2443	2407	2447	2439	2433	2398	2446	2430	2411	2403	2426	2422	2443	2407	2455	2418	2415	2398	2395	2447	2403	2451	2439	2463	2450	2442	2402	2443	2399	2426	2458	2395	2427	2403	2419	2446	2447	2415	2390	2448	2387	2447	2463	2458	2402	2419	2451	2402	2407	2463	2414	2471	2455	2446	2447	2459	2411	2459	2451	2438	2443	2383	2447	2458	2395	2414	2403	2407	2438	2446	2462	2454	2427	2450	2395	2430	2383	2399	2419	2383	2407	2451	2403	2434	2406	2403	2419	2435	2399	2395	2411	2478	2435	2462	2450	2414	2418	2459	2439	2427	2475	2427	2450	2514	2455	2471	2482	2495	2538	2504	2543	2510	2582	2526	2566	2622	2571	2579	2623	2591	2659	2667	2698	2695	2723	2734	2758	2767	2715	2779	2779	2778	2835	2866	2810	2862	2890	2923	2931	2923	2939	2963	2991	2986	3039	3010	3030	3019	3039	3099	3111	3118	3139	3115	3187	3166	3154	3210	3246	3195	3247	3242	3219	3231	3239	3290	3302	3340	3350	3295	3335	3363	3315	3379	3379	3391	3378	3387	3387	3371	3387	3379	3363	3367	3427	3391	3447	3418	3383	3403	3419	3387	3451	3394	3443	3463	3440	3435	3411	3379	3391	3395	3451	3371	3379	3403	3370	3423	3422	3387	3362	3390	3355	3399	3383	3343	3334	3382	3343	3374	3315	3339	3315	3323	3339	3319	3319	3275	3350	3279	3271	3267	3295	3263	3250	3242	3230	3267	3263	3207	3259	3207	3203	3227	3190	3222	3163	3207	3191	3167	3162	3186	3143	3154	3164	3127	3118	3111	3159	3167	3131	3091	3099	3107	3083	3119	3067	3087	3071	3063	3087	3082	3066	3030	3047	3039	3071	3011	3019	3030	3035	2994	3003	3007	2991	3015	3019	2987	3019	3026	2975	2990	2999	2994	2966	2999	2950	2951	2982	2995	2915	2967	2950	2975	2950	2911	2943	2939	2902	2898	2930	2926	2883	2875	2899	2906	2882	2859	2858	2871	2907	2894	2840	2855	2895	2846	2875	2834	2866	2834	2899	2875	2855	2846	2851	2814	2819	2867	2818	2858	2786	2835	2790	2847	2803	2818	2835	2767	2770	2774	2775	2755	2755	2803	2766	2731	2802	2779	2735	2771	2770	2707	2759	2719	2726	2699	2755	2718	2758	2738	2711	2711	2675	2695	2666	2691	2739	2690	2663	2722	2687	2695	2691	2702	2711	2691	2671	2662	2642	2723	2667	2635	2679	2670	2634	2638	2686	2639	2679	2631	2683	2651	2683	2651	2687	2700	2646	2687	2682	2674	2635	2647	2643	2647	2675	2631	2658	2655	2663	2642	2635	2674	2639	2638	2703	2659	2710	2662	2683	2674	2663	2691	2638	2634	2675	2639	2660	2694	2674	2663	2687	2646	2638	2659	2695	2675	2651	2667	2670	2682	2662	2659	2699	2686	2683	2662	2671	2683	2723	2715	2714	2659	2687	2678	2663	2734	2706	2678	2738	2731	2691	2691	2699	2699	2727	2695	2743	2663	2690	2723	2670	2694	2727	2691	2715	2675	2675	2681	2691	2722	2678	2734	2671	2655	2663	2718	2719	2679	2711	2683	2651	2655	2662	2686	2699	2694	2651	2710	2678	2655	2658	2710	2647	2622	2691	2707	2639	2642	2643	2643	2686	2675	2655	2650	2698	2645	2655	2675	2663	2631	2691	2655	2643	2639	2607	2655	2678	2603	2642	2667	2651	2611	2602	2651	2614	2610	2654	2639	2591	2615	2579	2610	2591	2587	2611	2595	2582	2602	2574	2631	2603	2595	2562	2578	2623	2579	2627	2626	2606	2583	2594	2595	2559	2610	2547	2575	2615	2547	2562	2567	2563	2551	2522	2543	2603	2575	2602	2522	2531	2559	2558	2558	2543	2563	2566	2514	2534	2494	2571	2539	2543	2559	2502	2499	2510	2490	2499	2531	2535	2495	2478	2543	2515	2538	2470	2507	2523	2514	2531	2483	2458	2490	2531	2518	2510	2470	2454	2511	2503	2466	2483	2458	2511	2459	2502	2483	2443	2491	2442	2439	2426	2467	2435	2498	2502	2506	2431	2463	2423	2435	2423	2486	2423	2494	2423	2450	2435	2411	2471	2423	2471	2458	2419	2470	2447	2459	2486	2415	2414	2430	2439	2422	2407	2479	2458	2415	2443	2403	2414	2419	2399	2395	2463	2403	2430	2474	2408	2435	2442	2423	2423	2427	2403	2462	2431	2419	2402	2395	2442	2478	2439	2447	2430	2462	2418	2406	2451	2398	2463	2430	2434	2431	2399	2455	2455	2406	2410	2455	2446	2462	2403	2431	2414	2475	2451	2479	2443	2435	2459	2447	2403	2482	2443	2411	2434	2423	2470	2475	2455	2431	2471	2458	2426	2478	2486	2448	2455	2471	2427	2434	2427	2471	2475	2431	2467	2439	2466	2419	2419	2451	2431	2423	2422	2423	2435	2423	2462	2450	2419	2474	2466	2460	2411	2411	2435	2489	2447	2471	2495	2434	2419	2464	2482	2418	2474	2482	2418	2434	2406	2414	2423	2458	2450	2426	2451	2463	2467	2443	2438	2467	2446	2426	2447	2439	2463	2415	2426	2417	2486	2414	2427	2447	2439	2451	2403	2463	2479	2450	2415	2431	2407	2411	2498	2459	2435	2430	2438	2475	2470	2510	2467	2462	2487	2535	2515	2538	2486	2559	2566	2555	2531	2590	2587	2575	2583	2599	2626	2659	2690	2626	2667	2647	2699	2691	2683	2750	2763	2766	2747	2754	2775	2839	2818	2831	2838	2870	2911	2879	2940	2967	2923	2991	2963	3022	3019	3031	3067	3070	3039	3115	3087	3118	3150	3103	3151	3182	3159	3191	3231	3255	3235	3247	3267	3266	3303	3278	3259	3331	3290	3359	3318	3303	3323	3343	3323	3350	3390	3379	3378	3386	3407	3427	3363	3382	3375	3426	3367	3383	3399	3419	3423	3402	3427	3383	3426	3431	3439	3379	3379	3403	3414	3367	3411	3395	3367	3390	3351	3386	3403	3390	3399	3370	3390	3335	3311	3354	3327	3335	3358	3278	3351	3270	3331	3290	3311	3287	3247	3302	3290	3267	3227	3311	3271	3231	3282	3238	3235	3211	3247	3223	3175	3174	3187	3227	3183	3207	3195	3182	3123	3111	3135	3135	3111	3107	3159	3150	3154	3091	3134	3071	3083	3103	3067	3051	3043	3030	3038	3022	3047	3031	3014	2998	3039	3015	2975	3042	3031	3011	3015	2971	2970	3022	2951	2994	2963	2983	2971	2935	2930	2979	2969	2915	2903	2918	2987	2939	2943	2883	2946	2918	2939	2907	2891	2894	2870	2922	2898	2859	2847	2903	2847	2887	2854	2899	2871	2859	2883	2811	2830	2835	2863	2843	2810	2851	2791	2850	2795	2795	2779	2783	2779	2839	2830	2795	2794	2795	2807	2787	2807	2779	2763	2754	2743	2763	2766	2738	2722	2710	2758	2735	2743	2699	2715	2739	2716	2739	2739	2687	2727	2691	2710	2674	2699	2699	2651	2698	2666	2651	2639	2647	2635	2691	2639	2687	2642	2618	2654	2606	2639	2615	2619	2595	2610	2587	2595	2602	2606	2622	2663	2631	2607	2630	2579	2635	2607	2613	2583	2579	2610	2623	2627	2610	2579	2591	2631	2640	2638	2619	2567	2615	2594	2587	2635	2583	2607	2594	2582	2595	2615	2606	2619	2647	2611	2623	2595	2571	2595	2607	2630	2607	2598	2579	2591	2635	2606	2639	2627	2591	2611	2607	2586	2635	2623	2646	2655	2646	2635	2599	2638	2599	2667	2619	2639	2619	2631	2607	2678	2673	2611	2662	2638	2658	2662	2622	2670	2607	2630	2607	2662	2599	2608	2630	2631	2675	2622	2611	2610	2603	2659	2626	2674	2674	2611	2654	2644	2643	2599	2618	2655	2615	2593	2647	2655	2595	2602	2595	2590	2582	2638	2647	2631	2630	2643	2582	2615	2623	2646	2598	2638	2583	2599	2566	2615	2574	2575	2571	2579	2595	2627	2607	2558	2550	2599	2623	2612	2542	2607	2559	2571	2610	2574	2559	2550	2554	2583	2555	2558	2559	2555	2538	2551	2586	2591	2523	2578	2527	2519	2590	2559	2555	2511	2523	2499	2575	2571	2542	2502	2535	2519	2547	2494	2511	2479	2530	2479	2499	2535	2523	2546	2478	2499	2508	2530	2462	2478	2519	2479	2490	2463	2503	2471	2466	2479	2491	2483	2491	2439	2451	2439	2483	2463	2483	2466	2511	2458	2498	2427	2426	2434	2415	2447	2463	2415	2419	2451	2430	2467	2463	2447	2419	2471	2467	2395	2451	2459	2407	2414	2451	2387	2446	2411	2431	2415	2403	2379	2387	2430	2415	2446	2375	2403	2382	2439	2443	2383	2415	2416	2442	2371	2439	2411	2438	2363	2423	2415	2419	2415	2403	2403	2367	2403	2415	2362	2367	2338	2363	2402	2395	2407	2366	2370	2346	2366	2339	2395	2394	2326	2379	2374	2379	2391	2395	2335	2354	2314	2347	2312	2371	2358	2359	2318	2315	2375	2366	2383	2346	2311	2331	2347	2327	2326	2326	2390	2331	2375	2310	2382	2376	2339	2326	2382	2352	2378	2378	2378	2335	2311	2323	2314	2331	2351	2318	2359	2327	2315	2351	2327	2387	2391	2331	2343	2335	2331	2370	2367	2358	2355	2335	2374	2311	2307	2351	2343	2302	2347	2311	2310	2334	2335	2314	2362	2334	2371	2378	2339	2362	2315	2310	2335	2331	2363	2350	2374	2395	2326	2338	2326	2327	2290	2299	2354	2307	2318	2366	2351	2299	2310	2347	2371	2362	2306	2343	2330	2363	2314	2307	2354	2331	2366	2354	2299	2287	2327	2336	2335	2347	2294	2306	2318	2338	2298	2335	2351	2363	2362	2358	2299	2359	2323	2327	2318	2371	2338	2295	2319	2335	2379	2347	2348	2315	2386	2391	2375	2375	2347	2395	2423	2382	2442	2394	2379	2419	2430	2415	2470	2502	2439	2478	2542	2531	2487	2506	2531	2586	2538	2609	2623	2599	2618	2607	2639	2651	2679	2691	2727	2710	2778	2743	2759	2774	2811	2799	2871	2890	2859	2862	2894	2907	2911	2974	2931	2954	2967	2991	3019	3006	3055	3075	3106	3071	3079	3119	3147	3155	3175	3150	3143	3191	3207	3207	3214	3179	3219	3255	3286	3238	3238	3231	3291	3287	3259	3291	3283	3287	3279	3251	3307	3306	3282	3342	3299	3294	3283	3287	3346	3271	3303	3339	3283	3323	3335	3287	3275	3311	3298	3327	3278	3307	3317	3290	3251	3235	3279	3275	3263	3275	3222	3267	3223	3207	3235	3255	3238	3235	3247	3223	3231	3203	3163	3167	3211	3158	3174	