2431	2403	2394	2431	2427	2419	2462	2435	2398	2415	2387	2415	2407	2442	2403	2415	2438	2395	2415	2435	2395	2430	2395	2414	2434	2451	2399	2410	2438	2431	2415	2426	2407	2442	2427	2391	2391	2403	2443	2423	2399	2440	2422	2422	2426	2423	2419	2407	2403	2438	2451	2450	2394	2438	2466	2455	2455	2455	2418	2443	2414	2435	2423	2444	2411	2458	2462	2443	2411	2427	2430	2450	2447	2418	2423	2427	2415	2411	2459	2450	2399	2443	2419	2407	2458	2467	2415	2415	2435	2435	2447	2434	2455	2435	2411	2463	2428	2458	2427	2406	2442	2431	2423	2442	2455	2423	2423	2415	2417	2411	2438	2435	2430	2403	2419	2423	2438	2423	2423	2415	2430	2463	2458	2439	2471	2431	2458	2478	2491	2447	2499	2491	2511	2515	2482	2507	2514	2546	2559	2562	2527	2546	2551	2554	2574	2619	2595	2595	2638	2642	2619	2667	2647	2687	2679	2683	2727	2727	2730	2718	2734	2764	2782	2754	2766	2779	2810	2823	2823	2839	2866	2835	2843	2883	2862	2867	2891	2943	2919	2898	2951	2947	2947	2955	2967	2971	2954	2963	3015	2995	3038	3007	3023	3027	3054	3035	3031	3050	3071	3026	3067	3059	3066	3083	3103	3063	3102	3075	3100	3083	3111	3123	3139	3111	3099	3112	3110	3146	3107	3134	3139	3131	3115	3122	3103	3118	3091	3155	3123	3134	3111	3123	3103	3147	3118	3107	3103	3102	3079	3098	3090	3102	3115	3111	3079	3074	3099	3067	3067	3082	3126	3090	3091	3095	3067	3075	3090	3051	3066	3043	3034	3043	3047	3063	3023	3035	3028	3035	3027	3022	3038	3007	3039	3007	3006	2998	2991	3034	3003	2974	2979	2959	3003	2966	2975	2978	2991	2955	2986	2955	2951	2954	2947	2982	2943	2943	2931	2915	2935	2975	2943	2955	2939	2955	2946	2927	2939	2962	2911	2898	2939	2907	2927	2915	2911	2907	2902	2895	2895	2910	2887	2882	2870	2863	2931	2887	2902	2902	2875	2907	2870	2863	2870	2863	2859	2847	2858	2856	2859	2839	2838	2843	2877	2818	2826	2867	2811	2842	2827	2835	2827	2823	2839	2791	2827	2823	2802	2819	2784	2819	2807	2799	2803	2778	2823	2779	2770	2791	2791	2791	2775	2791	2783	2807	2787	2779	2791	2755	2767	2746	2766	2779	2767	2786	2795	2743	2766	2754	2771	2767	2763	2759	2739	2738	2730	2735	2770	2731	2771	2743	2727	2787	2755	2755	2734	2746	2750	2759	2739	2747	2731	2747	2775	2727	2767	2763	2794	2775	2750	2755	2755	2739	2723	2746	2752	2740	2735	2727	2731	2755	2762	2746	2746	2775	2734	2766	2751	2732	2767	2742	2735	2762	2746	2771	2735	2758	2727	2731	2751	2723	2755	2759	2747	2747	2723	2732	2751	2738	2742	2759	2730	2755	2746	2738	2741	2743	2731	2719	2763	2747	2742	2730	2750	2703	2739	2731	2727	2727	2743	2715	2710	2738	2747	2714	2699	2710	2707	2739	2751	2747	2715	2743	2746	2734	2706	2746	2731	2735	2699	2751	2719	2747	2747	2702	2691	2711	2719	2719	2720	2710	2711	2719	2726	2719	2719	2719	2698	2726	2719	2694	2695	2719	2699	2678	2714	2683	2675	2699	2691	2659	2671	2659	2671	2695	2698	2707	2695	2683	2699	2671	2687	2691	2655	2679	2651	2675	2650	2643	2663	2687	2647	2680	2671	2647	2646	2663	2659	2654	2639	2694	2648	2630	2614	2658	2675	2635	2658	2611	2607	2614	2655	2643	2658	2631	2603	2611	2655	2627	2603	2598	2611	2603	2615	2623	2599	2595	2587	2595	2587	2595	2599	2567	2606	2575	2598	2575	2576	2615	2567	2575	2570	2591	2559	2583	2582	2558	2559	2575	2576	2555	2574	2559	2574	2551	2543	2561	2551	2567	2546	2594	2538	2554	2563	2547	2558	2542	2523	2535	2523	2522	2562	2571	2550	2531	2571	2567	2523	2555	2547	2514	2542	2554	2518	2530	2526	2506	2510	2539	2511	2499	2514	2534	2507	2542	2511	2499	2518	2530	2503	2526	2491	2519	2508	2498	2511	2514	2467	2491	2475	2495	2479	2499	2503	2483	2466	2483	2482	2454	2502	2494	2466	2498	2431	2459	2487	2442	2450	2451	2475	2443	2448	2455	2471	2454	2467	2434	2475	2443	2454	2455	2450	2435	2430	2446	2435	2427	2443	2423	2427	2447	2423	2422	2438	2407	2439	2431	2435	2431	2423	2414	2407	2419	2414	2424	2423	2443	2386	2415	2423	2394	2411	2394	2426	2423	2402	2427	2387	2411	2407	2392	2383	2395	2395	2414	2411	2427	2418	2403	2405	2407	2439	2398	2394	2414	2399	2387	2414	2414	2414	2382	2391	2378	2391	2418	2382	2379	2402	2415	2403	2415	2405	2386	2399	2419	2391	2419	2387	2399	2407	2375	2414	2407	2390	2382	2390	2410	2379	2395	2386	2395	2375	2378	2411	2371	2363	2370	2378	2394	2396	2407	2371	2403	2407	2383	2411	2379	2386	2383	2415	2390	2407	2403	2362	2375	2383	2367	2367	2386	2419	2396	2395	2411	2379	2392	2395	2358	2419	2387	2371	2379	2394	2391	2391	2390	2403	2367	2402	2423	2387	2411	2382	2406	2406	2387	2398	2399	2407	2370	2367	2403	2367	2362	2382	2384	2399	2374	2418	2403	2411	2359	2363	2395	2390	2410	2391	2378	2399	2386	2363	2379	2387	2351	2383	2370	2395	2407	2395	2396	2400	2387	2370	2378	2394	2383	2407	2370	2398	2355	2371	2395	2387	2379	2395	2391	2378	2371	2374	2392	2394	2358	2355	2386	2403	2403	2347	2375	2374	2379	2379	2383	2390	2358	2390	2395	2374	2347	2367	2387	2360	2379	2366	2383	2366	2406	2374	2370	2370	2403	2370	2391	2407	2395	2414	2387	2354	2418	2375	2367	2386	2383	2382	2363	2407	2407	2371	2410	2359	2411	2379	2383	2407	2394	2379	2395	2390	2387	2403	2374	2403	2386	2403	2395	2383	2375	2379	2367	2396	2371	2403	2391	2395	2387	2399	2374	2386	2351	2403	2395	2415	2382	2384	2359	2379	2379	2351	2391	2391	2410	2367	2355	2354	2355	2375	2339	2356	2379	2355	2342	2327	2358	2355	2350	2331	2386	2359	2379	2359	2374	2335	2327	2347	2374	2347	2327	2327	2331	2362	2327	2354	2315	2323	2343	2327	2338	2306	2359	2339	2351	2347	2338	2339	2339	2351	2327	2335	2351	2375	2391	2375	2335	2355	2318	2331	2339	2394	2382	2387	2358	2362	2382	2363	2355	2382	2403	2370	2402	2407	2407	2430	2443	2435	2450	2487	2451	2463	2496	2495	2507	2507	2511	2507	2527	2535	2547	2535	2590	2591	2591	2596	2631	2603	2671	2615	2683	2638	2679	2695	2687	2694	2739	2727	2779	2754	2754	2815	2794	2783	2790	2830	2827	2842	2851	2855	2887	2891	2903	2919	2939	2930	2948	2966	2958	2978	2967	2975	3011	2990	3026	3027	3018	3043	3066	3063	3039	3082	3063	3079	3119	3122	3106	3091	3110	3118	3118	3114	3114	3127	3130	3110	3126	3155	3159	3151	3147	3167	3163	3179	3167	3207	3155	3178	3184	3179	3175	3158	3194	3162	3203	3183	3154	3182	3181	3187	3195	3171	3163	3178	3171	3178	3190	3182	3174	3159	3159	3187	3183	3171	3163	3163	3179	3139	3143	3135	3146	3151	3143	3147	3143	3155	3159	3119	3132	3127	3134	3143	3115	3087	3119	3091	3070	3083	3063	3079	3071	3071	3096	3095	3063	3043	3062	3082	3071	3063	3087	3043	3040	3023	3034	3063	3020	3059	3034	3019	3038	3010	3039	3035	3018	3006	3011	3002	2991	3027	2958	2974	3007	2970	3011	2955	2971	2970	2966	2946	2958	2954	2923	2975	2951	2959	2935	2951	2923	2939	2956	2935	2919	2979	2930	2923	2959	2935	2923	2899	2919	2887	2891	2923	2903	2903	2915	2887	2880	2902	2875	2875	2871	2878	2900	2862	2851	2851	2847	2871	2887	2854	2855	2883	2859	2859	2843	2870	2859	2838	2870	2826	2815	2847	2850	2823	2855	2799	2822	2823	2803	2814	2806	2790	2812	2810	2798	2798	2771	2787	2786	2795	2783	2798	2800	2751	2743	2783	2775	2754	2751	2742	2743	2759	2731	2755	2775	2771	2746	2742	2734	2723	2723	2738	2719	2731	2738	2723	2738	2730	2714	2699	2743	2727	2723	2723	2710	2715	2702	2718	2711	2714	2703	2688	2718	2695	2674	2702	2694	2702	2691	2687	2690	2674	2695	2711	2687	2711	2727	2678	2703	2699	2679	2679	2691	2695	2694	2682	2702	2679	2707	2678	2695	2695	2695	2670	2683	2679	2695	2703	2699	2670	2683	2659	2687	2683	2679	2695	2663	2667	2683	2690	2695	2718	2690	2687	2699	2671	2691	2687	2698	2655	2702	2694	2674	2678	2686	2699	2674	2691	2714	2690	2663	2702	2675	2667	2682	2682	2694	2686	2672	2666	2675	2675	2679	2647	2678	2662	2675	2639	2675	2651	2679	2670	2691	2687	2682	2711	2683	2670	2671	2675	2675	2651	2675	2651	2654	2671	2682	2679	2656	2657	2670	2635	2670	2670	2638	2658	2647	2671	2662	2647	2619	2631	2642	2631	2638	2675	2660	2623	2627	2631	2607	2615	2637	2635	2606	2619	2663	2630	2627	2639	2619	2610	2595	2626	2607	2595	2642	2618	2639	2599	2599	2599	2615	2619	2563	2595	2583	2635	2614	2571	2586	2614	2591	2574	2570	2571	2555	2570	2599	2603	2583	2574	2567	2547	2591	2554	2555	2559	2555	2554	2571	2551	2575	2554	2563	2538	2555	2570	2559	2554	2542	2523	2559	2534	2522	2552	2510	2551	2531	2542	2531	2547	2535	2506	2550	2510	2550	2515	2527	2527	2524	2498	2546	2511	2507	2486	2499	2478	2535	2504	2482	2511	2523	2483	2506	2475	2490	2478	2494	2479	2483	2494	2479	2451	2470	2499	2491	2492	2466	2491	2483	2471	2491	2487	2491	2474	2466	2462	2451	2471	2474	2447	2467	2475	2442	2478	2462	2462	2438	2430	2446	2466	2467	2455	2450	2446	2458	2458	2435	2463	2430	2419	2431	2424	2442	2443	2451	2419	2454	2458	2438	2446	2452	2419	2443	2406	2422	2399	2427	2431	2426	2418	2427	2414	2422	2407	2426	2426	2399	2395	2426	2402	2415	2422	2414	2439	2386	2443	2418	2410	2414	2402	2390	2426	2403	2426	2431	2406	2386	2390	2382	2403	2422	2391	2410	2406	2400	2422	2414	2398	2375	2403	2419	2383	2370	2403	2392	2403	2375	2402	2406	2406	2355	2390	2359	2382	2399	2387	2399	2366	2391	2386	2411	2395	2387	2371	2382	2347	2383	2385	2415	2395	2416	2367	2379	2387	2403	2391	2407	2375	2383	2398	2387	2358	2363	2382	2389	2383	2414	2383	2406	2391	2387	2370	2375	2350	2371	2358	2383	2379	2403	2371	2374	2354	2354	2386	2375	2351	2359	2419	2334	2387	2367	2367	2375	2338	2350	2371	2403	2367	2402	2371	2347	2375	2395	2351	2351	2363	2398	2364	2404	2378	2380	2382	2354	2350	2410	2399	2383	2362	2399	2367	2359	2386	2367	2359	2342	2391	2374	2355	2376	2395	2371	2382	2415	2390	2378	2378	2366	2386	2387	2395	2352	2366	2378	2363	2351	2347	2347	2411	2391	2402	2411	2367	2371	2363	2359	2343	2351	2366	2370	2383	2375	2375	2347	2375	2370	2363	2339	2333	2399	2371	2378	2376	2335	2375	2358	2379	2354	2382	2383	2371	2355	2338	2371	2366	2370	2363	2359	2326	2399	2347	2390	2371	2330	2342	2338	2347	2339	2326	2351	2379	2359	2339	2315	2330	2399	2347	2331	2371	2351	2342	2362	2355	2355	2363	2379	2331	2347	2366	2339	2331	2335	2339	2343	2330	2351	2355	2350	2362	2343	2350	2351	2359	2335	2395	2358	2374	2335	2391	2355	2379	2355	2375	2334	2334	2362	2339	2367	2338	2339	2378	2386	2351	2363	2387	2374	2379	2386	2371	2382	2379	2374	2370	2347	2379	2399	2379	2390	2358	2383	2342	2395	2347	2351	2343	2366	2383	2351	2366	2371	2355	2393	2355	2359	2391	2390	2375	2386	2371	2382	2351	2391	2371	2359	2399	2383	2387	2371	2367	2378	2363	2339	2382	2359	2382	2360	2366	2378	2362	2354	2350	2375	2351	2379	2363	2367	2343	2351	2343	2370	2363	2371	2351	2363	2371	2342	2343	2367	2375	2362	2363	2382	2347	2330	2363	2394	2335	2375	2359	2366	2363	2399	2397	2374	2395	2398	2391	2382	2402	2403	2426	2443	2439	2423	2443	2450	2487	2447	2451	2470	2499	2514	2490	2519	2543	2547	2558	2555	2571	2614	2615	2594	2631	2654	2619	2639	2671	2662	2683	2694	2715	2751	2723	2714	2743	2783	2803	2783	2795	2792	2826	2830	2830	2839	2855	2894	2878	2894	2891	2887	2935	2931	2959	2955	2970	2987	3007	2986	2990	3007	2991	3027	3043	3051	3063	3067	3059	3039	3062	3079	3087	3075	3104	3099	3074	3110	3083	3107	3094	3107	3115	3107	3127	3131	