2706	2687	2699	2687	2663	2679	2691	2671	2686	2683	2698	2679	2647	2675	2659	2675	2671	2699	2667	2639	2674	2634	2679	2663	2654	2667	2650	2623	2682	2630	2655	2654	2679	2659	2631	2647	2622	2631	2606	2643	2611	2607	2603	2622	2631	2631	2627	2616	2590	2602	2607	2623	2603	2603	2595	2607	2607	2579	2563	2594	2603	2571	2551	2571	2571	2579	2555	2554	2590	2575	2563	2575	2539	2598	2559	2538	2542	2550	2546	2523	2539	2554	2555	2550	2523	2555	2522	2555	2518	2534	2519	2511	2531	2531	2528	2514	2498	2499	2515	2518	2495	2499	2495	2526	2511	2506	2474	2499	2486	2502	2491	2503	2491	2506	2512	2491	2463	2487	2507	2487	2458	2494	2446	2471	2447	2451	2463	2458	2478	2442	2462	2455	2447	2462	2463	2474	2446	2455	2459	2478	2455	2427	2475	2442	2430	2448	2438	2435	2442	2419	2458	2427	2403	2451	2427	2455	2418	2410	2395	2427	2414	2402	2398	2438	2418	2423	2387	2422	2407	2399	2407	2398	2431	2419	2418	2426	2398	2427	2399	2428	2403	2387	2383	2422	2395	2406	2394	2395	2383	2398	2399	2403	2387	2387	2390	2416	2386	2407	2383	2387	2391	2387	2379	2387	2411	2419	2423	2411	2395	2379	2395	2387	2399	2395	2406	2426	2429	2387	2410	2411	2402	2402	2383	2414	2403	2395	2407	2403	2434	2397	2366	2395	2419	2395	2414	2399	2407	2403	2410	2407	2431	2383	2394	2395	2402	2406	2386	2374	2379	2387	2379	2398	2378	2407	2415	2430	2395	2383	2419	2402	2386	2407	2375	2399	2403	2395	2391	2399	2379	2399	2386	2416	2422	2399	2391	2427	2406	2410	2439	2399	2390	2383	2391	2398	2399	2387	2394	2383	2426	2423	2407	2407	2371	2391	2382	2419	2391	2419	2407	2407	2418	2378	2403	2419	2410	2375	2398	2415	2412	2371	2439	2403	2414	2399	2379	2391	2415	2399	2398	2403	2424	2415	2387	2403	2391	2419	2411	2399	2403	2415	2435	2391	2407	2431	2403	2406	2430	2411	2411	2383	2394	2411	2395	2426	2438	2426	2414	2403	2446	2383	2427	2426	2402	2410	2439	2383	2403	2418	2410	2378	2387	2414	2419	2431	2371	2408	2382	2407	2379	2391	2435	2430	2415	2419	2390	2410	2388	2403	2415	2387	2403	2415	2427	2411	2383	2391	2423	2375	2391	2423	2394	2410	2427	2410	2406	2403	2426	2395	2387	2431	2415	2426	2399	2398	2394	2375	2379	2391	2411	2395	2375	2407	2407	2374	2403	2379	2386	2379	2426	2383	2394	2391	2394	2403	2427	2378	2411	2411	2383	2419	2431	2407	2415	2400	2383	2399	2383	2386	2391	2395	2403	2414	2411	2387	2411	2403	2386	2431	2419	2443	2402	2423	2427	2442	2483	2463	2428	2430	2451	2440	2467	2455	2498	2487	2507	2535	2501	2506	2535	2574	2526	2583	2562	2578	2619	2591	2619	2611	2615	2671	2643	2671	2639	2675	2699	2711	2710	2718	2750	2782	2754	2771	2811	2803	2811	2831	2823	2851	2847	2871	2902	2898	2899	2935	2946	2946	2955	2963	2959	2974	3010	2998	3019	3011	3051	3038	3047	3071	3067	3087	3079	3099	3079	3135	3119	3131	3131	3146	3126	3147	3143	3135	3178	3160	3191	3206	3151	3183	3207	3195	3206	3214	3211	3203	3215	3206	3231	3203	3219	3203	3207	3223	3247	3242	3239	3207	3262	3199	3227	3259	3255	3230	3243	3223	3227	3227	3218	3251	3247	3246	3227	3239	3247	3243	3234	3219	3251	3207	3243	3216	3250	3215	3231	3195	3211	3191	3187	3198	3219	3171	3215	3179	3183	3155	3195	3166	3167	3179	3159	3154	3179	3170	3135	3167	3143	3126	3123	3154	3123	3115	3154	3107	3127	3123	3119	3123	3123	3079	3087	3098	3068	3098	3094	3067	3039	3083	3043	3062	3059	3034	3047	3059	3070	2995	3023	3034	3027	3007	3014	3019	2999	3027	2999	3015	3015	2971	3006	2983	2992	3015	2974	2983	2979	2962	2947	2979	2959	2927	2979	2959	2950	2927	2935	2947	2975	2922	2939	2950	2919	2931	2935	2955	2951	2911	2939	2935	2919	2919	2922	2899	2898	2886	2911	2883	2907	2883	2883	2918	2878	2895	2874	2871	2891	2855	2878	2879	2854	2831	2883	2862	2843	2858	2866	2811	2859	2855	2843	2822	2839	2826	2803	2839	2834	2798	2798	2827	2806	2795	2798	2798	2803	2794	2787	2794	2791	2786	2795	2767	2775	2755	2783	2787	2778	2787	2751	2767	2739	2759	2755	2743	2767	2751	2747	2731	2763	2723	2727	2722	2756	2731	2720	2726	2743	2698	2710	2751	2708	2695	2691	2687	2715	2699	2699	2702	2691	2710	2693	2706	2702	2723	2679	2666	2678	2718	2694	2731	2691	2699	2675	2707	2694	2690	2702	2686	2695	2683	2683	2679	2663	2671	2675	2671	2663	2666	2694	2671	2671	2683	2675	2674	2719	2691	2666	2679	2667	2671	2710	2703	2695	2694	2710	2690	2696	2687	2702	2719	2682	2702	2707	2695	2706	2703	2714	2695	2695	2687	2685	2667	2710	2670	2711	2706	2707	2699	2714	2695	2702	2671	2675	2683	2691	2667	2694	2711	2691	2695	2700	2711	2719	2670	2667	2698	2691	2690	2715	2699	2690	2675	2699	2678	2694	2690	2678	2667	2675	2683	2667	2651	2650	2678	2683	2666	2666	2670	2659	2663	2666	2646	2642	2626	2683	2647	2642	2663	2631	2619	2622	2659	2654	2662	2639	2643	2610	2595	2646	2648	2639	2619	2634	2607	2599	2618	2637	2595	2634	2586	2587	2618	2591	2623	2610	2615	2579	2563	2598	2602	2559	2579	2583	2586	2558	2559	2575	2550	2558	2574	2566	2582	2571	2575	2566	2538	2559	2560	2595	2539	2543	2543	2559	2526	2535	2539	2535	2526	2535	2530	2539	2550	2522	2519	2512	2531	2511	2554	2510	2503	2530	2523	2527	2519	2523	2535	2503	2527	2507	2513	2515	2511	2527	2511	2487	2499	2495	2503	2503	2519	2503	2494	2507	2506	2507	2503	2511	2499	2478	2478	2458	2447	2455	2463	2491	2451	2447	2452	2440	2490	2470	2455	2455	2487	2471	2470	2483	2443	2439	2439	2435	2439	2435	2470	2447	2419	2451	2435	2447	2443	2415	2419	2410	2418	2459	2443	2435	2400	2434	2431	2423	2439	2402	2438	2426	2411	2423	2411	2411	2407	2390	2387	2419	2394	2399	2402	2378	2410	2419	2395	2383	2379	2414	2395	2395	2398	2382	2407	2375	2370	2386	2399	2386	2386	2403	2379	2379	2395	2383	2399	2383	2379	2403	2378	2387	2366	2367	2378	2374	2367	2375	2383	2350	2360	2350	2366	2359	2370	2386	2383	2382	2387	2367	2391	2379	2387	2338	2380	2366	2354	2335	2347	2351	2374	2366	2367	2362	2383	2342	2379	2356	2378	2406	2335	2363	2355	2367	2359	2382	2359	2350	2342	2362	2358	2359	2371	2347	2375	2346	2351	2380	2371	2347	2366	2363	2371	2367	2362	2371	2367	2379	2351	2351	2367	2354	2363	2383	2371	2375	2378	2395	2359	2391	2370	2351	2351	2383	2387	2388	2366	2351	2354	2371	2366	2351	2370	2354	2383	2363	2359	2348	2348	2374	2395	2371	2370	2347	2366	2386	2374	2338	2375	2354	2359	2358	2399	2359	2351	2370	2375	2382	2375	2350	2407	2335	2386	2383	2347	2374	2371	2378	2339	2366	2383	2362	2343	2382	2350	2346	2359	2358	2370	2346	2374	2335	2367	2351	2383	2354	2355	2363	2395	2370	2371	2346	2343	2402	2383	2363	2346	2375	2370	2407	2322	2326	2342	2351	2371	2363	2327	2359	2322	2350	2379	2375	2383	2331	2395	2347	2363	2355	2353	2347	2387	2382	2347	2359	2382	2362	2355	2343	2343	2351	2334	2339	2354	2354	2343	2363	2359	2362	2390	2335	2383	2346	2371	2335	2375	2343	2327	2363	2338	2363	2343	2334	2359	2339	2347	2350	2343	2367	2327	2346	2346	2347	2314	2334	2343	2343	2346	2346	2319	2383	2342	2362	2323	2386	2335	2358	2339	2355	2378	2371	2354	2370	2375	2418	2410	2398	2410	2399	2423	2447	2442	2423	2435	2447	2454	2475	2499	2506	2495	2495	2551	2562	2555	2574	2571	2594	2595	2578	2603	2615	2646	2642	2663	2694	2686	2734	2719	2747	2718	2722	2775	2730	2806	2779	2802	2839	2822	2854	2831	2895	2875	2879	2879	2915	2918	2923	2918	2958	2931	2999	2970	3002	2998	3014	3047	3007	3026	3015	3051	3030	3063	3090	3059	3099	3091	3114	3107	3143	3122	3119	3138	3146	3139	3111	3147	3163	3131	3171	3159	3143	3186	3178	3186	3203	3227	3179	3179	3182	3200	3243	3191	3176	3211	3219	3222	3227	3210	3223	3211	3219	3179	3218	3211	3210	3235	3195	3195	3227	3223	3194	3207	3199	3207	3183	3174	3174	3191	3187	3155	3186	3159	3206	3163	3162	3170	3126	3147	3163	3154	3166	3166	3156	3131	3155	3138	3134	3126	3115	3131	3131	3121	3115	3083	3104	3107	3119	3107	3090	3114	3119	3110	3066	3062	3070	3071	3078	3071	3047	3039	3079	3038	3035	3031	3046	3047	3031	3039	3027	3019	3035	3006	2999	3003	2999	3015	2991	2978	3011	3003	2982	2995	2986	3002	3000	2991	2975	2987	2971	2971	2959	2946	2983	2958	2975	2923	2942	2923	2970	2938	2959	2911	2923	2938	2915	2959	2935	2938	2943	2935	2927	2899	2919	2915	2918	2911	2910	2895	2911	2891	2903	2894	2919	2899	2915	2875	2851	2907	2914	2888	2854	2867	2879	2867	2899	2859	2867	2874	2862	2835	2815	2823	2823	2835	2827	2831	2810	2807	2822	2826	2802	2831	2827	2787	2803	2822	2798	2810	2763	2760	2802	2787	2794	2743	2778	2779	2779	2739	2783	2738	2746	2770	2727	2751	2739	2750	2743	2734	2715	2722	2734	2747	2755	2758	2730	2719	2715	2703	2711	2723	2703	2707	2723	2719	2719	2719	2711	2727	2719	2711	2723	2675	2674	2714	2727	2710	2707	2687	2690	2695	2683	2699	2710	2674	2703	2675	2715	2687	2666	2654	2698	2683	2694	2686	2691	2690	2663	2703	2687	2679	2718	2687	2703	2695	2695	2663	2679	2679	2695	2687	2698	2694	2679	2695	2686	2667	2695	2687	2679	2703	2691	2707	2710	2663	2695	2672	2670	2691	2655	2670	2678	2647	2662	2703	2691	2663	2672	2662	2691	2663	2667	2659	2675	2663	2659	2651	2667	2719	2662	2667	2666	2644	2678	2671	2647	2686	2674	2659	2655	2663	2643	2670	2630	2638	2650	2659	2651	2675	2639	2619	2646	2651	2651	2638	2635	2642	2663	2635	2655	2647	2630	2659	2634	2652	2627	2655	2654	2643	2615	2653	2655	2623	2647	2627	2627	2630	2635	2659	2635	2659	2631	2608	2598	2626	2627	2616	2602	2591	2607	2591	2606	2610	2610	2583	2615	2638	2611	2591	2615	2598	2603	2607	2598	2563	2555	2567	2603	2587	2558	2595	2586	2543	2579	2587	2582	2559	2555	2547	2591	2556	2542	2551	2578	2551	2563	2542	2523	2543	2558	2539	2540	2555	2547	2551	2539	2511	2531	2531	2519	2531	2539	2571	2511	2518	2510	2539	2527	2512	2532	2499	2506	2503	2519	2479	2471	2502	2503	2479	2518	2506	2494	2471	2491	2486	2518	2495	2494	2479	2463	2494	2490	2491	2451	2502	2494	2491	2443	2458	2491	2471	2498	2483	2431	2443	2495	2451	2475	2463	2425	2463	2451	2435	2483	2451	2447	2443	2442	2431	2438	2442	2434	2422	2435	2442	2431	2435	2439	2451	2415	2443	2403	2430	2382	2398	2411	2403	2431	2426	2422	2439	2423	2423	2415	2435	2399	2422	2402	2427	2423	2430	2411	2411	2423	2423	2391	2407	2406	2415	2419	2402	2391	2395	2383	2410	2399	2407	2384	2403	2394	2390	2391	2395	2385	2355	2355	2375	2395	2387	2391	2403	2375	2383	2394	2386	2371	2395	2363	2382	2374	2374	2358	2374	2362	2359	2387	2383	2371	2363	2375	2386	2379	2383	2371	2386	2367	2350	2343	2399	2367	2383	2371	2366	2359	2367	2367	2342	2363	2371	2375	2371	2346	2375	2339	2379	2371	2362	2375	2362	2391	2359	2375	2347	2361	2375	2370	2356	2379	2362	2398	2342	2355	2362	2356	2387	2342	2371	2343	2387	2362	2367	2346	2387	2366	2367	2351	2386	2331	2343	2363	2354	2359	2359	2387	2339	2367	2371	2359	2366	2367	2355	2351	2374	2406	2374	2367	2395	2379	2383	2367	2362	2362	2382	2383	2375	2372	2382	2335	2363	2350	2370	2334	2386	2386	2390	2367	2371	2335	2375	2378	2379	2355	2386	2367	2354	2363	2367	2359	2346	2334	2355	2371	2331	2363	2371	2339	2383	2347	2363	2387	2358	2366	2363	2366	2371	2355	2346	2335	2379	2343	2335	2374	2407	2359	2366	2375	2371	2359	2351	2390	2371	2391	2363	2391	2362	2378	2363	2323	2355	2355	2395	2362	2367	