2274	2255	2291	2274	2283	2254	2258	2274	2235	2256	2239	2278	2263	2251	2255	2263	2271	2247	2227	2239	2271	2239	2230	2227	2234	2246	2250	2263	2222	2238	2267	2226	2215	2251	2262	2259	2239	2250	2267	2251	2235	2255	2219	2231	2219	2246	2271	2270	2259	2290	2254	2251	2259	2239	2246	2242	2259	2275	2267	2247	2251	2231	2254	2239	2262	2219	2279	2227	2238	2247	2242	2230	2234	2250	2247	2248	2267	2251	2266	2259	2251	2263	2223	2247	2239	2263	2255	2247	2239	2219	2263	2250	2243	2240	2238	2231	2223	2246	2266	2271	2262	2272	2243	2239	2219	2244	2247	2255	2250	2246	2278	2247	2271	2258	2267	2267	2259	2311	2275	2266	2290	2312	2299	2319	2292	2315	2319	2327	2319	2315	2334	2370	2367	2371	2358	2394	2415	2398	2434	2443	2447	2463	2462	2486	2491	2498	2490	2518	2514	2562	2552	2590	2566	2583	2603	2607	2651	2639	2658	2650	2663	2671	2687	2707	2715	2715	2767	2774	2771	2750	2783	2808	2803	2819	2839	2850	2847	2870	2842	2903	2879	2930	2930	2903	2938	2911	2969	2983	2951	2963	2987	2963	2975	3018	3002	3003	3023	3030	3046	3039	3047	3043	3059	3030	3074	3079	3091	3087	3083	3059	3107	3088	3102	3091	3083	3111	3074	3103	3091	3127	3082	3102	3091	3095	3094	3143	3103	3122	3095	3107	3091	3130	3114	3098	3122	3111	3115	3107	3087	3126	3134	3111	3107	3071	3091	3106	3087	3095	3067	3106	3067	3090	3071	3073	3086	3102	3090	3080	3086	3067	3070	3063	3062	3047	3042	3027	3035	3063	3047	3031	3066	3022	3063	3023	3024	3047	3022	3015	3032	3042	3039	2990	3003	3006	2994	2975	2995	2982	2971	2987	3004	2951	2979	2987	2939	2955	2983	2975	2979	2963	2943	2942	2951	2923	2934	2930	2922	2939	2906	2918	2940	2903	2943	2919	2906	2939	2935	2911	2908	2887	2918	2903	2899	2911	2891	2915	2899	2883	2870	2887	2878	2902	2878	2843	2886	2866	2863	2859	2859	2843	2855	2843	2847	2835	2847	2851	2838	2831	2846	2818	2799	2811	2806	2814	2818	2798	2808	2814	2819	2826	2782	2779	2786	2791	2803	2787	2794	2774	2779	2783	2790	2795	2798	2791	2751	2783	2775	2767	2790	2750	2775	2791	2766	2755	2742	2774	2747	2734	2754	2751	2738	2783	2727	2707	2751	2727	2743	2739	2715	2735	2751	2735	2751	2734	2747	2718	2743	2743	2703	2706	2722	2718	2702	2723	2711	2711	2719	2719	2694	2726	2715	2671	2718	2734	2695	2711	2687	2687	2686	2699	2718	2687	2675	2699	2679	2707	2683	2698	2670	2711	2659	2703	2666	2662	2722	2691	2711	2707	2707	2678	2679	2687	2664	2683	2671	2675	2715	2723	2707	2679	2687	2675	2663	2687	2711	2663	2682	2707	2691	2687	2682	2691	2670	2650	2716	2707	2683	2714	2703	2682	2667	2679	2682	2678	2702	2702	2715	2718	2699	2686	2743	2714	2679	2687	2691	2675	2699	2711	2714	2675	2719	2706	2715	2695	2682	2671	2722	2694	2687	2691	2687	2687	2699	2695	2671	2666	2691	2687	2675	2686	2703	2683	2722	2683	2687	2695	2687	2674	2691	2666	2690	2698	2680	2671	2707	2667	2711	2659	2679	2684	2675	2679	2687	2671	2663	2647	2666	2662	2686	2651	2667	2659	2674	2647	2638	2643	2655	2639	2638	2634	2639	2631	2619	2603	2651	2619	2622	2618	2619	2639	2603	2618	2606	2639	2642	2623	2619	2611	2591	2603	2615	2606	2599	2618	2587	2623	2619	2582	2603	2590	2591	2591	2591	2598	2602	2592	2574	2590	2567	2546	2551	2575	2567	2571	2598	2579	2567	2567	2595	2591	2555	2550	2571	2568	2535	2527	2570	2550	2542	2538	2523	2542	2547	2547	2543	2534	2543	2514	2543	2539	2506	2547	2519	2499	2506	2491	2528	2487	2505	2523	2507	2479	2494	2483	2480	2482	2494	2511	2483	2459	2459	2463	2462	2452	2478	2447	2439	2459	2471	2479	2467	2435	2428	2427	2443	2450	2463	2422	2427	2434	2406	2447	2419	2419	2422	2423	2403	2438	2422	2427	2407	2431	2403	2408	2403	2439	2438	2418	2419	2418	2431	2422	2420	2415	2415	2398	2395	2414	2431	2411	2415	2394	2386	2374	2430	2406	2371	2395	2403	2414	2399	2399	2398	2371	2406	2419	2417	2406	2391	2387	2370	2399	2414	2391	2399	2383	2395	2403	2391	2387	2402	2375	2390	2398	2379	2379	2402	2383	2362	2362	2366	2378	2383	2386	2343	2410	2363	2403	2375	2367	2403	2398	2386	2392	2359	2347	2371	2374	2355	2362	2367	2371	2347	2383	2399	2379	2351	2363	2355	2347	2382	2398	2355	2395	2378	2383	2403	2351	2355	2363	2370	2399	2387	2367	2387	2367	2391	2374	2358	2367	2387	2362	2359	2359	2343	2367	2366	2371	2374	2350	2350	2367	2374	2383	2370	2359	2395	2355	2394	2363	2367	2407	2403	2362	2374	2370	2395	2391	2371	2366	2358	2383	2382	2399	2415	2366	2367	2363	2355	2403	2398	2411	2379	2394	2423	2423	2383	2407	2419	2410	2410	2423	2399	2407	2403	2431	2386	2383	2415	2418	2414	2399	2415	2391	2418	2398	2419	2390	2450	2407	2424	2399	2407	2395	2427	2399	2399	2423	2419	2415	2451	2431	2434	2423	2419	2447	2454	2443	2438	2395	2423	2414	2411	2403	2403	2395	2410	2422	2415	2410	2406	2387	2423	2398	2399	2438	2439	2399	2395	2387	2423	2410	2438	2406	2435	2418	2410	2398	2390	2390	2399	2387	2411	2403	2435	2383	2387	2387	2382	2390	2391	2414	2411	2395	2398	2375	2391	2430	2407	2403	2386	2382	2402	2383	2403	2370	2399	2379	2374	2382	2398	2387	2402	2375	2415	2426	2383	2403	2387	2411	2414	2442	2431	2431	2435	2451	2438	2435	2447	2459	2466	2498	2506	2471	2500	2507	2531	2550	2539	2523	2578	2587	2583	2623	2579	2618	2658	2622	2663	2662	2643	2719	2687	2703	2687	2762	2731	2726	2731	2758	2794	2794	2811	2830	2842	2855	2835	2835	2872	2856	2887	2879	2882	2899	2927	2963	2942	2958	2947	2963	2975	3022	3027	3011	3027	3054	3017	3039	3039	3050	3071	3082	3067	3071	3086	3095	3091	3075	3127	3127	3102	3111	3103	3142	3123	3143	3135	3147	3126	3147	3167	3159	3122	3142	3171	3171	3150	3143	3179	3143	3167	3171	3163	3147	3159	3198	3179	3150	3175	3178	3159	3147	3135	3143	3151	3174	3171	3167	3130	3119	3151	3131	3118	3115	3111	3115	3119	3094	3124	3118	3115	3087	3119	3107	3094	3067	3115	3071	3063	3071	3051	3066	3047	3059	3031	3067	3063	3023	3042	3011	3043	3020	3002	2991	3026	3018	2990	2978	2970	3003	2995	2974	2995	2975	2974	2955	2983	2962	2931	2934	2967	2971	2939	2931	2919	2959	2951	2911	2955	2931	2939	2911	2927	2911	2926	2902	2897	2905	2911	2907	2894	2902	2923	2915	2902	2882	2891	2887	2883	2887	2911	2886	2870	2883	2902	2851	2866	2871	2899	2859	2878	2883	2871	2867	2843	2883	2847	2843	2883	2851	2847	2818	2858	2858	2855	2866	2827	2858	2827	2810	2846	2827	2814	2835	2794	2814	2807	2822	2795	2822	2814	2807	2811	2759	2783	2759	2795	2775	2758	2755	2791	2771	2747	2739	2791	2775	2744	2771	2739	2734	2722	2735	2738	2743	2723	2720	2722	2723	2731	2739	2742	2690	2698	2695	2706	2702	2675	2723	2674	2692	2695	2678	2670	2679	2675	2663	2682	2687	2686	2643	2639	2667	2631	2679	2678	2647	2668	2643	2655	2675	2671	2635	2671	2662	2639	2642	2618	2619	2643	2614	2654	2627	2631	2659	2614	2626	2619	2606	2594	2670	2618	2632	2618	2610	2647	2635	2611	2618	2671	2655	2634	2663	2619	2616	2627	2614	2635	2622	2618	2630	2607	2619	2599	2619	2631	2610	2619	2638	2627	2639	2614	2602	2599	2611	2611	2632	2608	2624	2643	2626	2619	2615	2638	2655	2620	2615	2660	2639	2599	2586	2622	2610	2623	2623	2611	2627	2627	2611	2618	2595	2631	2611	2587	2599	2635	2594	2580	2607	2611	2627	2611	2586	2583	2595	2595	2590	2587	2603	2599	2607	2571	2602	2582	2571	2567	2575	2594	2563	2563	2602	2575	2619	2579	2575	2563	2603	2591	2586	2570	2547	2578	2583	2542	2583	2547	2571	2567	2563	2542	2547	2595	2559	2566	2583	2546	2554	2567	2558	2563	2559	2546	2571	2543	2554	2527	2531	2519	2539	2523	2531	2554	2526	2523	2521	2555	2534	2527	2519	2534	2534	2546	2518	2507	2527	2527	2520	2503	2522	2514	2511	2551	2547	2546	2511	2515	2534	2519	2502	2539	2495	2531	2499	2535	2535	2498	2499	2507	2507	2502	2507	2523	2519	2491	2487	2480	2502	2518	2499	2494	2498	2487	2520	2479	2498	2502	2499	2479	2483	2518	2486	2511	2495	2506	2531	2520	2490	2482	2491	2490	2486	2470	2482	2464	2478	2475	2466	2459	2479	2487	2491	2470	2491	2459	2491	2478	2451	2439	2467	2455	2483	2494	2443	2479	2466	2443	2471	2443	2454	2422	2441	2470	2463	2455	2467	2451	2443	2455	2454	2435	2454	2458	2423	2431	2438	2454	2454	2423	2415	2415	2410	2450	2447	2447	2439	2402	2434	2443	2426	2402	2455	2407	2395	2403	2438	2403	2418	2411	2406	2411	2394	2422	2395	2387	2395	2407	2415	2379	2391	2427	2403	2415	2426	2406	2379	2406	2411	2410	2382	2375	2391	2390	2371	2395	2419	2391	2403	2430	2415	2419	2390	2399	2399	2380	2399	2378	2375	2383	2387	2406	2371	2387	2411	2402	2391	2414	2402	2387	2391	2403	2379	2399	2378	2376	2387	2407	2387	2415	2390	2367	2419	2406	2407	2363	2398	2411	2427	2402	2390	2427	2407	2402	2386	2370	2403	2391	2394	2395	2423	2384	2411	2431	2390	2431	2391	2410	2427	2423	2383	2395	2399	2415	2387	2395	2406	2431	2407	2423	2411	2435	2415	2414	2439	2422	2439	2402	2435	2426	2438	2435	2443	2395	2407	2419	2422	2399	2427	2430	2407	2438	2427	2407	2430	2423	2402	2419	2434	2403	2423	2431	2459	2442	2450	2399	2447	2439	2443	2451	2454	2423	2468	2427	2427	2451	2422	2415	2427	2446	2434	2458	2471	2459	2459	2435	2419	2451	2430	2439	2411	2482	2434	2467	2439	2454	2451	2440	2422	2479	2427	2467	2466	2442	2451	2439	2458	2430	2459	2478	2443	2490	2451	2447	2454	2459	2431	2451	2466	2483	2467	2450	2450	2471	2458	2450	2451	2482	2451	2483	2460	2435	2458	2462	2462	2439	2487	2455	2502	2463	2494	2471	2479	2491	2471	2486	2458	2483	2455	2446	2479	2466	2490	2471	2463	2455	2483	2479	2459	2479	2450	2495	2499	2486	2466	2475	2475	2482	2446	2470	2495	2458	2454	2470	2471	2459	2467	2471	2487	2487	2467	2450	2495	2467	2507	2502	2442	2455	2466	2479	2495	2451	2459	2439	2479	2463	2467	2474	2486	2518	2515	2475	2494	2475	2490	2523	2547	2527	2547	2518	2511	2563	2538	2567	2555	2587	2595	2579	2606	2575	2642	2627	2611	2607	2639	2642	2655	2690	2695	2679	2687	2723	2758	2711	2759	2771	2746	2794	2775	2786	2819	2839	2835	2819	2838	2863	2863	2878	2898	2887	2907	2943	2962	2931	2955	2959	2931	3010	2994	3003	3011	3018	3035	3010	3027	3023	3031	3059	3087	3051	3095	3099	3083	3094	3107	3091	3123	3118	3107	3167	3139	3147	3159	3127	3142	3159	3166	3162	3187	3159	3159	3179	3183	3186	3190	3199	3151	3204	3198	3195	3167	3191	3183	3186	3211	3195	3194	3186	3183	3191	3195	3187	3185	3183	3191	3167	3175	3175	3171	3178	3150	3139	3139	3142	3139	3147	3170	3151	3123	3135	3131	3122	3139	3115	3095	3118	3099	3131	3115	3103	3087	3102	3082	3086	3078	3078	3087	3091	3051	3078	3031	3063	3042	3071	3055	3043	3030	3023	3031	3027	3031	2987	3003	3015	2974	3007	3014	2993	3011	2987	2984	2971	2996	3002	2986	2967	2963	2970	2942	2982	2951	2963	2951	2963	2931	2952	2947	2975	2923	2943	2926	2946	2931	2903	2966	2895	2947	2931	2919	2899	2895	2899	2899	2910	2919	2910	2879	2902	2907	2887	2891	2915	2879	2903	2867	2887	2875	2895	2850	2863	2867	2891	2875	2891	2875	2887	2858	2846	2851	2871	2862	2836	2854	2870	2858	2815	2855	2859	2822	2838	2823	2811	2827	2807	2798	2803	2802	2818	2807	2833	2791	2800	2783	2779	2771	2767	2791	2791	2762	2786	2775	2750	2731	2731	2738	2755	2755	2742	2747	2734	2751	2743	2743	2735	2702	2703	2699	2719	2723	2690	2711	2687	2703	2702	2671	2679	2675	2695	2703	2667	2662	2687	2635	