3083	3039	3071	3066	3014	3023	3007	2998	3006	3043	3002	3051	3051	3034	3055	3015	2999	3035	2999	3022	3011	2994	2947	2955	2963	2986	2947	2943	2983	2995	2923	2994	2959	2951	2971	2987	2971	2947	2906	2947	2899	2887	2875	2899	2871	2919	2855	2886	2923	2871	2870	2929	2931	2915	2879	2870	2919	2831	2851	2855	2855	2826	2835	2847	2830	2842	2807	2823	2807	2851	2814	2822	2831	2782	2814	2818	2819	2823	2799	2787	2763	2751	2762	2751	2734	2719	2770	2747	2766	2727	2714	2715	2763	2771	2750	2723	2755	2747	2742	2727	2654	2655	2686	2718	2651	2643	2704	2659	2678	2694	2695	2715	2666	2651	2694	2686	2682	2707	2631	2662	2630	2627	2607	2619	2634	2599	2647	2631	2607	2627	2626	2671	2626	2607	2615	2659	2670	2667	2615	2647	2622	2586	2602	2614	2619	2603	2631	2607	2615	2615	2663	2619	2663	2615	2667	2587	2639	2598	2619	2634	2614	2638	2606	2579	2618	2611	2591	2586	2574	2575	2618	2622	2579	2605	2611	2635	2642	2621	2602	2606	2615	2575	2590	2611	2578	2579	2599	2614	2606	2602	2635	2666	2667	2615	2655	2631	2619	2651	2631	2655	2594	2611	2591	2611	2622	2583	2639	2610	2587	2650	2659	2630	2651	2638	2623	2627	2654	2627	2655	2611	2631	2619	2579	2619	2615	2606	2611	2630	2615	2607	2670	2623	2598	2603	2591	2627	2602	2643	2643	2611	2627	2583	2623	2583	2606	2547	2614	2598	2595	2611	2583	2575	2615	2612	2634	2614	2607	2558	2590	2611	2555	2546	2542	2530	2566	2531	2559	2548	2558	2531	2534	2579	2546	2551	2566	2539	2593	2527	2566	2510	2539	2555	2539	2558	2510	2519	2547	2547	2527	2559	2579	2514	2547	2518	2519	2506	2558	2523	2487	2531	2526	2530	2522	2475	2475	2495	2471	2474	2459	2519	2490	2471	2463	2467	2539	2511	2467	2463	2475	2439	2511	2458	2491	2419	2454	2443	2451	2467	2492	2447	2482	2435	2426	2438	2499	2447	2468	2490	2443	2411	2423	2434	2470	2419	2447	2402	2447	2395	2435	2443	2451	2455	2475	2411	2403	2430	2451	2459	2415	2383	2443	2391	2387	2443	2395	2439	2407	2370	2427	2439	2403	2399	2435	2403	2411	2427	2442	2379	2419	2408	2403	2394	2351	2367	2375	2423	2423	2415	2423	2402	2371	2371	2430	2411	2418	2387	2367	2431	2423	2362	2382	2423	2402	2355	2418	2403	2371	2371	2419	2418	2411	2419	2411	2435	2391	2430	2374	2419	2410	2351	2391	2362	2330	2330	2329	2343	2339	2319	2391	2338	2396	2399	2394	2415	2411	2374	2411	2338	2383	2379	2375	2343	2371	2342	2323	2336	2359	2303	2378	2370	2327	2363	2387	2375	2326	2366	2339	2327	2350	2363	2366	2322	2367	2327	2315	2319	2335	2358	2379	2351	2394	2367	2355	2374	2411	2351	2390	2355	2331	2371	2319	2335	2367	2335	2346	2387	2387	2382	2371	2399	2404	2335	2367	2391	2407	2415	2394	2354	2355	2422	2358	2366	2370	2363	2334	2407	2363	2371	2331	2383	2391	2355	2375	2411	2438	2395	2395	2350	2383	2351	2344	2323	2338	2403	2422	2415	2403	2351	2343	2363	2367	2407	2390	2407	2407	2363	2346	2383	2387	2383	2370	2375	2363	2336	2387	2327	2337	2321	2355	2334	2394	2387	2386	2331	2398	2342	2335	2338	2374	2327	2378	2383	2327	2367	2359	2355	2370	2370	2310	2318	2379	2306	2390	2355	2319	2387	2334	2355	2359	2355	2311	2346	2363	2323	2339	2311	2335	2303	2327	2347	2371	2347	2330	2332	2318	2358	2323	2335	2303	2298	2310	2335	2315	2318	2306	2295	2327	2266	2344	2278	2290	2323	2311	2339	2371	2350	2319	2310	2351	2346	2289	2342	2263	2319	2287	2303	2292	2283	2351	2279	2344	2298	2287	2347	2354	2318	2287	2306	2343	2311	2335	2295	2255	2319	2331	2287	2319	2319	2331	2331	2275	2338	2355	2295	2279	2351	2299	2283	2303	2327	2339	2334	2282	2279	2295	2343	2335	2355	2302	2306	2366	2370	2327	2387	2354	2386	2342	2399	2383	2334	2347	2406	2358	2411	2395	2383	2414	2410	2455	2443	2471	2451	2480	2479	2522	2551	2507	2502	2575	2587	2543	2595	2603	2631	2619	2599	2599	2663	2655	2639	2663	2674	2691	2695	2779	2719	2767	2779	2739	2727	2770	2802	2759	2818	2791	2810	2875	2859	2839	2923	2859	2947	2883	2899	2934	2966	2998	2983	2991	2967	2991	2946	2956	3011	3010	3035	3043	2987	3039	3055	3070	3038	3078	3051	3048	3039	3079	3091	3079	3058	3095	3116	3114	3087	3090	3067	3123	3135	3122	3155	3118	3151	3143	3147	3142	3179	3114	3135	3135	3107	3118	3123	3091	3135	3091	3151	3155	3135	3146	3119	3119	3147	3143	3111	3107	3083	3126	3118	3083	3071	3066	3102	3103	3107	3110	3055	3047	3055	3091	3055	3078	3083	3047	3063	3111	3055	3063	3062	3031	3027	3043	3039	2991	3035	3046	3010	3003	3039	3043	3031	3046	3043	2998	2983	3034	3007	3019	2955	3019	2991	2954	2987	2975	2947	2987	2943	2927	2934	2971	2970	2951	2939	2991	2931	2979	2974	2979	2966	2967	2935	2919	2895	2918	2931	2923	2875	2883	2916	2870	2874	2931	2935	2862	2874	2888	2874	2907	2870	2895	2859	2846	2827	2858	2827	2858	2787	2819	2811	2811	2851	2815	2858	2791	2855	2786	2815	2766	2774	2754	2783	2783	2734	2763	2743	2750	2755	2755	2763	2706	2747	2703	2731	2751	2707	2695	2714	2699	2706	2675	2655	2651	2670	2655	2623	2639	2631	2678	2634	2679	2671	2687	2635	2682	2675	2672	2643	2610	2599	2607	2579	2594	2642	2638	2607	2603	2586	2595	2627	2610	2587	2591	2595	2607	2631	2583	2618	2643	2567	2627	2591	2570	2579	2611	2570	2603	2587	2555	2623	2555	2575	2590	2635	2576	2610	2619	2631	2587	2566	2599	2583	2543	2618	2587	2618	2527	2610	2579	2603	2570	2598	2575	2619	2587	2567	2586	2586	2583	2595	2586	2587	2563	2607	2618	2619	2607	2547	2614	2590	2595	2583	2623	2646	2607	2655	2623	2639	2606	2626	2603	2634	2578	2583	2635	2643	2543	2583	2583	2562	2610	2583	2583	2603	2642	2643	2606	2640	2651	2639	2599	2626	2618	2583	2619	2626	2638	2587	2623	2622	2611	2594	2611	2631	2619	2607	2623	2615	2611	2603	2639	2626	2623	2575	2602	2623	2606	2618	2571	2591	2570	2563	2567	2603	2578	2615	2622	2642	2570	2554	2559	2570	2603	2543	2526	2575	2583	2551	2530	2591	2575	2584	2603	2554	2531	2607	2543	2598	2543	2583	2575	2575	2511	2579	2535	2507	2538	2538	2499	2487	2491	2570	2506	2523	2491	2562	2535	2483	2543	2512	2491	2515	2466	2470	2499	2523	2494	2519	2455	2458	2463	2507	2507	2511	2462	2503	2486	2494	2474	2471	2515	2487	2487	2430	2447	2486	2459	2415	2455	2479	2474	2483	2475	2426	2490	2490	2495	2447	2478	2403	2482	2427	2426	2467	2403	2458	2414	2427	2390	2387	2424	2422	2459	2415	2403	2458	2462	2395	2455	2451	2376	2403	2415	2448	2391	2407	2387	2383	2439	2419	2410	2423	2383	2415	2463	2443	2475	2454	2403	2411	2430	2446	2395	2406	2430	2370	2398	2409	2390	2387	2439	2415	2378	2442	2375	2394	2439	2391	2374	2419	2403	2351	2371	2359	2406	2343	2391	2347	2359	2423	2407	2362	2407	2371	2428	2391	2394	2438	2398	2375	2355	2351	2352	2386	2355	2391	2399	2403	2355	2343	2411	2419	2382	2407	2426	2367	2346	2419	2403	2399	2375	2359	2358	2394	2319	2366	2379	2383	2351	2374	2383	2383	2351	2419	2375	2350	2411	2399	2386	2387	2366	2389	2398	2354	2379	2371	2402	2354	2402	2362	2371	2374	2395	2398	2415	2358	2359	2403	2351	2402	2407	2343	2378	2346	2347	2338	2330	2355	2339	2375	2382	2407	2375	2359	2387	2387	2418	2396	2423	2419	2355	2411	2346	2354	2338	2350	2374	2371	2390	2363	2371	2386	2410	2430	2410	2411	2370	2424	2375	2406	2355	2355	2371	2347	2355	2370	2383	2335	2387	2359	2379	2402	2371	2363	2383	2399	2430	2391	2395	2375	2403	2411	2350	2343	2335	2378	2395	2338	2346	2359	2351	2347	2370	2410	2411	2398	2370	2378	2374	2375	2330	2387	2315	2366	2339	2327	2379	2351	2391	2379	2335	2382	2367	2330	2340	2355	2335	2379	2403	2342	2363	2391	2332	2335	2327	2326	2391	2342	2335	2379	2378	2327	2347	2367	2343	2394	2390	2375	2359	2310	2334	2307	2330	2359	2303	2311	2311	2311	2334	2314	2347	2378	2387	2335	2323	2343	2370	2326	2343	2358	2299	2335	2310	2303	2290	2327	2327	2303	2359	2298	2302	2367	2298	2343	2351	2322	2318	2370	2316	2319	2358	2318	2342	2339	2295	2366	2326	2354	2331	2354	2326	2299	2355	2315	2339	2339	2331	2379	2358	2347	2315	2335	2362	2354	2363	2367	2390	2355	2386	2335	2412	2427	2386	2415	2434	2403	2435	2431	2427	2428	2451	2407	2434	2474	2446	2439	2466	2475	2531	2526	2511	2526	2591	2595	2579	2606	2586	2622	2662	2643	2635	2658	2666	2690	2667	2655	2759	2763	2751	2743	2758	2814	2843	2791	2851	2875	2836	2867	2891	2918	2862	2867	2923	2934	2942	2934	2930	2930	2963	2995	3023	2986	3059	3002	3003	3042	3031	3103	3087	3063	3043	3042	3043	3050	3059	3083	3120	3103	3079	3138	3151	3107	3154	3143	3167	3159	3190	3123	3175	3162	3134	3175	3195	3118	3127	3131	3150	3147	3174	3199	3191	3186	3175	3179	3187	3179	3203	3171	3155	3194	3219	3183	3164	3175	3174	3159	3198	3207	3219	3203	3182	3215	3199	3219	3175	3163	3166	3215	3195	3143	3150	3187	3139	3127	3134	3126	3163	3186	3186	3163	3130	3175	3147	3187	3171	3138	3151	3190	3134	3163	3138	3071	3071	3075	3119	3051	3063	3063	3063	3078	3067	3094	3107	3127	3127	3110	3118	3055	3091	3038	3034	3051	3039	3047	3067	3078	3043	3011	3023	3067	3055	3006	3062	3003	3055	3003	3051	2999	3050	2987	2994	3023	2979	2955	2983	2951	2970	2954	2979	2982	3007	2999	2998	2988	2983	3002	2939	2915	2955	2915	2972	2958	2886	2884	2915	2874	2915	2919	2939	2886	2934	2902	2919	2942	2878	2883	2894	2931	2901	2847	2910	2910	2835	2818	2855	2851	2830	2851	2799	2858	2858	2823	2875	2862	2811	2846	2850	2847	2831	2823	2786	2775	2759	2806	2771	2751	2755	2746	2800	2804	2799	2802	2750	2770	2739	2739	2731	2730	2720	2751	2714	2751	2746	2743	2714	2687	2714	2718	2715	2695	2735	2674	2738	2711	2730	2734	2718	2731	2687	2686	2631	2662	2658	2702	2630	2686	2679	2631	2699	2638	2666	2695	2655	2707	2643	2716	2639	2687	2658	2671	2707	2703	2655	2683	2679	2623	2642	2687	2631	2655	2702	2674	2699	2667	2663	2666	2670	2694	2711	2647	2651	2642	2651	2689	2687	2686	2663	2707	2667	2715	2727	2675	2695	2715	2687	2702	2670	2715	2679	2687	2678	2635	2650	2662	2683	2658	2658	2706	2699	2674	2698	2666	2687	2718	2663	2667	2686	2714	2715	2715	2638	2695	2638	2638	2627	2663	2647	2659	2674	2631	2658	2643	2671	2686	2723	2675	2703	2727	2675	2659	2687	2647	2691	2634	2643	2658	2599	2654	2643	2627	2626	2679	2622	2635	2623	2650	2630	2666	2639	2651	2626	2587	2618	2583	2618	2631	2594	2631	2570	2595	2595	2647	2627	2575	2567	2611	2563	2602	2607	2619	2603	2576	2563	2523	2530	2590	2527	2565	2539	2526	2582	2583	2543	2531	2547	2558	2535	2583	2511	2519	2546	2507	2555	2546	2535	2542	2507	2499	2463	2483	2531	2539	2539	2499	2482	2534	2515	2519	2515	2511	2474	2499	2475	2462	2515	2495	2435	2443	2458	2494	2451	2478	2474	2455	2463	2487	2467	2455	2431	2483	2406	2447	2447	2399	2479	2418	2471	2443	2426	2450	2450	2427	2454	2474	2471	2462	2462	2446	2417	2423	2446	2435	2406	2458	2410	2463	2411	2407	2435	2426	2422	2427	2438	2430	2483	2430	2443	2471	2423	2467	2442	2391	2415	2438	2390	2415	2430	2403	2407	2398	2414	2399	2419	2435	2427	2462	2455	2475	2427	2459	2431	2407	2399	2394	2383	2458	2446	2439	2403	2410	2439	2452	2399	2443	2403	2435	2398	2462	2403	2379	2442	2395	2386	2424	2383	2386	2419	2387	2455	2419	2399	2427	2459	2474	2431	2431	2459	2451	2423	2430	2451	2443	2442	2399	2451	2367	2434	2434	2411	2426	2427	2451	2399	2463	2415	2406	2407	2447	2435	2422	2451	2379	