2426	2431	2446	2499	2499	2482	2450	2479	2434	2463	2414	2427	2455	2451	2459	2423	2398	2447	2435	2451	2503	2435	2474	2479	2479	2447	2431	2467	2483	2423	2466	2419	2434	2387	2395	2430	2451	2434	2426	2414	2402	2431	2418	2467	2407	2415	2462	2419	2387	2423	2379	2443	2434	2438	2446	2431	2383	2422	2391	2403	2451	2411	2475	2406	2407	2398	2423	2410	2455	2379	2431	2394	2414	2359	2431	2415	2414	2455	2406	2431	2410	2439	2430	2425	2399	2423	2359	2383	2415	2388	2366	2395	2367	2382	2411	2414	2415	2378	2423	2395	2375	2400	2390	2375	2363	2347	2422	2339	2395	2378	2338	2343	2343	2387	2367	2398	2350	2347	2395	2339	2330	2367	2358	2347	2363	2346	2327	2403	2351	2331	2360	2338	2319	2323	2359	2354	2319	2319	2330	2363	2371	2355	2374	2354	2398	2355	2322	2330	2359	2320	2366	2318	2290	2298	2359	2367	2334	2350	2334	2359	2375	2349	2374	2342	2330	2355	2359	2358	2343	2312	2339	2295	2343	2335	2294	2297	2362	2310	2363	2311	2327	2378	2383	2370	2382	2350	2355	2319	2326	2315	2358	2307	2307	2291	2307	2360	2355	2383	2358	2359	2350	2390	2351	2343	2410	2318	2379	2387	2334	2343	2358	2343	2370	2371	2351	2417	2391	2431	2458	2438	2454	2423	2474	2503	2459	2486	2502	2452	2483	2527	2542	2514	2507	2519	2515	2587	2592	2594	2582	2654	2634	2679	2691	2695	2710	2718	2707	2738	2715	2746	2731	2771	2814	2791	2815	2791	2827	2886	2891	2871	2939	2955	2915	2934	2978	2962	2966	2955	2975	3003	2975	3010	3035	3023	3059	3079	3063	3067	3070	3127	3131	3115	3150	3159	3135	3150	3191	3131	3185	3203	3139	3203	3195	3219	3163	3243	3255	3226	3206	3243	3287	3255	3274	3263	3255	3214	3278	3243	3243	3250	3262	3290	3251	3239	3259	3279	3251	3330	3291	3319	3295	3287	3319	3267	3274	3327	3307	3259	3271	3275	3239	3291	3242	3311	3263	3260	3267	3263	3303	3274	3267	3298	3274	3286	3283	3254	3266	3251	3222	3227	3266	3238	3227	3211	3214	3219	3223	3258	3266	3239	3235	3239	3211	3251	3210	3223	3191	3199	3174	3195	3222	3203	3159	3187	3185	3211	3179	3168	3190	3167	3210	3155	3163	3186	3199	3127	3183	3138	3135	3138	3130	3095	3095	3131	3119	3127	3095	3079	3083	3115	3102	3075	3067	3123	3123	3051	3087	3079	3103	3067	3071	3071	3031	3059	3007	3030	3031	3046	3055	3043	3019	3019	3039	3027	3015	3031	2971	2995	2963	2967	3011	3007	2995	2975	2935	2975	2959	2998	2963	2991	3019	2959	2946	2927	2923	2959	2923	2920	2887	2927	2926	2878	2923	2862	2887	2878	2887	2927	2871	2867	2867	2882	2911	2906	2883	2882	2883	2879	2839	2807	2814	2795	2855	2807	2839	2818	2787	2783	2818	2818	2786	2782	2827	2783	2791	2815	2775	2782	2751	2786	2775	2735	2767	2743	2783	2774	2739	2771	2775	2744	2727	2763	2731	2743	2750	2755	2743	2744	2715	2718	2678	2698	2735	2679	2707	2686	2727	2750	2719	2703	2683	2767	2764	2699	2750	2695	2695	2687	2722	2698	2698	2667	2727	2667	2679	2675	2686	2683	2710	2738	2699	2682	2730	2702	2743	2719	2735	2684	2719	2727	2679	2724	2686	2723	2691	2663	2675	2711	2679	2703	2731	2716	2763	2702	2699	2750	2759	2755	2686	2715	2711	2731	2718	2678	2667	2734	2727	2739	2734	2687	2711	2707	2726	2710	2715	2698	2674	2687	2655	2671	2716	2702	2710	2683	2711	2711	2715	2687	2719	2690	2691	2691	2683	2699	2682	2659	2657	2691	2630	2662	2666	2631	2658	2627	2659	2636	2626	2667	2663	2634	2659	2679	2663	2687	2687	2622	2619	2643	2666	2643	2606	2655	2611	2611	2658	2623	2599	2631	2654	2659	2615	2610	2618	2638	2635	2594	2622	2619	2611	2635	2631	2607	2599	2571	2591	2579	2575	2634	2618	2647	2630	2582	2607	2571	2590	2571	2551	2598	2555	2603	2571	2586	2567	2531	2579	2546	2595	2555	2603	2603	2519	2546	2598	2531	2595	2539	2519	2531	2535	2571	2494	2559	2506	2478	2482	2487	2534	2538	2535	2547	2490	2499	2546	2555	2494	2491	2467	2515	2523	2462	2495	2458	2503	2442	2463	2471	2487	2507	2451	2499	2495	2479	2507	2506	2510	2438	2498	2463	2462	2443	2414	2406	2479	2395	2475	2456	2439	2414	2458	2479	2487	2458	2416	2463	2463	2454	2455	2438	2447	2470	2419	2379	2411	2443	2443	2391	2443	2383	2410	2438	2451	2455	2415	2422	2407	2466	2422	2455	2427	2386	2374	2439	2415	2376	2414	2415	2443	2383	2390	2387	2458	2458	2394	2410	2398	2455	2427	2402	2415	2399	2386	2355	2378	2403	2419	2392	2387	2379	2451	2411	2440	2434	2400	2453	2450	2415	2375	2419	2375	2427	2411	2375	2419	2391	2371	2367	2423	2379	2414	2439	2443	2403	2383	2439	2386	2407	2399	2351	2395	2395	2398	2366	2382	2347	2415	2347	2367	2442	2431	2390	2378	2375	2367	2374	2406	2382	2371	2359	2346	2371	2415	2390	2355	2343	2330	2351	2387	2375	2443	2371	2382	2430	2414	2358	2391	2386	2387	2375	2367	2331	2326	2395	2358	2399	2347	2403	2356	2386	2342	2378	2394	2358	2394	2375	2367	2334	2379	2402	2391	2371	2319	2323	2343	2318	2390	2334	2347	2323	2326	2391	2419	2411	2398	2399	2391	2351	2382	2362	2318	2370	2351	2379	2314	2363	2354	2323	2335	2343	2366	2403	2383	2359	2411	2423	2391	2399	2363	2407	2375	2390	2327	2370	2330	2399	2394	2370	2390	2383	2403	2383	2419	2403	2379	2367	2407	2362	2335	2390	2355	2383	2387	2346	2380	2359	2403	2334	2391	2398	2358	2351	2351	2415	2363	2411	2386	2343	2375	2363	2343	2343	2330	2335	2358	2399	2386	2342	2343	2419	2363	2402	2353	2395	2393	2392	2335	2395	2338	2391	2362	2335	2366	2307	2318	2351	2375	2319	2342	2330	2366	2391	2354	2347	2363	2342	2339	2311	2323	2319	2371	2346	2359	2355	2330	2303	2355	2299	2307	2314	2318	2335	2370	2303	2315	2367	2293	2287	2342	2310	2338	2274	2310	2283	2343	2279	2311	2275	2294	2298	2334	2290	2359	2342	2343	2331	2323	2299	2283	2322	2284	2315	2254	2262	2279	2303	2289	2318	2259	2319	2327	2311	2352	2319	2351	2279	2326	2283	2271	2274	2295	2314	2314	2251	2303	2275	2255	2302	2323	2330	2330	2299	2323	2353	2318	2319	2330	2335	2302	2267	2327	2290	2291	2315	2319	2294	2318	2306	2282	2364	2338	2310	2326	2311	2363	2311	2399	2383	2327	2314	2346	2311	2359	2323	2363	2330	2367	2351	2387	2406	2418	2449	2447	2435	2458	2435	2431	2478	2487	2474	2503	2455	2507	2523	2551	2559	2547	2571	2599	2575	2655	2603	2667	2631	2687	2719	2651	2687	2699	2675	2682	2743	2723	2742	2759	2763	2770	2814	2851	2830	2891	2895	2895	2874	2918	2951	2919	2927	2979	2923	2947	2966	2938	2955	2978	3027	2991	2998	3023	3075	3110	3064	3059	3123	3091	3082	3127	3082	3070	3087	3075	3099	3115	3103	3131	3111	3162	3150	3203	3199	3219	3231	3198	3194	3191	3195	3235	3171	3218	3203	3182	3203	3203	3203	3210	3179	3205	3211	3207	3194	3210	3199	3203	3234	3243	3250	3255	3198	3195	3155	3203	3215	3174	3155	3183	3171	3187	3211	3179	3183	3182	3191	3207	3211	3179	3175	3179	3154	3171	3134	3155	3167	3123	3135	3155	3166	3119	3179	3152	3194	3175	3143	3198	3159	3135	3199	3139	3123	3171	3099	3127	3123	3143	3139	3095	3082	3107	3079	3087	3107	3130	3147	3135	3087	3079	3131	3086	3099	3063	3095	3079	3075	3067	3067	3067	3087	3035	3067	3043	3086	3043	3031	3023	3063	3059	3030	3046	3055	2999	2995	3027	2986	3015	2959	3015	3007	2971	3026	3015	3011	2975	2950	2978	3003	2935	2926	2947	2999	2927	2947	2971	2910	2926	2894	2935	2939	2895	2895	2930	2899	2962	2931	2919	2929	2927	2899	2871	2859	2851	2850	2863	2838	2818	2807	2832	2811	2807	2815	2835	2810	2855	2843	2795	2807	2846	2850	2787	2775	2762	2798	2779	2799	2763	2751	2763	2763	2759	2729	2790	2798	2787	2723	2790	2751	2755	2774	2731	2747	2771	2738	2730	2695	2735	2671	2742	2691	2743	2663	2707	2726	2719	2699	2675	2687	2714	2734	2711	2703	2672	2715	2638	2642	2639	2703	2650	2639	2651	2679	2647	2651	2678	2727	2674	2686	2678	2706	2683	2663	2675	2678	2651	2619	2622	2623	2615	2627	2643	2662	2681	2659	2639	2674	2635	2630	2674	2691	2687	2647	2623	2611	2656	2590	2659	2605	2618	2646	2639	2679	2678	2682	2630	2667	2694	2643	2618	2654	2611	2631	2639	2600	2619	2595	2655	2623	2635	2642	2599	2671	2598	2675	2662	2635	2603	2676	2610	2670	2647	2595	2631	2639	2598	2646	2574	2619	2631	2610	2603	2651	2623	2618	2650	2631	2675	2650	2587	2662	2631	2638	2626	2578	2594	2595	2599	2587	2610	2607	2611	2551	2603	2599	2583	2599	2583	2571	2627	2627	2603	2586	2607	2574	2590	2607	2539	2546	2575	2562	2523	2575	2558	2587	2599	2595	2606	2563	2544	2522	2547	2515	2499	2567	2523	2546	2511	2490	2491	2502	2507	2531	2554	2504	2490	2538	2486	2563	2547	2535	2531	2514	2507	2519	2499	2494	2463	2474	2483	2467	2466	2490	2451	2471	2486	2454	2486	2446	2502	2461	2471	2447	2463	2419	2423	2419	2430	2415	2446	2455	2467	2399	2458	2435	2427	2479	2474	2467	2426	2435	2450	2422	2451	2390	2423	2423	2375	2367	2415	2411	2371	2371	2362	2427	2422	2371	2398	2406	2440	2407	2415	2387	2439	2374	2398	2435	2351	2415	2406	2354	2387	2354	2382	2378	2431	2386	2435	2386	2367	2431	2383	2358	2395	2354	2330	2382	2327	2379	2326	2406	2360	2393	2403	2414	2407	2366	2371	2359	2374	2391	2390	2331	2367	2391	2363	2340	2331	2318	2339	2343	2355	2379	2327	2394	2346	2349	2402	2403	2378	2367	2359	2383	2330	2367	2383	2339	2347	2314	2303	2311	2307	2319	2326	2354	2387	2394	2391	2327	2358	2303	2326	2351	2347	2330	2347	2311	2366	2318	2382	2354	2294	2342	2379	2359	2374	2359	2344	2395	2391	2323	2358	2339	2331	2354	2351	2299	2306	2307	2347	2370	2314	2351	2314	2346	2343	2370	2386	2343	2331	2319	2343	2326	2342	2371	2311	2374	2356	2347	2327	2379	2319	2338	2327	2374	2334	2371	2355	2387	2379	2387	2359	2343	2355	2314	2307	2302	2342	2354	2362	2355	2323	2365	2339	2342	2387	2367	2335	2330	2342	2331	2327	2354	2339	2331	2347	2310	2311	2334	2303	2294	2363	2366	2310	2331	2327	2354	2310	2331	2330	2342	2334	2367	2351	2351	2331	2290	2282	2299	2331	2311	2295	2318	2322	2350	2374	2343	2334	2351	2371	2342	2372	2318	2323	2315	2350	2346	2266	2323	2323	2355	2303	2315	2303	2354	2339	2378	2315	2382	2343	2327	2366	2315	2327	2351	2343	2318	2286	2355	2327	2323	2367	2355	2303	2319	2318	2354	2343	2327	2366	2367	2319	2359	2354	2327	2323	2286	2340	2287	2342	2295	2322	2306	2374	2327	2299	2334	2347	2347	2331	2334	2322	2283	2283	2307	2350	2334	2346	2334	2338	2306	2314	2296	2327	2316	2287	2298	2318	2319	2346	2331	2310	2350	2307	2326	2298	2311	2306	2271	2299	2322	2329	2271	2307	2347	2294	2307	2338	2295	2343	2315	2347	2291	2275	2330	2287	2322	2271	2279	2324	2283	2319	2275	2275	2286	2342	2278	2311	2291	2286	2279	2331	2246	2243	2270	2290	2276	2243	2223	2234	2283	2280	2278	2274	2283	2278	2232	2267	2303	2247	2270	2247	2294	2263	2270	2200	2243	2238	2259	2187	2263	2257	2283	2299	2226	2275	2250	2228	2238	2267	2298	2279	2286	2227	2231	2239	2230	2250	2246	2263	2231	2271	2291	2259	2298	2287	2283	2291	2287	2291	2251	2243	2241	2279	2267	2237	2266	2282	2243	2283	2310	2287	2327	2282	2323	2283	2302	2319	2351	2362	2362	2383	2299	2310	2394	2351	2371	2406	2394	2378	2427	2390	2406	2491	2419	2499	2479	2483	2523	2526	2498	2522	2543	2571	2523	2543	2578	2547	2627	2599	2595	2664	2695	2667	2710	2739	2723	2759	2755	2811	2767	2803	2803	2763	2783	2794	2855	2867	2895	2902	2854	2887	2947	2966	2986	2947	2935	2987	3019	2994	2979	3027	2990	3031	3031	3062	3067	3075	3091	3067	3051	3121	3135	3091	3103	3146	3151	