2691	2718	2743	2738	2807	2811	2855	2846	2851	2850	2851	2910	2858	2922	2915	2927	2894	2950	2967	2915	2963	2963	3007	3007	2987	2984	3043	3067	3046	3055	3031	3082	3070	3087	3110	3063	3095	3134	3115	3079	3091	3114	3091	3107	3139	3151	3147	3151	3135	3135	3155	3150	3191	3214	3163	3159	3186	3155	3195	3210	3208	3191	3171	3151	3151	3202	3190	3239	3259	3179	3183	3179	3166	3187	3175	3187	3231	3175	3172	3174	3155	3186	3163	3159	3207	3155	3190	3215	3167	3195	3191	3154	3182	3191	3166	3171	3167	3139	3190	3146	3115	3147	3119	3187	3143	3166	3151	3139	3199	3156	3119	3135	3158	3139	3095	3131	3096	3139	3118	3138	3087	3087	3083	3107	3079	3079	3131	3079	3075	3103	3094	3115	3054	3079	3075	3031	3024	3067	3051	3059	3011	3015	3031	3024	3018	3026	3059	3059	3035	3063	3040	2997	3050	3023	2967	3010	2979	2967	2935	2942	2939	2975	2999	2979	2939	2951	2991	2971	2943	2995	2939	2987	2947	2975	2903	2939	2879	2923	2874	2903	2931	2867	2919	2883	2914	2903	2899	2907	2923	2910	2891	2851	2862	2850	2883	2803	2866	2850	2795	2815	2799	2828	2843	2778	2826	2807	2783	2807	2814	2783	2815	2827	2811	2830	2767	2779	2791	2743	2734	2787	2751	2715	2723	2754	2779	2711	2779	2758	2751	2751	2731	2763	2726	2755	2738	2727	2735	2659	2711	2719	2670	2690	2651	2671	2703	2719	2666	2722	2711	2723	2691	2703	2711	2667	2691	2675	2643	2702	2655	2655	2651	2635	2631	2630	2678	2646	2655	2639	2694	2638	2651	2663	2651	2611	2670	2643	2635	2614	2634	2611	2599	2674	2627	2675	2627	2638	2699	2694	2695	2639	2643	2642	2683	2686	2618	2634	2662	2661	2682	2626	2634	2667	2639	2678	2626	2615	2623	2644	2627	2639	2643	2687	2670	2675	2667	2626	2636	2618	2619	2678	2655	2602	2603	2647	2627	2663	2646	2691	2662	2635	2651	2683	2631	2611	2691	2619	2643	2614	2635	2603	2619	2607	2650	2598	2646	2650	2655	2671	2647	2606	2599	2675	2674	2639	2639	2619	2651	2606	2603	2610	2602	2603	2603	2583	2658	2591	2646	2603	2642	2603	2663	2606	2607	2599	2571	2551	2618	2583	2554	2595	2539	2574	2579	2590	2587	2530	2579	2543	2610	2570	2579	2571	2567	2563	2523	2571	2522	2567	2558	2518	2547	2514	2483	2495	2550	2530	2574	2498	2558	2491	2499	2543	2526	2555	2494	2507	2498	2478	2506	2479	2471	2511	2487	2487	2531	2527	2503	2522	2518	2511	2495	2491	2454	2474	2455	2511	2467	2454	2444	2455	2447	2455	2423	2499	2492	2471	2503	2447	2443	2447	2475	2499	2451	2430	2463	2431	2454	2439	2426	2447	2436	2394	2454	2446	2390	2458	2455	2423	2447	2418	2407	2446	2410	2411	2382	2379	2374	2422	2375	2363	2387	2379	2379	2427	2451	2435	2403	2422	2434	2374	2407	2427	2422	2390	2395	2358	2395	2406	2338	2371	2419	2379	2390	2367	2379	2371	2358	2407	2378	2398	2403	2355	2354	2419	2395	2343	2315	2355	2398	2335	2318	2355	2378	2331	2371	2386	2343	2359	2343	2384	2346	2363	2379	2335	2343	2375	2359	2347	2351	2307	2371	2339	2382	2339	2338	2339	2371	2323	2371	2303	2314	2354	2370	2347	2291	2282	2315	2331	2279	2330	2311	2314	2335	2323	2356	2303	2323	2311	2319	2378	2343	2366	2350	2355	2286	2291	2330	2347	2355	2327	2279	2375	2339	2352	2367	2314	2318	2342	2335	2382	2395	2374	2306	2335	2338	2319	2291	2299	2355	2322	2296	2326	2319	2319	2295	2355	2346	2375	2351	2331	2383	2387	2338	2331	2318	2330	2351	2335	2327	2362	2362	2323	2342	2322	2323	2343	2338	2378	2371	2338	2351	2326	2315	2355	2342	2343	2327	2307	2359	2327	2315	2346	2299	2323	2371	2339	2370	2299	2331	2326	2342	2315	2299	2318	2347	2311	2294	2323	2271	2343	2335	2343	2339	2307	2294	2279	2294	2315	2299	2358	2323	2322	2343	2323	2351	2282	2319	2323	2271	2267	2263	2303	2291	2294	2283	2283	2303	2323	2330	2278	2290	2331	2303	2274	2251	2299	2306	2255	2275	2283	2243	2243	2258	2309	2271	2291	2263	2335	2304	2283	2263	2347	2274	2275	2315	2258	2263	2242	2239	2234	2287	2263	2259	2267	2255	2266	2315	2322	2270	2315	2295	2298	2247	2303	2259	2323	2307	2315	2266	2239	2267	2266	2271	2312	2282	2303	2281	2330	2319	2298	2282	2290	2298	2294	2263	2275	2323	2315	2271	2315	2295	2250	2259	2279	2323	2283	2275	2303	2239	2267	2259	2312	2319	2315	2259	2247	2276	2260	2295	2271	2275	2274	2283	2294	2256	2231	2239	2271	2278	2222	2230	2262	2282	2222	2259	2194	2250	2222	2255	2259	2210	2199	2195	2191	2218	2247	2262	2198	2258	2203	2257	2218	2203	2194	2187	2175	2263	2255	2218	2246	2183	2195	2223	2206	2206	2238	2242	2215	2200	2271	2226	2254	2203	2235	2242	2187	2275	2234	2203	2243	2243	2222	2215	2235	2258	2227	2266	2247	2267	2295	2304	2271	2290	2311	2303	2331	2267	2292	2283	2286	2295	2327	2370	2422	2347	2387	2434	2431	2458	2454	2458	2470	2468	2458	2551	2490	2554	2554	2567	2547	2595	2567	2619	2606	2622	2639	2647	2714	2691	2738	2699	2707	2785	2751	2743	2754	2811	2823	2786	2798	2871	2823	2855	2843	2926	2915	2890	2910	2955	2924	2979	2954	2958	2990	3010	2975	2999	2999	2987	3022	3002	3063	3035	3083	3038	3063	3090	3127	3131	3090	3127	3079	3086	3139	3122	3155	3151	3095	3148	3099	3115	3131	3171	3127	3174	3146	3158	3158	3160	3243	3162	3175	3152	3171	3179	3154	3190	3162	3158	3151	3139	3150	3171	3195	3183	3224	3214	3218	3203	3183	3167	3207	3159	3166	3167	3183	3147	3179	3179	3167	3166	3139	3143	3147	3158	3146	3155	3186	3159	3143	3174	3154	3135	3129	3167	3098	3119	3114	3122	3070	3115	3115	3071	3115	3099	3082	3107	3114	3095	3095	3079	3079	3095	3055	3095	3079	3059	3055	3071	3019	3031	3019	3050	3007	3079	3035	3027	3071	3063	3087	3071	3007	3063	3011	3047	3007	2994	2962	2963	3004	2986	2982	3010	3023	3023	2987	2986	3006	2999	3007	2986	2987	3002	2982	2919	2970	2979	2959	2967	2907	2955	2903	2950	2959	2910	2967	2890	2927	2931	2923	2895	2885	2879	2915	2878	2871	2847	2890	2858	2879	2894	2879	2810	2826	2827	2815	2862	2807	2841	2847	2823	2835	2779	2846	2807	2771	2794	2767	2779	2747	2750	2767	2770	2710	2763	2783	2711	2766	2714	2715	2731	2695	2726	2728	2719	2699	2715	2670	2695	2671	2686	2658	2667	2679	2650	2715	2666	2684	2667	2659	2647	2639	2690	2614	2611	2611	2659	2651	2602	2591	2595	2646	2610	2646	2614	2619	2670	2660	2623	2611	2642	2615	2630	2618	2603	2622	2579	2570	2575	2602	2598	2655	2626	2626	2654	2591	2655	2651	2658	2618	2639	2671	2602	2631	2591	2623	2583	2596	2609	2586	2583	2587	2622	2619	2615	2623	2650	2634	2666	2659	2679	2623	2638	2682	2623	2634	2651	2651	2607	2667	2603	2667	2651	2639	2623	2638	2631	2702	2627	2667	2659	2622	2627	2699	2631	2642	2683	2599	2616	2603	2623	2638	2655	2675	2655	2627	2646	2687	2702	2715	2643	2658	2700	2691	2614	2618	2602	2595	2675	2640	2663	2655	2599	2667	2635	2623	2663	2642	2651	2651	2610	2670	2663	2591	2651	2643	2595	2595	2610	2559	2598	2643	2655	2655	2599	2599	2582	2595	2582	2627	2583	2595	2638	2615	2586	2543	2596	2535	2618	2538	2559	2599	2587	2591	2540	2606	2626	2614	2571	2595	2571	2539	2530	2547	2539	2518	2575	2519	2510	2567	2555	2559	2536	2554	2578	2587	2566	2519	2566	2566	2555	2522	2516	2559	2550	2479	2475	2542	2470	2524	2494	2523	2467	2467	2499	2547	2546	2550	2478	2499	2542	2507	2471	2494	2503	2518	2490	2446	2470	2503	2458	2463	2462	2463	2479	2450	2519	2459	2515	2446	2459	2463	2435	2506	2450	2478	2470	2427	2454	2439	2475	2447	2431	2447	2442	2470	2479	2447	2474	2455	2406	2423	2458	2394	2406	2427	2378	2389	2415	2439	2418	2435	2422	2419	2431	2446	2403	2459	2407	2450	2427	2415	2439	2402	2374	2362	2346	2376	2423	2367	2362	2371	2411	2399	2387	2387	2390	2406	2414	2414	2439	2374	2400	2439	2407	2370	2378	2332	2367	2362	2354	2355	2399	2406	2415	2386	2391	2418	2398	2379	2411	2399	2359	2431	2403	2375	2358	2375	2363	2340	2343	2366	2351	2354	2398	2354	2402	2383	2371	2415	2403	2358	2387	2371	2346	2363	2367	2383	2335	2346	2363	2342	2354	2323	2419	2399	2355	2382	2365	2366	2363	2362	2367	2335	2339	2351	2375	2335	2330	2351	2358	2383	2370	2363	2398	2347	2338	2367	2391	2430	2383	2343	2403	2382	2351	2339	2363	2366	2338	2326	2395	2350	2347	2351	2394	2358	2387	2383	2367	2350	2343	2398	2330	2351	2367	2379	2322	2379	2314	2326	2335	2321	2362	2359	2351	2394	2391	2371	2367	2326	2343	2403	2370	2399	2352	2387	2379	2322	2387	2330	2395	2391	2351	2367	2386	2338	2358	2363	2411	2379	2326	2344	2358	2355	2370	2335	2362	2363	2379	2359	2370	2359	2351	2355	2374	2371	2367	2379	2346	2359	2366	2331	2323	2335	2303	2347	2344	2367	2376	2371	2343	2318	2319	2391	2320	2310	2394	2366	2331	2338	2323	2382	2390	2339	2379	2299	2362	2315	2330	2363	2375	2359	2311	2323	2375	2343	2359	2359	2387	2386	2388	2322	2327	2330	2354	2327	2347	2367	2298	2363	2371	2350	2379	2322	2303	2359	2366	2315	2335	2378	2307	2358	2318	2339	2302	2307	2338	2331	2282	2270	2290	2295	2347	2327	2358	2358	2331	2367	2323	2315	2310	2307	2335	2303	2316	2283	2314	2254	2289	2267	2323	2271	2343	2295	2339	2322	2323	2307	2326	2266	2311	2319	2279	2274	2307	2247	2262	2275	2256	2306	2263	2302	2299	2283	2286	2298	2311	2271	2278	2287	2282	2327	2279	2250	2274	2259	2314	2314	2259	2251	2259	2251	2279	2287	2274	2306	2334	2307	2331	2275	2271	2314	2278	2259	2323	2291	2271	2270	2335	2291	2302	2338	2290	2347	2327	2303	2410	2379	2337	2355	2358	2334	2391	2399	2359	2431	2375	2399	2455	2422	2455	2483	2478	2515	2519	2486	2554	2543	2531	2562	2586	2567	2631	2583	2627	2606	2654	2679	2670	2703	2699	2731	2735	2739	2775	2791	2835	2798	2799	2795	2831	2830	2879	2883	2903	2895	2911	2919	2883	2931	2912	2955	2950	2939	2999	2967	2990	3038	2999	2995	3043	3067	3031	3064	3070	3090	3039	3051	3054	3098	3111	3074	3135	3107	3095	3175	3119	3143	3159	3146	3170	3135	3163	3154	3139	3123	3186	3151	3183	3159	3193	3163	3152	3219	3179	3159	3247	3199	3203	3214	3171	3154	3167	3183	3155	3187	3171	3130	3186	3114	3147	3166	3187	3151	3171	3158	3147	3138	3135	3175	3151	3158	3191	3134	3163	3127	3163	3155	3166	3155	3091	3135	3155	3171	3159	3099	3135	3099	3099	3123	3111	3107	3062	3127	3111	3046	3038	3031	3026	3043	3087	3071	3099	3078	3027	3039	3051	3087	3075	3055	3014	3039	3027	3010	3038	2999	2995	3026	3042	3023	2971	2975	2982	2971	3026	3022	3046	3019	3039	2983	3003	3010	2959	2934	2987	2963	2942	2943	2987	2978	2938	2965	2923	2998	2911	2967	2914	2927	2942	2895	2958	2878	2946	2922	2919	2914	2897	2878	2843	2839	2886	2835	2902	2838	2889	2851	2862	2855	2830	2851	2830	2831	2838	2831	2832	2759	2814	2823	2806	2754	2742	2799	2787	2774	2782	2755	2762	2810	2751	2719	2768	2702	2767	2691	2724	2691	2702	2743	2730	2667	2715	2654	2655	2659	2692	2731	2719	2706	2682	2706	2699	2643	2691	2679	2615	2619	2654	2623	2655	2605	2627	2663	2651	2635	2667	2651	2607	2618	2650	2651	2635	2646	2655	2614	2638	2559	2618	2595	2615	2603	2602	2579	2591	2603	2587	2598	2638	2662	2650	2582	2627	2638	2642	2587	2634	2614	2602	2598	2615	2583	2563	2614	2595	2594	2607	2587	2591	2618	2615	2595	2599	2646	2659	2584	2603	2615	2627	2583	2614	2571	2595	2619	2646	2643	2655	2659	2622	2691	2643	2647	2622	2640	2640	2623	2586	2607	2610	2595	2583	2655	2610	2606	2622	2651	2607	2666	2626	2663	2623	2631	2623	2627	2674	2670	2662	2647	2631	2611	2639	2623	