1863.0	1863.0	1863.0	1867.0	1867.0	1871.0	1871.0	1871.0	1819.0	1819.0	1839.0	1839.0	1839.0	1832.0	1832.0	1841.0	1841.0	1841.0	1818.0	1818.0	1845.0	1845.0	1845.0	1824.0	1824.0	1833.0	1833.0	1833.0	1863.0	1863.0	1828.0	1828.0	1828.0	1862.0	1862.0	1868.0	1868.0	1868.0	1868.0	1868.0	1875.0	1875.0	1875.0	1839.0	1839.0	1817.0	1817.0	1817.0	1843.0	1843.0	1823.0	1823.0	1823.0	1865.0	1865.0	1864.0	1864.0	1864.0	1848.0	1848.0	1871.0	1871.0	1813.0	1813.0	1813.0	1865.0	1865.0	1811.0	1811.0	1811.0	1869.0	1869.0	1866.0	1866.0	1866.0	1814.0	1814.0	1881.0	1881.0	1881.0	1878.0	1878.0	1866.0	1866.0	1866.0	1850.0	1850.0	1811.0	1811.0	1811.0	1826.0	1826.0	1860.0	1860.0	1860.0	1861.0	1861.0	1826.0	1826.0	1826.0	1863.0	1863.0	1838.0	1838.0	1838.0	1869.0	1869.0	1869.0	1869.0	1869.0	1839.0	1839.0	1859.0	1859.0	1859.0	1822.0	1822.0	1870.0	1870.0	1870.0	1864.0	1864.0	1855.0	1855.0	1855.0	1869.0	1869.0	1857.0	1857.0	1857.0	1834.0	1834.0	1812.0	1812.0	1812.0	1848.0	1848.0	1811.0	1811.0	1811.0	1835.0	1835.0	1819.0	1819.0	1819.0	1823.0	1823.0	1841.0	1841.0	1841.0	1839.0	1839.0	1865.0	1865.0	1865.0	1830.0	1830.0	1824.0	1824.0	1824.0	1847.0	1847.0	1805.0	1805.0	1805.0	1873.0	1873.0	1853.0	1853.0	1853.0	1816.0	1816.0	1867.0	1867.0	1867.0	1853.0	1853.0	1807.0	1807.0	1807.0	1834.0	1834.0	1829.0	1829.0	1829.0	1812.0	1812.0	1855.0	1855.0	1855.0	1847.0	1847.0	1858.0	1858.0	1858.0	1859.0	1859.0	1808.0	1808.0	1808.0	1803.0	1803.0	1813.0	1813.0	1813.0	1858.0	1858.0	1805.0	1805.0	1805.0	1842.0	1842.0	1828.0	1828.0	1828.0	1858.0	1858.0	1803.0	1803.0	1803.0	1861.0	1861.0	1840.0	1840.0	1840.0	1848.0	1848.0	1839.0	1839.0	1839.0	1834.0	1834.0	1820.0	1820.0	1820.0	1807.0	1807.0	1878.0	1878.0	1878.0	1809.0	1809.0	1873.0	1873.0	1873.0	1865.0	1865.0	1808.0	1808.0	1808.0	1842.0	1842.0	1811.0	1811.0	1811.0	1858.0	1858.0	1837.0	1837.0	1837.0	1829.0	1829.0	1810.0	1810.0	1810.0	1811.0	1811.0	1827.0	1827.0	1821.0	1821.0	1821.0	1842.0	1842.0	1838.0	1838.0	1838.0	1833.0	1833.0	1847.0	1847.0	1847.0	1879.0	1879.0	1845.0	1845.0	1845.0	1862.0	1862.0	1850.0	1850.0	1850.0	1878.0	1878.0	1893.0	1893.0	1893.0	1908.0	1908.0	1902.0	1902.0	1902.0	1907.0	1907.0	1927.0	1927.0	1927.0	1951.0	1951.0	1990.0	1990.0	1990.0	1992.0	1992.0	1981.0	1981.0	1981.0	2027.0	2027.0	2048.0	2048.0	2048.0	2012.0	2012.0	2028.0	2028.0	2028.0	2074.0	2074.0	2080.0	2080.0	2080.0	2086.0	2086.0	2089.0	2089.0	2089.0	2123.0	2123.0	2126.0	2126.0	2126.0	2121.0	2121.0	2179.0	2179.0	2179.0	2160.0	2160.0	2210.0	2210.0	2210.0	2175.0	2175.0	2185.0	2185.0	2185.0	2185.0	2185.0	2260.0	2260.0	2260.0	2209.0	2209.0	2261.0	2261.0	2261.0	2269.0	2269.0	2232.0	2232.0	2232.0	2300.0	2300.0	2264.0	2264.0	2264.0	2303.0	2303.0	2302.0	2302.0	2302.0	2299.0	2299.0	2325.0	2325.0	2325.0	2276.0	2276.0	2320.0	2320.0	2320.0	2311.0	2311.0	2317.0	2317.0	2317.0	2318.0	2318.0	2318.0	2318.0	2318.0	2331.0	2331.0	2309.0	2309.0	2309.0	2362.0	2362.0	2342.0	2342.0	2342.0	2322.0	2322.0	2368.0	2368.0	2368.0	2343.0	2343.0	2307.0	2307.0	2307.0	2350.0	2350.0	2358.0	2358.0	2358.0	2320.0	2320.0	2342.0	2342.0	2342.0	2364.0	2364.0	2375.0	2375.0	2375.0	2339.0	2339.0	2371.0	2371.0	2371.0	2365.0	2365.0	2344.0	2344.0	2344.0	2325.0	2325.0	2377.0	2377.0	2377.0	2338.0	2338.0	2363.0	2363.0	2363.0	2369.0	2369.0	2355.0	2355.0	2355.0	2346.0	2346.0	2335.0	2335.0	2335.0	2379.0	2379.0	2343.0	2343.0	2400.0	2400.0	2400.0	2348.0	2348.0	2337.0	2337.0	2337.0	2337.0	2337.0	2331.0	2331.0	2331.0	2344.0	2344.0	2343.0	2343.0	2343.0	2403.0	2403.0	2356.0	2356.0	2356.0	2368.0	2368.0	2399.0	2399.0	2399.0	2359.0	2359.0	2352.0	2352.0	2352.0	2345.0	2345.0	2386.0	2386.0	2386.0	2371.0	2371.0	2352.0	2352.0	2352.0	2378.0	2378.0	2361.0	2361.0	2361.0	2319.0	2319.0	2380.0	2380.0	2380.0	2334.0	2334.0	2358.0	2358.0	2358.0	2376.0	2376.0	2317.0	2317.0	2317.0	2335.0	2335.0	2297.0	2297.0	2297.0	2313.0	2313.0	2335.0	2335.0	2335.0	2286.0	2286.0	2327.0	2327.0	2327.0	2262.0	2262.0	2289.0	2289.0	2289.0	2305.0	2305.0	2308.0	2308.0	2308.0	2264.0	2264.0	2247.0	2247.0	2247.0	2250.0	2250.0	2233.0	2233.0	2233.0	2263.0	2263.0	2204.0	2204.0	2204.0	2241.0	2241.0	2187.0	2187.0	2187.0	2181.0	2181.0	2218.0	2218.0	2218.0	2169.0	2169.0	2169.0	2169.0	2169.0	2206.0	2206.0	2154.0	2154.0	2154.0	2158.0	2158.0	2146.0	2146.0	2146.0	2194.0	2194.0	2164.0	2164.0	2164.0	2130.0	2130.0	2129.0	2129.0	2129.0	2120.0	2120.0	2138.0	2138.0	2138.0	2123.0	2123.0	2134.0	2134.0	2134.0	2138.0	2138.0	2120.0	2120.0	2120.0	2108.0	2108.0	2132.0	2132.0	2132.0	2092.0	2092.0	2110.0	2110.0	2110.0	2083.0	2083.0	2070.0	2070.0	2070.0	2103.0	2103.0	2069.0	2069.0	2069.0	2110.0	2110.0	2102.0	2102.0	2102.0	2081.0	2081.0	2104.0	2104.0	2104.0	2094.0	2094.0	2064.0	2064.0	2064.0	2086.0	2086.0	2055.0	2055.0	2055.0	2098.0	2098.0	2049.0	2049.0	2049.0	2062.0	2062.0	2106.0	2106.0	2069.0	2069.0	2069.0	2066.0	2066.0	2061.0	2061.0	2061.0	2074.0	2074.0	2059.0	2059.0	2059.0	2093.0	2093.0	2051.0	2051.0	2051.0	2100.0	2100.0	2079.0	2079.0	2079.0	2059.0	2059.0	2087.0	2087.0	2087.0	2044.0	2044.0	2065.0	2065.0	2065.0	2063.0	2063.0	2074.0	2074.0	2074.0	2090.0	2090.0	2080.0	2080.0	2080.0	2021.0	2021.0	2021.0	2021.0	2021.0	2058.0	2058.0	2011.0	2011.0	2011.0	2015.0	2015.0	2048.0	2048.0	2048.0	2020.0	2020.0	2024.0	2024.0	2024.0	2004.0	2004.0	2015.0	2015.0	2015.0	2039.0	2039.0	2053.0	2053.0	2053.0	2047.0	2047.0	2037.0	2037.0	2037.0	2006.0	2006.0	2021.0	2021.0	2021.0	2026.0	2026.0	2032.0	2032.0	2032.0	1991.0	1991.0	2020.0	2020.0	2020.0	2014.0	2014.0	2031.0	2031.0	2031.0	2015.0	2015.0	1962.0	1962.0	1962.0	1979.0	1979.0	2017.0	2017.0	2017.0	2013.0	2013.0	2024.0	2024.0	2024.0	2008.0	2008.0	1982.0	1982.0	1982.0	1993.0	1993.0	1974.0	1974.0	1974.0	1952.0	1952.0	1961.0	1961.0	1961.0	1994.0	1994.0	1934.0	1934.0	1934.0	1950.0	1950.0	1933.0	1933.0	1933.0	1956.0	1956.0	1937.0	1937.0	1937.0	1983.0	1983.0	1932.0	1932.0	1932.0	1975.0	1975.0	1989.0	1989.0	1989.0	1973.0	1973.0	1965.0	1965.0	1965.0	1976.0	1976.0	1980.0	1980.0	1980.0	1981.0	1981.0	1964.0	1964.0	1964.0	1932.0	1932.0	1956.0	1956.0	1956.0	1915.0	1915.0	1907.0	1907.0	1907.0	1931.0	1931.0	1915.0	1915.0	1915.0	1898.0	1898.0	1946.0	1946.0	1946.0	1899.0	1899.0	1906.0	1906.0	1906.0	1916.0	1916.0	1948.0	1948.0	1948.0	1951.0	1951.0	1953.0	1953.0	1953.0	1923.0	1923.0	1943.0	1943.0	1914.0	1914.0	1914.0	1887.0	1887.0	1885.0	1885.0	1885.0	1938.0	1938.0	1935.0	1935.0	1935.0	1890.0	1890.0	1933.0	1933.0	1933.0	1904.0	1904.0	1946.0	1946.0	1946.0	1943.0	1943.0	1910.0	1910.0	1910.0	1901.0	1901.0	1934.0	1934.0	1934.0	1921.0	1921.0	1892.0	1892.0	1892.0	1881.0	1881.0	1883.0	1883.0	1883.0	1925.0	1925.0	1882.0	1882.0	1882.0	1902.0	1902.0	1920.0	1920.0	1920.0	1905.0	1905.0	1870.0	1870.0	1870.0	1900.0	1900.0	1862.0	1862.0	1862.0	1925.0	1925.0	1879.0	1879.0	1879.0	1917.0	1917.0	1931.0	1931.0	1931.0	1859.0	1859.0	1899.0	1899.0	1899.0	1864.0	1864.0	1856.0	1856.0	1856.0	1857.0	1857.0	1913.0	1913.0	1913.0	1916.0	1916.0	1863.0	1863.0	1863.0	1893.0	1893.0	1848.0	1848.0	1848.0	1898.0	1898.0	1866.0	1866.0	1866.0	1862.0	1862.0	1895.0	1895.0	1895.0	1906.0	1906.0	1853.0	1853.0	1853.0	1874.0	1874.0	1881.0	1881.0	1881.0	1890.0	1890.0	1845.0	1845.0	1845.0	1855.0	1855.0	1885.0	1885.0	1885.0	1869.0	1869.0	1847.0	1847.0	1847.0	1897.0	1897.0	1842.0	1842.0	1842.0	1834.0	1834.0	1845.0	1845.0	1845.0	1862.0	1862.0	1847.0	1847.0	1847.0	1902.0	1902.0	1886.0	1886.0	1886.0	1892.0	1892.0	1840.0	1840.0	1840.0	1865.0	1865.0	1869.0	1869.0	1869.0	1900.0	1900.0	1894.0	1894.0	1894.0	1885.0	1885.0	1860.0	1860.0	1860.0	1866.0	1866.0	1884.0	1884.0	1884.0	1836.0	1836.0	1870.0	1870.0	1870.0	1828.0	1828.0	1839.0	1839.0	1839.0	1868.0	1868.0	1867.0	1867.0	1867.0	1835.0	1835.0	1867.0	1867.0	1867.0	1844.0	1844.0	1859.0	1859.0	1870.0	1870.0	1870.0	1872.0	1872.0	1876.0	1876.0	1876.0	1889.0	1889.0	1843.0	1843.0	1843.0	1878.0	1878.0	1858.0	1858.0	1858.0	1876.0	1876.0	1848.0	1848.0	1848.0	1855.0	1855.0	1864.0	1864.0	1864.0	1871.0	1871.0	1861.0	1861.0	1861.0	1817.0	1817.0	1832.0	1832.0	1832.0	1844.0	1844.0	1862.0	1862.0	1862.0	1852.0	1852.0	1846.0	1846.0	1846.0	1885.0	1885.0	1862.0	1862.0	1862.0	1847.0	1847.0	1878.0	1878.0	1878.0	1856.0	1856.0	1880.0	1880.0	1880.0	1860.0	1860.0	1875.0	1875.0	1875.0	1828.0	1828.0	1888.0	1888.0	1888.0	1855.0	1855.0	1853.0	1853.0	1853.0	1860.0	1860.0	1821.0	1821.0	1821.0	1876.0	1876.0	1813.0	1813.0	1813.0	1833.0	1833.0	1880.0	1880.0	1880.0	1870.0	1870.0	1876.0	1876.0	1876.0	1829.0	1829.0	1885.0	1885.0	1885.0	1859.0	1859.0	1876.0	1876.0	1876.0	1861.0	1861.0	1864.0	1864.0	1864.0	1840.0	1840.0	1887.0	1887.0	1887.0	1827.0	1827.0	1883.0	1883.0	1883.0	1820.0	1820.0	1856.0	1856.0	1856.0	1818.0	1818.0	1820.0	1820.0	1820.0	1847.0	1847.0	1828.0	1828.0	1828.0	1852.0	1852.0	1818.0	1818.0	1818.0	1864.0	1864.0	1859.0	1859.0	1859.0	1816.0	1816.0	1800.0	1800.0	1800.0	1856.0	1856.0	1836.0	1836.0	1836.0	1832.0	1832.0	1846.0	1846.0	1846.0	1826.0	1826.0	1798.0	1798.0	1798.0	1860.0	1860.0	1831.0	1831.0	1831.0	1863.0	1863.0	1824.0	1824.0	1824.0	1823.0	1823.0	1813.0	1813.0	1813.0	1843.0	1843.0	1846.0	1846.0	1846.0	1859.0	1859.0	1828.0	1828.0	1828.0	1840.0	1840.0	1836.0	1836.0	1836.0	1885.0	1885.0	1822.0	1822.0	1822.0	1866.0	1866.0	1866.0	1866.0	1867.0	1867.0	1867.0	1864.0	1864.0	1847.0	1847.0	1847.0	1892.0	1892.0	1879.0	1879.0	1879.0	1895.0	1895.0	1936.0	1936.0	1936.0	1923.0	1923.0	1940.0	1940.0	1940.0	1960.0	1960.0	1975.0	1975.0	1975.0	1991.0	1991.0	2006.0	2006.0	2006.0	2019.0	2019.0	2010.0	2010.0	2010.0	2065.0	2065.0	2006.0	2006.0	2006.0	2075.0	2075.0	2061.0	2061.0	2061.0	2051.0	2051.0	2098.0	2098.0	2098.0	2100.0	2100.0	2122.0	2122.0	2122.0	2130.0	2130.0	2164.0	2164.0	2164.0	2178.0	2178.0	2170.0	2170.0	2170.0	2212.0	2212.0	2221.0	2221.0	2221.0	2172.0	2172.0	2180.0	2180.0	2180.0	2187.0	2187.0	2259.0	2259.0	2259.0	2208.0	2208.0	2248.0	2248.0	2248.0	2289.0	2289.0	2291.0	2291.0	2291.0	2252.0	2252.0	2245.0	2245.0	2245.0	2273.0	2273.0	2300.0	2300.0	2300.0	2296.0	2296.0	2285.0	2285.0	2285.0	2287.0	2287.0	2332.0	2332.0	2332.0	2283.0	2283.0	2312.0	2312.0	2312.0	2319.0	2319.0	2305.0	2305.0	2305.0	2311.0	2311.0	2360.0	2360.0	2360.0	2309.0	2309.0	2330.0	2330.0	2330.0	2350.0	2350.0	2308.0	2308.0	2308.0	2356.0	2356.0	2306.0	2306.0	2306.0	2318.0	2318.0	2367.0	2367.0	2367.0	2335.0	2335.0	2354.0	2354.0	2354.0	2365.0	2365.0	2321.0	2321.0	2321.0	2317.0	2317.0	2343.0	2343.0	2343.0	2323.0	2323.0	2341.0	2341.0	2341.0	2379.0	2379.0	2333.0	2333.0	2333.0	2389.0	2389.0	2325.0	2325.0	2325.0	2356.0	2356.0	2406.0	2406.0	2406.0	2356.0	2356.0	2339.0	2339.0	2339.0	2342.0	2342.0	2348.0	2348.0	2348.0	2343.0	2343.0	2366.0	2366.0	2366.0	2346.0	2346.0	2341.0	2341.0	2397.0	2397.0	2397.0	2383.0	2383.0	2363.0	2363.0	2363.0	2397.0	2397.0	2371.0	2371.0	2371.0	2380.0	2380.0	2388.0	2388.0	2388.0	2397.0	2397.0	2378.0	2378.0	2378.0	2364.0	2364.0	2325.0	2325.0	2325.0	2343.0	2343.0	2382.0	2382.0	2382.0	2385.0	2385.0	2347.0	2347.0	2347.0	2315.0	2315.0	2324.0	2324.0	2324.0	2339.0	2339.0	2367.0	2367.0	2367.0	2317.0	2317.0	2325.0	2325.0	2325.0	2311.0	2311.0	2336.0	2336.0	2336.0	2292.0	2292.0	2266.0	2266.0	2266.0	2308.0	2308.0	2310.0	2310.0	2310.0	2275.0	2275.0	2291.0	2291.0	2291.0	2261.0	2261.0	2281.0	2281.0	2281.0	2277.0	2277.0	2261.0	2261.0	2261.0	2214.0	2214.0	2204.0	2204.0	2204.0	2240.0	2240.0	2199.0	2199.0	2199.0	2233.0	2233.0	2182.0	2182.0	2182.0	2204.0	2204.0	2188.0	2188.0	2188.0	2211.0	2211.0	2164.0	2164.0	2164.0	2191.0	2191.0	2148.0	2148.0	2148.0	2181.0	2181.0	2159.0	2159.0	2159.0	2179.0	2179.0	2170.0	2170.0	2170.0	2118.0	2118.0	2130.0	2130.0	2130.0	2141.0	2141.0	2131.0	2131.0	2131.0	2111.0	2111.0	2153.0	2153.0	2153.0	2108.0	2108.0	2118.0	2118.0	2118.0	2114.0	2114.0	2095.0	2095.0	2095.0	2118.0	2118.0	2087.0	2087.0	2087.0	2099.0	2099.0	2104.0	2104.0	2104.0	2074.0	2074.0	2123.0	2123.0	2123.0	2115.0	2115.0	2095.0	2095.0	2095.0	2071.0	2071.0	2067.0	2067.0	2067.0	2081.0	2081.0	2088.0	2088.0	2088.0	2109.0	2109.0	2113.0	2113.0	2113.0	2079.0	2079.0	2119.0	2119.0	2119.0	2060.0	2060.0	2062.0	2062.0	2062.0	2071.0	2071.0	2091.0	2091.0	2091.0	2048.0	2048.0	2101.0	2101.0	2089.0	2089.0	2089.0	2079.0	2079.0	2055.0	2055.0	2055.0	2023.0	2023.0	2062.0	2062.0	2062.0	2038.0	2038.0	2043.0	2043.0	2043.0	2060.0	2060.0	2039.0	2039.0	2039.0	2005.0	2005.0	2015.0	2015.0	2015.0	2067.0	2067.0	2055.0	2055.0	2055.0	2041.0	2041.0	2065.0	2065.0	2065.0	2025.0	2025.0	1987.0	1987.0	1987.0	2004.0	2004.0	2004.0	2004.0	2004.0	2048.0	2048.0	1994.0	1994.0	1994.0	1998.0	1998.0	2012.0	2012.0	2012.0	2009.0	2009.0	1987.0	1987.0	1987.0	2041.0	2041.0	2031.0	2031.0	2031.0	2006.0	2006.0	1999.0	1999.0	1999.0	1983.0	1983.0	1982.0	1982.0	1982.0	1968.0	1968.0	1983.0	1983.0	1983.0	1999.0	1999.0	1957.0	1957.0	1957.0	2011.0	2011.0	1971.0	1971.0	1971.0	1962.0	1962.0	1991.0	1991.0	1991.0	1996.0	1996.0	1948.0	1948.0	1948.0	1953.0	1953.0	1999.0	1999.0	1999.0	1983.0	1983.0	1992.0	1992.0	1992.0	1981.0	1981.0	1959.0	1959.0	1959.0	1965.0	1965.0	1956.0	1956.0	1956.0	1982.0	1982.0	1982.0	1982.0	1982.0	1970.0	1970.0	1984.0	1984.0	1984.0	1928.0	1928.0	1974.0	1974.0	1974.0	1984.0	1984.0	1931.0	1931.0	1931.0	1928.0	1928.0	1974.0	1974.0	1974.0	1952.0	1952.0	1965.0	1965.0	1965.0	1968.0	1968.0	1937.0	1937.0	1937.0	1913.0	1913.0	1961.0	1961.0	1961.0	1930.0	1930.0	1899.0	1899.0	1899.0	1956.0	1956.0	1915.0	1915.0	1915.0	1926.0	1926.0	1907.0	1907.0	1907.0	1910.0	1910.0	1901.0	1901.0	1901.0	1916.0	1916.0	1947.0	1947.0	1947.0	1881.0	1881.0	1910.0	1910.0	1910.0	1938.0	1938.0	1875.0	1875.0	1875.0	1880.0	1880.0	1903.0	1903.0	1903.0	1886.0	1886.0	1892.0	1892.0	1929.0	1929.0	1929.0	1928.0	1928.0	1881.0	1881.0	1881.0	1882.0	1882.0	1878.0	1878.0	1878.0	1905.0	1905.0	1922.0	1922.0	1922.0	1899.0	1899.0	1871.0	1871.0	1871.0	1901.0	1901.0	1867.0	1867.0	1867.0	1908.0	1908.0	1875.0	1875.0	1875.0	1899.0	1899.0	1881.0	1881.0	1881.0	1867.0	1867.0	1865.0	1865.0	1865.0	1864.0	1864.0	1862.0	1862.0	1862.0	1893.0	1893.0	1908.0	1908.0	1908.0	1880.0	1880.0	1900.0	1900.0	1900.0	1879.0	1879.0	1869.0	1869.0	1869.0	1882.0	1882.0	1850.0	1850.0	1850.0	1858.0	1858.0	1872.0	1872.0	1872.0	1849.0	1849.0	1883.0	1883.0	1883.0	1897.0	1897.0	1893.0	1893.0	1893.0	1918.0	1918.0	1907.0	1907.0	1907.0	1853.0	1853.0	1848.0	1848.0	1848.0	1894.0	1894.0	1869.0	1869.0	1869.0	1873.0	1873.0	1871.0	1871.0	1871.0	1891.0	1891.0	1850.0	1850.0	1850.0	1863.0	1863.0	1894.0	1894.0	1894.0	1883.0	1883.0	1844.0	1844.0	1844.0	1864.0	1864.0	1893.0	1893.0	1893.0	1865.0	1865.0	1893.0	1893.0	1893.0	1859.0	1859.0	1883.0	1883.0	1883.0	1880.0	1880.0	1852.0	1852.0	1852.0	1837.0	1837.0	1847.0	1847.0	1847.0	1838.0	1838.0	1891.0	1891.0	1891.0	1843.0	1843.0	1835.0	1835.0	1835.0	1876.0	1876.0	1846.0	1846.0	1846.0	1833.0	1833.0	1834.0	1834.0	1834.0	1876.0	1876.0	1860.0	1860.0	1860.0	1872.0	1872.0	1839.0	1839.0	1839.0	1837.0	1837.0	1879.0	1879.0	1879.0	1873.0	1873.0	1857.0	1857.0	1857.0	1823.0	1823.0	1889.0	1889.0	1889.0	1830.0	1830.0	1819.0	1819.0	1819.0	1890.0	1890.0	1852.0	1852.0	1852.0	1878.0	1878.0	