1814.0	1814.0	1814.0	1795.0	1795.0	1788.0	1788.0	1788.0	1812.0	1812.0	1765.0	1765.0	1765.0	1768.0	1768.0	1811.0	1811.0	1804.0	1804.0	1804.0	1764.0	1764.0	1816.0	1816.0	1816.0	1798.0	1798.0	1779.0	1779.0	1779.0	1788.0	1788.0	1819.0	1819.0	1819.0	1767.0	1767.0	1769.0	1769.0	1769.0	1806.0	1806.0	1827.0	1827.0	1827.0	1771.0	1771.0	1821.0	1821.0	1821.0	1824.0	1824.0	1771.0	1771.0	1771.0	1821.0	1821.0	1780.0	1780.0	1780.0	1781.0	1781.0	1813.0	1813.0	1813.0	1766.0	1766.0	1762.0	1762.0	1762.0	1801.0	1801.0	1760.0	1760.0	1760.0	1769.0	1769.0	1815.0	1815.0	1815.0	1810.0	1810.0	1801.0	1801.0	1801.0	1777.0	1777.0	1834.0	1834.0	1834.0	1796.0	1796.0	1798.0	1798.0	1798.0	1764.0	1764.0	1790.0	1790.0	1790.0	1813.0	1813.0	1787.0	1787.0	1787.0	1812.0	1812.0	1832.0	1832.0	1832.0	1802.0	1802.0	1792.0	1792.0	1792.0	1819.0	1819.0	1807.0	1807.0	1807.0	1777.0	1777.0	1770.0	1770.0	1770.0	1809.0	1809.0	1821.0	1821.0	1821.0	1804.0	1804.0	1787.0	1787.0	1787.0	1811.0	1811.0	1820.0	1820.0	1820.0	1831.0	1831.0	1768.0	1768.0	1768.0	1775.0	1775.0	1775.0	1775.0	1775.0	1822.0	1822.0	1815.0	1815.0	1815.0	1777.0	1777.0	1772.0	1772.0	1772.0	1793.0	1793.0	1780.0	1780.0	1780.0	1808.0	1808.0	1823.0	1823.0	1823.0	1818.0	1818.0	1771.0	1771.0	1771.0	1807.0	1807.0	1777.0	1777.0	1777.0	1782.0	1782.0	1776.0	1776.0	1776.0	1827.0	1827.0	1797.0	1797.0	1797.0	1768.0	1768.0	1767.0	1767.0	1767.0	1785.0	1785.0	1765.0	1765.0	1765.0	1797.0	1797.0	1801.0	1801.0	1801.0	1796.0	1796.0	1766.0	1766.0	1766.0	1762.0	1762.0	1809.0	1809.0	1809.0	1812.0	1812.0	1765.0	1765.0	1769.0	1769.0	1769.0	1769.0	1769.0	1771.0	1771.0	1771.0	1768.0	1768.0	1828.0	1828.0	1828.0	1761.0	1761.0	1766.0	1766.0	1766.0	1780.0	1780.0	1797.0	1797.0	1797.0	1780.0	1780.0	1775.0	1775.0	1775.0	1819.0	1819.0	1776.0	1776.0	1776.0	1793.0	1793.0	1782.0	1782.0	1782.0	1815.0	1815.0	1841.0	1841.0	1841.0	1824.0	1824.0	1811.0	1811.0	1811.0	1803.0	1803.0	1843.0	1843.0	1843.0	1838.0	1838.0	1808.0	1808.0	1808.0	1868.0	1868.0	1836.0	1836.0	1836.0	1878.0	1878.0	1847.0	1847.0	1847.0	1888.0	1888.0	1915.0	1915.0	1915.0	1898.0	1898.0	1963.0	1963.0	1963.0	1950.0	1950.0	1928.0	1928.0	1928.0	2006.0	2006.0	1986.0	1986.0	1986.0	1992.0	1992.0	2053.0	2053.0	2053.0	2078.0	2078.0	2048.0	2048.0	2048.0	2087.0	2087.0	2143.0	2143.0	2143.0	2156.0	2156.0	2147.0	2147.0	2147.0	2156.0	2156.0	2199.0	2199.0	2199.0	2180.0	2180.0	2236.0	2236.0	2236.0	2201.0	2201.0	2235.0	2235.0	2235.0	2267.0	2267.0	2281.0	2281.0	2281.0	2312.0	2312.0	2294.0	2294.0	2294.0	2285.0	2285.0	2311.0	2311.0	2311.0	2322.0	2322.0	2364.0	2364.0	2364.0	2368.0	2368.0	2343.0	2343.0	2343.0	2350.0	2350.0	2400.0	2400.0	2400.0	2363.0	2363.0	2374.0	2374.0	2374.0	2391.0	2391.0	2382.0	2382.0	2382.0	2408.0	2408.0	2402.0	2402.0	2402.0	2423.0	2423.0	2421.0	2421.0	2421.0	2411.0	2411.0	2416.0	2416.0	2416.0	2466.0	2466.0	2458.0	2458.0	2458.0	2448.0	2448.0	2436.0	2436.0	2436.0	2437.0	2437.0	2481.0	2481.0	2481.0	2470.0	2470.0	2474.0	2474.0	2474.0	2495.0	2495.0	2484.0	2484.0	2516.0	2516.0	2516.0	2511.0	2511.0	2462.0	2462.0	2462.0	2494.0	2494.0	2445.0	2445.0	2445.0	2470.0	2470.0	2458.0	2458.0	2458.0	2489.0	2489.0	2510.0	2510.0	2510.0	2463.0	2463.0	2472.0	2472.0	2472.0	2488.0	2488.0	2502.0	2502.0	2502.0	2503.0	2503.0	2463.0	2463.0	2463.0	2474.0	2474.0	2505.0	2505.0	2505.0	2490.0	2490.0	2490.0	2490.0	2490.0	2483.0	2483.0	2454.0	2454.0	2454.0	2447.0	2447.0	2490.0	2490.0	2490.0	2446.0	2446.0	2486.0	2486.0	2486.0	2481.0	2481.0	2464.0	2464.0	2464.0	2491.0	2491.0	2467.0	2467.0	2467.0	2435.0	2435.0	2466.0	2466.0	2466.0	2455.0	2455.0	2434.0	2434.0	2434.0	2476.0	2476.0	2467.0	2467.0	2467.0	2440.0	2440.0	2416.0	2416.0	2416.0	2432.0	2432.0	2461.0	2461.0	2461.0	2462.0	2462.0	2404.0	2404.0	2404.0	2407.0	2407.0	2411.0	2411.0	2411.0	2421.0	2421.0	2409.0	2409.0	2409.0	2387.0	2387.0	2412.0	2412.0	2412.0	2360.0	2360.0	2338.0	2338.0	2338.0	2350.0	2350.0	2327.0	2327.0	2327.0	2351.0	2351.0	2317.0	2317.0	2317.0	2355.0	2355.0	2318.0	2318.0	2318.0	2275.0	2275.0	2294.0	2294.0	2294.0	2307.0	2307.0	2254.0	2254.0	2254.0	2232.0	2232.0	2220.0	2220.0	2220.0	2214.0	2214.0	2204.0	2204.0	2204.0	2194.0	2194.0	2244.0	2244.0	2244.0	2190.0	2190.0	2203.0	2203.0	2203.0	2201.0	2201.0	2192.0	2192.0	2192.0	2165.0	2165.0	2193.0	2193.0	2193.0	2165.0	2165.0	2189.0	2189.0	2189.0	2127.0	2127.0	2189.0	2189.0	2189.0	2159.0	2159.0	2168.0	2168.0	2168.0	2138.0	2138.0	2175.0	2175.0	2175.0	2167.0	2167.0	2111.0	2111.0	2111.0	2164.0	2164.0	2126.0	2126.0	2103.0	2103.0	2103.0	2124.0	2124.0	2147.0	2147.0	2147.0	2105.0	2105.0	2112.0	2112.0	2112.0	2087.0	2087.0	2107.0	2107.0	2107.0	2084.0	2084.0	2114.0	2114.0	2114.0	2107.0	2107.0	2127.0	2127.0	2127.0	2072.0	2072.0	2118.0	2118.0	2118.0	2095.0	2095.0	2079.0	2079.0	2079.0	2060.0	2060.0	2051.0	2051.0	2051.0	2059.0	2059.0	2032.0	2032.0	2032.0	2066.0	2066.0	2068.0	2068.0	2068.0	2039.0	2039.0	2084.0	2084.0	2084.0	2038.0	2038.0	2055.0	2055.0	2055.0	2047.0	2047.0	2074.0	2074.0	2074.0	2021.0	2021.0	2067.0	2067.0	2067.0	2020.0	2020.0	2016.0	2016.0	2016.0	2036.0	2036.0	2021.0	2021.0	2021.0	2007.0	2007.0	2013.0	2013.0	2013.0	1997.0	1997.0	1985.0	1985.0	1985.0	1970.0	1970.0	1995.0	1995.0	1995.0	2004.0	2004.0	1970.0	1970.0	1970.0	1980.0	1980.0	2025.0	2025.0	2025.0	2008.0	2008.0	1976.0	1976.0	1976.0	1951.0	1951.0	1944.0	1944.0	1944.0	2001.0	2001.0	1974.0	1974.0	1974.0	1991.0	1991.0	1958.0	1958.0	1958.0	1953.0	1953.0	1972.0	1972.0	1972.0	1941.0	1941.0	1987.0	1987.0	1987.0	1934.0	1934.0	1926.0	1926.0	1926.0	1969.0	1969.0	1976.0	1976.0	1976.0	1973.0	1973.0	1955.0	1955.0	1955.0	1922.0	1922.0	1960.0	1960.0	1960.0	1952.0	1952.0	1901.0	1901.0	1901.0	1965.0	1965.0	1905.0	1905.0	1905.0	1952.0	1952.0	1950.0	1950.0	1950.0	1910.0	1910.0	1940.0	1940.0	1940.0	1902.0	1902.0	1905.0	1905.0	1905.0	1879.0	1879.0	1883.0	1883.0	1883.0	1886.0	1886.0	1927.0	1927.0	1927.0	1866.0	1866.0	1888.0	1888.0	1888.0	1904.0	1904.0	1889.0	1889.0	1867.0	1867.0	1867.0	1900.0	1900.0	1894.0	1894.0	1894.0	1885.0	1885.0	1854.0	1854.0	1854.0	1904.0	1904.0	1901.0	1901.0	1901.0	1842.0	1842.0	1892.0	1892.0	1892.0	1847.0	1847.0	1846.0	1846.0	1846.0	1870.0	1870.0	1873.0	1873.0	1873.0	1828.0	1828.0	1892.0	1892.0	1892.0	1846.0	1846.0	1876.0	1876.0	1876.0	1889.0	1889.0	1826.0	1826.0	1826.0	1847.0	1847.0	1886.0	1886.0	1886.0	1859.0	1859.0	1888.0	1888.0	1888.0	1864.0	1864.0	1829.0	1829.0	1829.0	1884.0	1884.0	1878.0	1878.0	1878.0	1824.0	1824.0	1878.0	1878.0	1878.0	1818.0	1818.0	1841.0	1841.0	1841.0	1837.0	1837.0	1831.0	1831.0	1831.0	1852.0	1852.0	1831.0	1831.0	1831.0	1871.0	1871.0	1863.0	1863.0	1863.0	1825.0	1825.0	1801.0	1801.0	1801.0	1811.0	1811.0	1803.0	1803.0	1803.0	1812.0	1812.0	1855.0	1855.0	1855.0	1800.0	1800.0	1797.0	1797.0	1797.0	1809.0	1809.0	1802.0	1802.0	1802.0	1794.0	1794.0	1802.0	1802.0	1802.0	1801.0	1801.0	1787.0	1787.0	1787.0	1833.0	1833.0	1818.0	1818.0	1818.0	1846.0	1846.0	1809.0	1809.0	1809.0	1832.0	1832.0	1788.0	1788.0	1788.0	1844.0	1844.0	1804.0	1804.0	1804.0	1809.0	1809.0	1846.0	1846.0	1846.0	1820.0	1820.0	1842.0	1842.0	1842.0	1787.0	1787.0	1830.0	1830.0	1830.0	1784.0	1784.0	1819.0	1819.0	1819.0	1827.0	1827.0	1802.0	1802.0	1802.0	1783.0	1783.0	1786.0	1786.0	1786.0	1834.0	1834.0	1836.0	1836.0	1836.0	1787.0	1787.0	1804.0	1804.0	1804.0	1781.0	1781.0	1783.0	1783.0	1783.0	1794.0	1794.0	1804.0	1804.0	1804.0	1844.0	1844.0	1835.0	1835.0	1833.0	1833.0	1833.0	1816.0	1816.0	1807.0	1807.0	1807.0	1795.0	1795.0	1792.0	1792.0	1792.0	1846.0	1846.0	1792.0	1792.0	1792.0	1843.0	1843.0	1790.0	1790.0	1790.0	1790.0	1790.0	1775.0	1775.0	1775.0	1841.0	1841.0	1798.0	1798.0	1798.0	1799.0	1799.0	1817.0	1817.0	1817.0	1835.0	1835.0	1789.0	1789.0	1789.0	1839.0	1839.0	1839.0	1839.0	1839.0	1811.0	1811.0	1832.0	1832.0	1832.0	1836.0	1836.0	1804.0	1804.0	1804.0	1820.0	1820.0	1788.0	1788.0	1788.0	1785.0	1785.0	1799.0	1799.0	1799.0	1770.0	1770.0	1812.0	1812.0	1812.0	1786.0	1786.0	1806.0	1806.0	1806.0	1768.0	1768.0	1836.0	1836.0	1836.0	1825.0	1825.0	1763.0	1763.0	1763.0	1804.0	1804.0	1807.0	1807.0	1807.0	1786.0	1786.0	1818.0	1818.0	1818.0	1776.0	1776.0	1810.0	1810.0	1810.0	1773.0	1773.0	1802.0	1802.0	1802.0	1830.0	1830.0	1823.0	1823.0	1823.0	1816.0	1816.0	1820.0	1820.0	1820.0	1792.0	1792.0	1769.0	1769.0	1769.0	1799.0	1799.0	1772.0	1772.0	1772.0	1820.0	1820.0	1780.0	1780.0	1780.0	1816.0	1816.0	1810.0	1810.0	1810.0	1796.0	1796.0	1812.0	1812.0	1812.0	1822.0	1822.0	1786.0	1786.0	1786.0	1834.0	1834.0	1834.0	1834.0	1834.0	1803.0	1803.0	1839.0	1839.0	1839.0	1836.0	1836.0	1807.0	1807.0	1807.0	1817.0	1817.0	1856.0	1856.0	1856.0	1890.0	1890.0	1833.0	1833.0	1833.0	1850.0	1850.0	1898.0	1898.0	1898.0	1899.0	1899.0	1908.0	1908.0	1908.0	1886.0	1886.0	1971.0	1971.0	1971.0	1926.0	1926.0	1946.0	1946.0	1946.0	1964.0	1964.0	2002.0	2002.0	2002.0	2059.0	2059.0	2034.0	2034.0	2034.0	2083.0	2083.0	2054.0	2054.0	2080.0	2080.0	2080.0	2099.0	2099.0	2099.0	2099.0	2099.0	2110.0	2110.0	2177.0	2177.0	2177.0	2150.0	2150.0	2191.0	2191.0	2191.0	2227.0	2227.0	2241.0	2241.0	2241.0	2251.0	2251.0	2244.0	2244.0	2244.0	2240.0	2240.0	2246.0	2246.0	2246.0	2300.0	2300.0	2316.0	2316.0	2316.0	2286.0	2286.0	2318.0	2318.0	2318.0	2302.0	2302.0	2332.0	2332.0	2332.0	2348.0	2348.0	2343.0	2343.0	2343.0	2386.0	2386.0	2341.0	2341.0	2341.0	2403.0	2403.0	2374.0	2374.0	2374.0	2401.0	2401.0	2396.0	2396.0	2396.0	2373.0	2373.0	2394.0	2394.0	2394.0	2395.0	2395.0	2398.0	2398.0	2398.0	2408.0	2408.0	2402.0	2402.0	2402.0	2397.0	2397.0	2421.0	2421.0	2421.0	2426.0	2426.0	2454.0	2454.0	2454.0	2409.0	2409.0	2437.0	2437.0	2437.0	2436.0	2436.0	2469.0	2469.0	2469.0	2420.0	2420.0	2475.0	2475.0	2475.0	2428.0	2428.0	2425.0	2425.0	2425.0	2486.0	2486.0	2423.0	2423.0	2423.0	2436.0	2436.0	2440.0	2440.0	2440.0	2437.0	2437.0	2448.0	2448.0	2448.0	2444.0	2444.0	2491.0	2491.0	2491.0	2483.0	2483.0	2422.0	2422.0	2422.0	2435.0	2435.0	2432.0	2432.0	2432.0	2427.0	2427.0	2425.0	2425.0	2425.0	2469.0	2469.0	2427.0	2427.0	2427.0	2461.0	2461.0	2470.0	2470.0	2470.0	2480.0	2480.0	2407.0	2407.0	2407.0	2433.0	2433.0	2471.0	2471.0	2471.0	2426.0	2426.0	2456.0	2456.0	2456.0	2432.0	2432.0	2456.0	2456.0	2456.0	2414.0	2414.0	2450.0	2450.0	2450.0	2427.0	2427.0	2395.0	2395.0	2395.0	2398.0	2398.0	2441.0	2441.0	2441.0	2398.0	2398.0	2381.0	2381.0	2381.0	2408.0	2408.0	2411.0	2411.0	2404.0	2404.0	2404.0	2381.0	2381.0	2396.0	2396.0	2396.0	2396.0	2396.0	2373.0	2373.0	2373.0	2387.0	2387.0	2343.0	2343.0	2343.0	2338.0	2338.0	2329.0	2329.0	2329.0	2325.0	2325.0	2332.0	2332.0	2332.0	2347.0	2347.0	2344.0	2344.0	2344.0	2284.0	2284.0	2302.0	2302.0	2302.0	2306.0	2306.0	2254.0	2254.0	2254.0	2235.0	2235.0	2277.0	2277.0	2277.0	2264.0	2264.0	2201.0	2201.0	2201.0	2246.0	2246.0	2246.0	2246.0	2246.0	2220.0	2220.0	2182.0	2182.0	2182.0	2220.0	2220.0	2220.0	2220.0	2220.0	2202.0	2202.0	2156.0	2156.0	2156.0	2147.0	2147.0	2143.0	2143.0	2143.0	2156.0	2156.0	2168.0	2168.0	2168.0	2171.0	2171.0	2137.0	2137.0	2137.0	2149.0	2149.0	2118.0	2118.0	2118.0	2144.0	2144.0	2153.0	2153.0	2153.0	2099.0	2099.0	2120.0	2120.0	2120.0	2117.0	2117.0	2132.0	2132.0	2132.0	2076.0	2076.0	2130.0	2130.0	2130.0	2092.0	2092.0	2076.0	2076.0	2076.0	2090.0	2090.0	2123.0	2123.0	2123.0	2059.0	2059.0	2111.0	2111.0	2111.0	2070.0	2070.0	2074.0	2074.0	2074.0	2063.0	2063.0	2049.0	2049.0	2049.0	2073.0	2073.0	2078.0	2078.0	2078.0	2048.0	2048.0	2045.0	2045.0	2045.0	2037.0	2037.0	2068.0	2068.0	2068.0	2058.0	2058.0	2074.0	2074.0	2074.0	2021.0	2021.0	2023.0	2023.0	2023.0	2032.0	2032.0	2038.0	2038.0	2038.0	2042.0	2042.0	2020.0	2020.0	2020.0	2038.0	2038.0	2000.0	2000.0	2000.0	2040.0	2040.0	1991.0	1991.0	1991.0	2001.0	2001.0	1975.0	1975.0	1975.0	2002.0	2002.0	1990.0	1990.0	1990.0	1973.0	1973.0	1987.0	1987.0	1987.0	1973.0	1973.0	2013.0	2013.0	2013.0	1974.0	1974.0	1968.0	1968.0	1962.0	1962.0	1962.0	1970.0	1970.0	1945.0	1945.0	1945.0	1970.0	1970.0	1930.0	1930.0	1930.0	1927.0	1927.0	1929.0	1929.0	1929.0	1975.0	1975.0	1957.0	1957.0	1957.0	1946.0	1946.0	1922.0	1922.0	1922.0	1925.0	1925.0	1947.0	1947.0	1947.0	1931.0	1931.0	1923.0	1923.0	1923.0	1962.0	1962.0	1947.0	1947.0	1947.0	1915.0	1915.0	1927.0	1927.0	1927.0	1943.0	1943.0	1937.0	1937.0	1937.0	1942.0	1942.0	1939.0	1939.0	1939.0	1886.0	1886.0	1885.0	1885.0	1885.0	1932.0	1932.0	1876.0	1876.0	1876.0	1923.0	1923.0	1867.0	1867.0	1867.0	1874.0	1874.0	1878.0	1878.0	1878.0	1849.0	1849.0	1880.0	1880.0	1880.0	1877.0	1877.0	1881.0	1881.0	1881.0	1886.0	1886.0	1861.0	1861.0	1861.0	1844.0	1844.0	1853.0	1853.0	1853.0	1872.0	1872.0	1887.0	1887.0	1887.0	1891.0	1891.0	1880.0	1880.0	1880.0	1861.0	1861.0	1840.0	1840.0	1840.0	1877.0	1877.0	1872.0	1872.0	1872.0	1889.0	1889.0	1830.0	1830.0	1830.0	1866.0	1866.0	1878.0	1878.0	1878.0	1866.0	1866.0	1862.0	1862.0	1862.0	1877.0	1877.0	1806.0	1806.0	1806.0	1832.0	1832.0	1859.0	1859.0	1859.0	1866.0	1866.0	1824.0	1824.0	1824.0	1835.0	1835.0	1800.0	1800.0	1800.0	1859.0	1859.0	1840.0	1840.0	1840.0	1828.0	1828.0	1853.0	1853.0	1853.0	1799.0	1799.0	1797.0	1797.0	1797.0	1862.0	1862.0	1796.0	1796.0	1796.0	1799.0	1799.0	1799.0	1799.0	1799.0	1851.0	1851.0	1811.0	1811.0	1811.0	1816.0	1816.0	1790.0	1790.0	1790.0	1791.0	1791.0	1793.0	1793.0	1793.0	1832.0	1832.0	1834.0	1834.0	1834.0	1788.0	1788.0	1788.0	1788.0	1808.0	1808.0	1808.0	1834.0	1834.0	1845.0	1845.0	1845.0	1801.0	1801.0	1839.0	1839.0	1839.0	1780.0	1780.0	1828.0	1828.0	1828.0	1840.0	1840.0	1784.0	1784.0	1784.0	1838.0	1838.0	1788.0	1788.0	1788.0	1842.0	1842.0	1823.0	1823.0	1823.0	1842.0	1842.0	1789.0	1789.0	1789.0	1827.0	1827.0	1798.0	1798.0	1798.0	1793.0	1793.0	1777.0	1777.0	1777.0	1833.0	1833.0	1787.0	1787.0	1787.0	1837.0	1837.0	1836.0	1836.0	1836.0	1791.0	1791.0	1776.0	1776.0	1776.0	1842.0	1842.0	1811.0	1811.0	1811.0	1832.0	1832.0	1824.0	1824.0	1824.0	1816.0	1816.0	1789.0	1789.0	1789.0	1831.0	1831.0	1826.0	1826.0	1826.0	1782.0	1782.0	1850.0	1850.0	1850.0	1796.0	1796.0	1801.0	1801.0	1801.0	1827.0	1827.0	1821.0	1821.0	1821.0	1778.0	1778.0	1797.0	1797.0	1797.0	1792.0	1792.0	1825.0	1825.0	1825.0	1802.0	1802.0	1802.0	1802.0	1802.0	1780.0	1780.0	1816.0	1816.0	1816.0	1825.0	1825.0	1837.0	1837.0	1837.0	1799.0	1799.0	1841.0	1841.0	1841.0	1807.0	1807.0	1821.0	1821.0	1821.0	1781.0	1781.0	1839.0	1839.0	1839.0	1782.0	1782.0	1834.0	1834.0	1834.0	1831.0	1831.0	1779.0	1779.0	1779.0	1793.0	1793.0	1786.0	1786.0	1786.0	1832.0	1832.0	1777.0	1777.0	1777.0	1813.0	1813.0	1775.0	1775.0	1775.0	1822.0	1822.0	1825.0	1825.0	1825.0	1791.0	1791.0	1778.0	1778.0	1778.0	1816.0	1816.0	1779.0	1779.0	1779.0	1789.0	1789.0	1783.0	1783.0	1783.0	1777.0	1777.0	1817.0	1817.0	1817.0	1838.0	1838.0	1840.0	1840.0	1840.0	1837.0	1837.0	1776.0	1776.0	1776.0	1791.0	1791.0	1837.0	1837.0	1826.0	1826.0	1826.0	1817.0	1817.0	1837.0	1837.0	1837.0	1829.0	1829.0	1799.0	1799.0	1799.0	1807.0	1807.0	1782.0	1782.0	1782.0	1783.0	1783.0	1800.0	1800.0	1800.0	1809.0	1809.0	1786.0	1786.0	1786.0	1820.0	1820.0	1843.0	1843.0	1843.0	1810.0	1810.0	1846.0	1846.0	1846.0	1784.0	1784.0	1786.0	1786.0	1786.0	1833.0	1833.0	1833.0	1833.0	1833.0	