1863.0	1863.0	1899.0	1899.0	1878.0	1878.0	1878.0	1884.0	1884.0	1891.0	1891.0	1891.0	1858.0	1858.0	1868.0	1868.0	1868.0	1879.0	1879.0	1894.0	1894.0	1894.0	1863.0	1863.0	1876.0	1876.0	1876.0	1883.0	1883.0	1840.0	1840.0	1840.0	1872.0	1872.0	1875.0	1875.0	1875.0	1865.0	1865.0	1862.0	1862.0	1862.0	1836.0	1836.0	1870.0	1870.0	1870.0	1871.0	1871.0	1839.0	1839.0	1839.0	1858.0	1858.0	1843.0	1843.0	1843.0	1852.0	1852.0	1828.0	1828.0	1828.0	1861.0	1861.0	1816.0	1816.0	1816.0	1855.0	1855.0	1828.0	1828.0	1828.0	1863.0	1863.0	1859.0	1859.0	1859.0	1806.0	1806.0	1814.0	1814.0	1814.0	1832.0	1832.0	1832.0	1832.0	1832.0	1823.0	1823.0	1840.0	1840.0	1840.0	1826.0	1826.0	1844.0	1844.0	1844.0	1815.0	1815.0	1827.0	1827.0	1827.0	1798.0	1798.0	1830.0	1830.0	1830.0	1822.0	1822.0	1843.0	1843.0	1843.0	1815.0	1815.0	1839.0	1839.0	1839.0	1815.0	1815.0	1837.0	1837.0	1837.0	1828.0	1828.0	1841.0	1841.0	1841.0	1838.0	1838.0	1824.0	1824.0	1824.0	1851.0	1851.0	1823.0	1823.0	1823.0	1812.0	1812.0	1824.0	1824.0	1824.0	1877.0	1877.0	1863.0	1863.0	1863.0	1881.0	1881.0	1895.0	1895.0	1895.0	1898.0	1898.0	1895.0	1895.0	1895.0	1890.0	1890.0	1923.0	1923.0	1923.0	1949.0	1949.0	1942.0	1942.0	1942.0	1974.0	1974.0	1965.0	1965.0	1969.0	1969.0	1969.0	1992.0	1992.0	2002.0	2002.0	2002.0	2055.0	2055.0	2072.0	2072.0	2072.0	2055.0	2055.0	2088.0	2088.0	2088.0	2108.0	2108.0	2139.0	2139.0	2139.0	2157.0	2157.0	2141.0	2141.0	2141.0	2151.0	2151.0	2176.0	2176.0	2176.0	2179.0	2179.0	2213.0	2213.0	2213.0	2215.0	2215.0	2232.0	2232.0	2232.0	2235.0	2235.0	2235.0	2235.0	2235.0	2258.0	2258.0	2299.0	2299.0	2299.0	2296.0	2296.0	2313.0	2313.0	2313.0	2313.0	2313.0	2316.0	2316.0	2316.0	2344.0	2344.0	2323.0	2323.0	2323.0	2360.0	2360.0	2379.0	2379.0	2379.0	2387.0	2387.0	2408.0	2408.0	2408.0	2376.0	2376.0	2403.0	2403.0	2403.0	2383.0	2383.0	2411.0	2411.0	2411.0	2418.0	2418.0	2400.0	2400.0	2400.0	2439.0	2439.0	2415.0	2415.0	2415.0	2447.0	2447.0	2408.0	2408.0	2408.0	2406.0	2406.0	2405.0	2405.0	2405.0	2448.0	2448.0	2433.0	2433.0	2433.0	2412.0	2412.0	2407.0	2407.0	2407.0	2405.0	2405.0	2412.0	2412.0	2412.0	2421.0	2421.0	2400.0	2400.0	2400.0	2429.0	2429.0	2401.0	2401.0	2401.0	2391.0	2391.0	2419.0	2419.0	2419.0	2419.0	2419.0	2369.0	2369.0	2369.0	2406.0	2406.0	2401.0	2401.0	2401.0	2397.0	2397.0	2370.0	2370.0	2370.0	2370.0	2370.0	2355.0	2355.0	2355.0	2390.0	2390.0	2370.0	2370.0	2370.0	2382.0	2382.0	2334.0	2334.0	2334.0	2337.0	2337.0	2333.0	2333.0	2333.0	2361.0	2361.0	2348.0	2348.0	2348.0	2301.0	2301.0	2307.0	2307.0	2307.0	2301.0	2301.0	2318.0	2318.0	2318.0	2310.0	2310.0	2287.0	2287.0	2287.0	2275.0	2275.0	2257.0	2257.0	2257.0	2295.0	2295.0	2277.0	2277.0	2277.0	2263.0	2263.0	2264.0	2264.0	2249.0	2249.0	2249.0	2251.0	2251.0	2255.0	2255.0	2255.0	2230.0	2230.0	2227.0	2227.0	2227.0	2201.0	2201.0	2180.0	2180.0	2180.0	2160.0	2160.0	2170.0	2170.0	2170.0	2160.0	2160.0	2145.0	2145.0	2145.0	2152.0	2152.0	2159.0	2159.0	2159.0	2134.0	2134.0	2114.0	2114.0	2114.0	2127.0	2127.0	2125.0	2125.0	2125.0	2107.0	2107.0	2065.0	2065.0	2065.0	2077.0	2077.0	2070.0	2070.0	2070.0	2071.0	2071.0	2060.0	2060.0	2060.0	2033.0	2033.0	2023.0	2023.0	2023.0	2027.0	2027.0	2021.0	2021.0	2021.0	2011.0	2011.0	2026.0	2026.0	2026.0	2000.0	2000.0	2007.0	2007.0	2007.0	1998.0	1998.0	1968.0	1968.0	1968.0	1978.0	1978.0	1955.0	1955.0	1955.0	1932.0	1932.0	1958.0	1958.0	1958.0	1959.0	1959.0	1937.0	1937.0	1937.0	1920.0	1920.0	1946.0	1946.0	1946.0	1935.0	1935.0	1947.0	1947.0	1947.0	1915.0	1915.0	1948.0	1948.0	1948.0	1945.0	1945.0	1888.0	1888.0	1888.0	1933.0	1933.0	1915.0	1915.0	1915.0	1905.0	1905.0	1906.0	1906.0	1906.0	1895.0	1895.0	1899.0	1899.0	1899.0	1919.0	1919.0	1922.0	1922.0	1922.0	1903.0	1903.0	1897.0	1897.0	1897.0	1918.0	1918.0	1903.0	1903.0	1903.0	1895.0	1895.0	1891.0	1891.0	1891.0	1908.0	1908.0	1905.0	1905.0	1905.0	1868.0	1868.0	1863.0	1863.0	1863.0	1883.0	1883.0	1854.0	1854.0	1854.0	1898.0	1898.0	1877.0	1877.0	1877.0	1870.0	1870.0	1857.0	1857.0	1857.0	1866.0	1866.0	1889.0	1889.0	1889.0	1871.0	1871.0	1859.0	1859.0	1859.0	1868.0	1868.0	1851.0	1851.0	1851.0	1860.0	1860.0	1869.0	1869.0	1869.0	1855.0	1855.0	1869.0	1869.0	1865.0	1865.0	1865.0	1888.0	1888.0	1821.0	1821.0	1821.0	1843.0	1843.0	1869.0	1869.0	1869.0	1854.0	1854.0	1838.0	1838.0	1838.0	1871.0	1871.0	1849.0	1849.0	1849.0	1829.0	1829.0	1813.0	1813.0	1813.0	1812.0	1812.0	1830.0	1830.0	1830.0	1826.0	1826.0	1827.0	1827.0	1827.0	1828.0	1828.0	1813.0	1813.0	1813.0	1791.0	1791.0	1841.0	1841.0	1841.0	1806.0	1806.0	1825.0	1825.0	1825.0	1813.0	1813.0	1784.0	1784.0	1784.0	1776.0	1776.0	1813.0	1813.0	1813.0	1813.0	1813.0	1777.0	1777.0	1777.0	1799.0	1799.0	1757.0	1757.0	1757.0	1749.0	1749.0	1771.0	1771.0	1771.0	1747.0	1747.0	1746.0	1746.0	1746.0	1752.0	1752.0	1774.0	1774.0	1774.0	1736.0	1736.0	1752.0	1752.0	1752.0	1774.0	1774.0	1729.0	1729.0	1729.0	1708.0	1708.0	1724.0	1724.0	1724.0	1740.0	1740.0	1737.0	1737.0	1737.0	1750.0	1750.0	1733.0	1733.0	1733.0	1722.0	1722.0	1742.0	1742.0	1742.0	1707.0	1707.0	1720.0	1720.0	1720.0	1711.0	1711.0	1735.0	1735.0	1735.0	1692.0	1692.0	1683.0	1683.0	1683.0	1703.0	1703.0	1696.0	1696.0	1696.0	1689.0	1689.0	1691.0	1691.0	1691.0	1707.0	1707.0	1713.0	1713.0	1713.0	1693.0	1693.0	1692.0	1692.0	1692.0	1694.0	1694.0	1679.0	1679.0	1679.0	1662.0	1662.0	1676.0	1676.0	1676.0	1642.0	1642.0	1660.0	1660.0	1660.0	1643.0	1643.0	1624.0	1624.0	1624.0	1662.0	1662.0	1646.0	1646.0	1646.0	1653.0	1653.0	1648.0	1648.0	1648.0	1645.0	1645.0	1611.0	1611.0	1611.0	1615.0	1615.0	1626.0	1626.0	1626.0	1605.0	1605.0	1615.0	1615.0	1615.0	1611.0	1611.0	1623.0	1623.0	1623.0	1620.0	1620.0	1609.0	1609.0	1638.0	1638.0	1638.0	1623.0	1623.0	1609.0	1609.0	1609.0	1607.0	1607.0	1632.0	1632.0	1632.0	1607.0	1607.0	1640.0	1640.0	1640.0	1605.0	1605.0	1642.0	1642.0	1642.0	1662.0	1662.0	1636.0	1636.0	1636.0	1646.0	1646.0	1641.0	1641.0	1641.0	1651.0	1651.0	1698.0	1698.0	1698.0	1700.0	1700.0	1696.0	1696.0	1696.0	1692.0	1692.0	1719.0	1719.0	1719.0	1729.0	1729.0	1743.0	1743.0	1743.0	1790.0	1790.0	1783.0	1783.0	1783.0	1788.0	1788.0	1796.0	1796.0	1796.0	1819.0	1819.0	1857.0	1857.0	1857.0	1860.0	1860.0	1907.0	1907.0	1907.0	1873.0	1873.0	1923.0	1923.0	1923.0	1935.0	1935.0	1932.0	1932.0	1932.0	1962.0	1962.0	1979.0	1979.0	1979.0	2030.0	2030.0	2045.0	2045.0	2045.0	2020.0	2020.0	2049.0	2049.0	2049.0	2060.0	2060.0	2067.0	2067.0	2067.0	2106.0	2106.0	2113.0	2113.0	2113.0	2114.0	2114.0	2150.0	2150.0	2150.0	2147.0	2147.0	2160.0	2160.0	2160.0	2181.0	2181.0	2196.0	2196.0	2196.0	2203.0	2203.0	2206.0	2206.0	2206.0	2204.0	2204.0	2226.0	2226.0	2226.0	2246.0	2246.0	2231.0	2231.0	2231.0	2263.0	2263.0	2243.0	2243.0	2243.0	2268.0	2268.0	2287.0	2287.0	2287.0	2260.0	2260.0	2281.0	2281.0	2281.0	2299.0	2299.0	2291.0	2291.0	2291.0	2312.0	2312.0	2324.0	2324.0	2324.0	2295.0	2295.0	2319.0	2319.0	2319.0	2304.0	2304.0	2306.0	2306.0	2306.0	2334.0	2334.0	2312.0	2312.0	2312.0	2317.0	2317.0	2310.0	2310.0	2310.0	2329.0	2329.0	2301.0	2301.0	2301.0	2308.0	2308.0	2307.0	2307.0	2307.0	2275.0	2275.0	2288.0	2288.0	2288.0	2301.0	2301.0	2285.0	2285.0	2291.0	2291.0	2291.0	2300.0	2300.0	2297.0	2297.0	2297.0	2282.0	2282.0	2297.0	2297.0	2297.0	2292.0	2292.0	2282.0	2282.0	2282.0	2240.0	2240.0	2268.0	2268.0	2268.0	2242.0	2242.0	2247.0	2247.0	2247.0	2260.0	2260.0	2227.0	2227.0	2227.0	2217.0	2217.0	2227.0	2227.0	2227.0	2253.0	2253.0	2211.0	2211.0	2211.0	2196.0	2196.0	2228.0	2228.0	2228.0	2211.0	2211.0	2170.0	2170.0	2170.0	2202.0	2202.0	2202.0	2202.0	2202.0	2177.0	2177.0	2179.0	2179.0	2179.0	2132.0	2132.0	2137.0	2137.0	2137.0	2136.0	2136.0	2146.0	2146.0	2146.0	2142.0	2142.0	2111.0	2111.0	2111.0	2121.0	2121.0	2083.0	2083.0	2083.0	2094.0	2094.0	2096.0	2096.0	2096.0	2057.0	2057.0	2048.0	2048.0	2048.0	2041.0	2041.0	2028.0	2028.0	2028.0	2023.0	2023.0	2036.0	2036.0	2036.0	2036.0	2036.0	1992.0	1992.0	1992.0	1992.0	1992.0	1993.0	1993.0	1993.0	1961.0	1961.0	1962.0	1962.0	1962.0	1993.0	1993.0	1945.0	1945.0	1945.0	1949.0	1949.0	1933.0	1933.0	1933.0	1914.0	1914.0	1904.0	1904.0	1904.0	1912.0	1912.0	1933.0	1933.0	1933.0	1907.0	1907.0	1880.0	1880.0	1880.0	1875.0	1875.0	1885.0	1885.0	1885.0	1904.0	1904.0	1883.0	1883.0	1883.0	1857.0	1857.0	1843.0	1843.0	1843.0	1876.0	1876.0	1830.0	1830.0	1830.0	1832.0	1832.0	1862.0	1862.0	1862.0	1848.0	1848.0	1845.0	1845.0	1845.0	1854.0	1854.0	1831.0	1831.0	1831.0	1819.0	1819.0	1818.0	1818.0	1818.0	1819.0	1819.0	1807.0	1807.0	1807.0	1841.0	1841.0	1812.0	1812.0	1812.0	1804.0	1804.0	1815.0	1815.0	1815.0	1804.0	1804.0	1792.0	1792.0	1793.0	1793.0	1793.0	1798.0	1798.0	1827.0	1827.0	1827.0	1787.0	1787.0	1813.0	1813.0	1813.0	1792.0	1792.0	1788.0	1788.0	1788.0	1820.0	1820.0	1816.0	1816.0	1816.0	1790.0	1790.0	1795.0	1795.0	1795.0	1790.0	1790.0	1778.0	1778.0	1778.0	1802.0	1802.0	1791.0	1791.0	1791.0	1761.0	1761.0	1809.0	1809.0	1809.0	1807.0	1807.0	1807.0	1807.0	1807.0	1770.0	1770.0	1802.0	1802.0	1802.0	1788.0	1788.0	1778.0	1778.0	1778.0	1814.0	1814.0	1774.0	1774.0	1774.0	1800.0	1800.0	1790.0	1790.0	1790.0	1759.0	1759.0	1751.0	1751.0	1751.0	1760.0	1760.0	1786.0	1786.0	1786.0	1769.0	1769.0	1751.0	1751.0	1751.0	1749.0	1749.0	1768.0	1768.0	1768.0	1761.0	1761.0	1762.0	1762.0	1762.0	1774.0	1774.0	1743.0	1743.0	1743.0	1760.0	1760.0	1774.0	1774.0	1774.0	1750.0	1750.0	1747.0	1747.0	1747.0	1741.0	1741.0	1722.0	1722.0	1722.0	1731.0	1731.0	1736.0	1736.0	1736.0	1742.0	1742.0	1738.0	1738.0	1738.0	1718.0	1718.0	1748.0	1748.0	1748.0	1746.0	1746.0	1732.0	1732.0	1732.0	1696.0	1696.0	1714.0	1714.0	1714.0	1737.0	1737.0	1735.0	1735.0	1735.0	1731.0	1731.0	1711.0	1711.0	1711.0	1688.0	1688.0	1713.0	1713.0	1713.0	1720.0	1720.0	1676.0	1676.0	1676.0	1676.0	1676.0	1680.0	1680.0	1680.0	1696.0	1696.0	1673.0	1673.0	1673.0	1700.0	1700.0	1686.0	1686.0	1686.0	1700.0	1700.0	1660.0	1660.0	1660.0	1684.0	1684.0	1676.0	1676.0	1676.0	1711.0	1711.0	1666.0	1666.0	1666.0	1662.0	1662.0	1673.0	1673.0	1673.0	1671.0	1671.0	1643.0	1643.0	1643.0	1652.0	1652.0	1658.0	1658.0	1658.0	1677.0	1677.0	1668.0	1668.0	1637.0	1637.0	1637.0	1672.0	1672.0	1641.0	1641.0	1641.0	1664.0	1664.0	1628.0	1628.0	1628.0	1643.0	1643.0	1658.0	1658.0	1658.0	1652.0	1652.0	1614.0	1614.0	1614.0	1632.0	1632.0	1654.0	1654.0	1654.0	1648.0	1648.0	1619.0	1619.0	1619.0	1624.0	1624.0	1616.0	1616.0	1616.0	1630.0	1630.0	1602.0	1602.0	1602.0	1608.0	1608.0	1627.0	1627.0	1627.0	1599.0	1599.0	1653.0	1653.0	1653.0	1648.0	1648.0	1598.0	1598.0	1598.0	1645.0	1645.0	1634.0	1634.0	1634.0	1631.0	1631.0	1627.0	1627.0	1627.0	1607.0	1607.0	1653.0	1653.0	1653.0	1631.0	1631.0	1601.0	1601.0	1601.0	1640.0	1640.0	1629.0	1629.0	1629.0	1645.0	1645.0	1617.0	1617.0	1617.0	1623.0	1623.0	1675.0	1675.0	1675.0	1658.0	1658.0	1662.0	1662.0	1662.0	1668.0	1668.0	1668.0	1668.0	1668.0	1703.0	1703.0	1733.0	1733.0	1733.0	1695.0	1695.0	1719.0	1719.0	1719.0	1771.0	1771.0	1767.0	1767.0	1767.0	1779.0	1779.0	1773.0	1773.0	1773.0	1786.0	1786.0	1838.0	1838.0	1838.0	1837.0	1837.0	1884.0	1884.0	1884.0	1887.0	1887.0	1929.0	1929.0	1929.0	1921.0	1921.0	1959.0	1959.0	1959.0	1937.0	1937.0	1982.0	1982.0	1982.0	2006.0	2006.0	2009.0	2009.0	2009.0	2039.0	2039.0	2025.0	2025.0	2025.0	2047.0	2047.0	2059.0	2059.0	2059.0	2079.0	2079.0	2083.0	2083.0	2083.0	2139.0	2139.0	2141.0	2141.0	2141.0	2160.0	2160.0	2160.0	2160.0	2160.0	2189.0	2189.0	2206.0	2206.0	2206.0	2176.0	2176.0	2219.0	2219.0	2219.0	2250.0	2250.0	2231.0	2231.0	2231.0	2221.0	2221.0	2259.0	2259.0	2259.0	2284.0	2284.0	2283.0	2283.0	2298.0	2298.0	2298.0	2287.0	2287.0	2283.0	2283.0	2283.0	2311.0	2311.0	2319.0	2319.0	2319.0	2302.0	2302.0	2328.0	2328.0	2328.0	2319.0	2319.0	2355.0	2355.0	2355.0	2353.0	2353.0	2331.0	2331.0	2331.0	2344.0	2344.0	2335.0	2335.0	2335.0	2352.0	2352.0	2346.0	2346.0	2346.0	2342.0	2342.0	2351.0	2351.0	2351.0	2338.0	2338.0	2357.0	2357.0	2357.0	2364.0	2364.0	2361.0	2361.0	2361.0	2334.0	2334.0	2342.0	2342.0	2342.0	2314.0	2314.0	2339.0	2339.0	2339.0	2317.0	2317.0	2311.0	2311.0	2311.0	2342.0	2342.0	2323.0	2323.0	2323.0	2322.0	2322.0	2298.0	2298.0	2298.0	2322.0	2322.0	2320.0	2320.0	2320.0	2301.0	2301.0	2326.0	2326.0	2326.0	2297.0	2297.0	2280.0	2280.0	2280.0	2275.0	2275.0	2280.0	2280.0	2280.0	2268.0	2268.0	2295.0	2295.0	2295.0	2266.0	2266.0	2249.0	2249.0	2249.0	2254.0	2254.0	2271.0	2271.0	2271.0	2236.0	2236.0	2263.0	2263.0	2263.0	2234.0	2234.0	2234.0	2234.0	2234.0	2223.0	2223.0	2232.0	2232.0	2232.0	2224.0	2224.0	2200.0	2200.0	2200.0	2188.0	2188.0	2178.0	2178.0	2178.0	2160.0	2160.0	2170.0	2170.0	2170.0	2150.0	2150.0	2135.0	2135.0	2135.0	2161.0	2161.0	2159.0	2159.0	2159.0	2111.0	2111.0	2148.0	2148.0	2148.0	2114.0	2114.0	2085.0	2085.0	2085.0	2076.0	2076.0	2082.0	2082.0	2082.0	2071.0	2071.0	2077.0	2077.0	2077.0	2051.0	2051.0	2043.0	2043.0	2043.0	2040.0	2040.0	2044.0	2044.0	2044.0	2019.0	2019.0	1998.0	1998.0	1998.0	1981.0	1981.0	2019.0	2019.0	2019.0	1981.0	1981.0	1986.0	1986.0	1986.0	1983.0	1983.0	1956.0	1956.0	1936.0	1936.0	1936.0	1931.0	1931.0	1951.0	1951.0	1951.0	1956.0	1956.0	1946.0	1946.0	1946.0	1901.0	1901.0	1893.0	1893.0	1893.0	1906.0	1906.0	1932.0	1932.0	1932.0	1899.0	1899.0	1923.0	1923.0	1923.0	1924.0	1924.0	1891.0	1891.0	1891.0	1875.0	1875.0	1870.0	1870.0	1870.0	1902.0	1902.0	1897.0	1897.0	1897.0	1900.0	1900.0	1900.0	1900.0	1900.0	1874.0	1874.0	1882.0	1882.0	1882.0	1882.0	1882.0	1860.0	1860.0	1860.0	1890.0	1890.0	1903.0	1903.0	1903.0	1887.0	1887.0	1880.0	1880.0	1880.0	1899.0	1899.0	1906.0	1906.0	1906.0	1859.0	1859.0	1860.0	1860.0	1860.0	1876.0	1876.0	1849.0	1849.0	1849.0	1885.0	1885.0	1887.0	1887.0	1887.0	1861.0	1861.0	1880.0	1880.0	1880.0	1891.0	1891.0	1869.0	1869.0	1869.0	1842.0	1842.0	1869.0	1869.0	1869.0	1878.0	1878.0	1863.0	1863.0	1863.0	1841.0	1841.0	1860.0	1860.0	1860.0	1840.0	1840.0	1844.0	1844.0	1844.0	1836.0	1836.0	1845.0	1845.0	1845.0	1839.0	1839.0	1827.0	1827.0	1827.0	1847.0	1847.0	1825.0	1825.0	1825.0	1821.0	1821.0	1834.0	1834.0	1834.0	1867.0	1867.0	1818.0	1818.0	1818.0	1847.0	1847.0	1863.0	1863.0	1863.0	1847.0	1847.0	1862.0	1862.0	1862.0	1858.0	1858.0	1865.0	1865.0	1865.0	1843.0	1843.0	1846.0	1846.0	1846.0	1830.0	1830.0	1851.0	1851.0	1851.0	1815.0	1815.0	1807.0	1807.0	1807.0	1850.0	1850.0	1803.0	1803.0	1803.0	1805.0	1805.0	1825.0	1825.0	1825.0	1825.0	1825.0	1827.0	1827.0	1827.0	1806.0	1806.0	1829.0	1829.0	1829.0	1786.0	1786.0	1783.0	1783.0	1783.0	1801.0	1801.0	1806.0	1806.0	1806.0	1829.0	1829.0	1779.0	1779.0	1815.0	1815.0	1815.0	1767.0	1767.0	1779.0	1779.0	1779.0	1785.0	1785.0	1800.0	1800.0	1800.0	1769.0	1769.0	1757.0	1757.0	1757.0	1761.0	1761.0	1792.0	1792.0	1792.0	1760.0	1760.0	1769.0	1769.0	1769.0	1762.0	1762.0	1744.0	1744.0	1744.0	1755.0	1755.0	1739.0	1739.0	1739.0	1767.0	1767.0	1747.0	1747.0	1747.0	1758.0	1758.0	1745.0	1745.0	1745.0	1782.0	1782.0	1735.0	1735.0	1735.0	1720.0	1720.0	1742.0	1742.0	1742.0	1718.0	1718.0	1749.0	1749.0	1749.0	1763.0	1763.0	1732.0	1732.0	1732.0	1723.0	1723.0	1741.0	1741.0	1741.0	1723.0	1723.0	1720.0	1720.0	1720.0	1731.0	1731.0	1700.0	1700.0	1700.0	1734.0	1734.0	1692.0	1692.0	1692.0	1739.0	1739.0	1729.0	