2173.0	2173.0	2173.0	2155.0	2155.0	2161.0	2161.0	2161.0	2157.0	2157.0	2171.0	2171.0	2171.0	2149.0	2149.0	2154.0	2154.0	2154.0	2140.0	2140.0	2130.0	2130.0	2130.0	2099.0	2099.0	2096.0	2096.0	2096.0	2110.0	2110.0	2072.0	2072.0	2072.0	2058.0	2058.0	2076.0	2076.0	2076.0	2051.0	2051.0	2051.0	2051.0	2051.0	2042.0	2042.0	2031.0	2031.0	2031.0	2015.0	2015.0	2023.0	2023.0	2023.0	2024.0	2024.0	2040.0	2040.0	2040.0	2018.0	2018.0	2011.0	2011.0	2011.0	2000.0	2000.0	1999.0	1999.0	1999.0	1986.0	1986.0	1981.0	1981.0	1981.0	1966.0	1966.0	1964.0	1964.0	1964.0	1980.0	1980.0	1981.0	1981.0	1981.0	1975.0	1975.0	1929.0	1929.0	1929.0	1964.0	1964.0	1949.0	1949.0	1949.0	1963.0	1963.0	1945.0	1945.0	1945.0	1936.0	1936.0	1959.0	1959.0	1959.0	1925.0	1925.0	1935.0	1935.0	1935.0	1916.0	1916.0	1905.0	1905.0	1905.0	1920.0	1920.0	1918.0	1918.0	1918.0	1929.0	1929.0	1914.0	1914.0	1914.0	1945.0	1945.0	1912.0	1912.0	1912.0	1903.0	1903.0	1941.0	1941.0	1941.0	1929.0	1929.0	1944.0	1944.0	1944.0	1934.0	1934.0	1908.0	1908.0	1908.0	1895.0	1895.0	1912.0	1912.0	1912.0	1903.0	1903.0	1919.0	1919.0	1919.0	1892.0	1892.0	1933.0	1933.0	1933.0	1926.0	1926.0	1914.0	1914.0	1914.0	1894.0	1894.0	1930.0	1930.0	1930.0	1892.0	1892.0	1902.0	1902.0	1902.0	1884.0	1884.0	1880.0	1880.0	1880.0	1899.0	1899.0	1896.0	1896.0	1896.0	1885.0	1885.0	1880.0	1880.0	1880.0	1895.0	1895.0	1895.0	1895.0	1895.0	1910.0	1910.0	1869.0	1869.0	1869.0	1875.0	1875.0	1856.0	1856.0	1863.0	1863.0	1863.0	1877.0	1877.0	1852.0	1852.0	1852.0	1863.0	1863.0	1848.0	1848.0	1848.0	1834.0	1834.0	1857.0	1857.0	1857.0	1839.0	1839.0	1861.0	1861.0	1861.0	1826.0	1826.0	1858.0	1858.0	1858.0	1823.0	1823.0	1811.0	1811.0	1811.0	1858.0	1858.0	1831.0	1831.0	1831.0	1806.0	1806.0	1832.0	1832.0	1832.0	1848.0	1848.0	1787.0	1787.0	1787.0	1805.0	1805.0	1791.0	1791.0	1791.0	1797.0	1797.0	1786.0	1786.0	1786.0	1804.0	1804.0	1795.0	1795.0	1795.0	1791.0	1791.0	1821.0	1821.0	1821.0	1819.0	1819.0	1823.0	1823.0	1823.0	1779.0	1779.0	1788.0	1788.0	1788.0	1797.0	1797.0	1799.0	1799.0	1799.0	1793.0	1793.0	1776.0	1776.0	1776.0	1787.0	1787.0	1752.0	1752.0	1752.0	1754.0	1754.0	1763.0	1763.0	1763.0	1766.0	1766.0	1794.0	1794.0	1794.0	1761.0	1761.0	1740.0	1740.0	1740.0	1739.0	1739.0	1738.0	1738.0	1738.0	1742.0	1742.0	1760.0	1760.0	1760.0	1779.0	1779.0	1741.0	1741.0	1741.0	1762.0	1762.0	1736.0	1736.0	1736.0	1740.0	1740.0	1775.0	1775.0	1775.0	1737.0	1737.0	1763.0	1763.0	1763.0	1718.0	1718.0	1750.0	1750.0	1750.0	1735.0	1735.0	1715.0	1715.0	1715.0	1714.0	1714.0	1736.0	1736.0	1736.0	1719.0	1719.0	1703.0	1703.0	1703.0	1721.0	1721.0	1704.0	1704.0	1704.0	1739.0	1739.0	1760.0	1760.0	1760.0	1723.0	1723.0	1695.0	1695.0	1695.0	1708.0	1708.0	1714.0	1714.0	1714.0	1733.0	1733.0	1708.0	1708.0	1708.0	1746.0	1746.0	1705.0	1705.0	1705.0	1721.0	1721.0	1695.0	1695.0	1695.0	1732.0	1732.0	1723.0	1723.0	1723.0	1753.0	1753.0	1746.0	1746.0	1717.0	1717.0	1717.0	1751.0	1751.0	1722.0	1722.0	1722.0	1728.0	1728.0	1730.0	1730.0	1730.0	1784.0	1784.0	1784.0	1784.0	1784.0	1764.0	1764.0	1816.0	1816.0	1816.0	1795.0	1795.0	1811.0	1811.0	1811.0	1842.0	1842.0	1835.0	1835.0	1835.0	1880.0	1880.0	1886.0	1886.0	1886.0	1891.0	1891.0	1885.0	1885.0	1885.0	1912.0	1912.0	1953.0	1953.0	1953.0	1952.0	1952.0	1995.0	1995.0	1995.0	1999.0	1999.0	2016.0	2016.0	2016.0	2006.0	2006.0	2034.0	2034.0	2034.0	2052.0	2052.0	2083.0	2083.0	2083.0	2083.0	2083.0	2100.0	2100.0	2100.0	2127.0	2127.0	2150.0	2150.0	2150.0	2196.0	2196.0	2198.0	2198.0	2198.0	2224.0	2224.0	2221.0	2221.0	2221.0	2247.0	2247.0	2273.0	2273.0	2273.0	2288.0	2288.0	2268.0	2268.0	2268.0	2320.0	2320.0	2307.0	2307.0	2307.0	2327.0	2327.0	2346.0	2346.0	2346.0	2343.0	2343.0	2370.0	2370.0	2370.0	2353.0	2353.0	2368.0	2368.0	2368.0	2368.0	2368.0	2371.0	2371.0	2371.0	2416.0	2416.0	2382.0	2382.0	2382.0	2400.0	2400.0	2408.0	2408.0	2408.0	2439.0	2439.0	2448.0	2448.0	2448.0	2416.0	2416.0	2453.0	2453.0	2453.0	2435.0	2435.0	2464.0	2464.0	2464.0	2445.0	2445.0	2472.0	2472.0	2472.0	2444.0	2444.0	2445.0	2445.0	2445.0	2480.0	2480.0	2448.0	2448.0	2448.0	2488.0	2488.0	2479.0	2479.0	2479.0	2483.0	2483.0	2472.0	2472.0	2472.0	2478.0	2478.0	2459.0	2459.0	2459.0	2480.0	2480.0	2456.0	2456.0	2456.0	2470.0	2470.0	2456.0	2456.0	2456.0	2451.0	2451.0	2431.0	2431.0	2431.0	2427.0	2427.0	2431.0	2431.0	2431.0	2416.0	2416.0	2444.0	2444.0	2444.0	2400.0	2400.0	2446.0	2446.0	2443.0	2443.0	2443.0	2411.0	2411.0	2415.0	2415.0	2415.0	2386.0	2386.0	2391.0	2391.0	2391.0	2416.0	2416.0	2406.0	2406.0	2406.0	2392.0	2392.0	2399.0	2399.0	2399.0	2359.0	2359.0	2369.0	2369.0	2369.0	2352.0	2352.0	2377.0	2377.0	2377.0	2319.0	2319.0	2361.0	2361.0	2361.0	2346.0	2346.0	2334.0	2334.0	2334.0	2296.0	2296.0	2311.0	2311.0	2311.0	2298.0	2298.0	2271.0	2271.0	2271.0	2275.0	2275.0	2295.0	2295.0	2295.0	2269.0	2269.0	2278.0	2278.0	2278.0	2250.0	2250.0	2259.0	2259.0	2259.0	2226.0	2226.0	2218.0	2218.0	2218.0	2211.0	2211.0	2204.0	2204.0	2204.0	2192.0	2192.0	2206.0	2206.0	2206.0	2153.0	2153.0	2185.0	2185.0	2185.0	2163.0	2163.0	2136.0	2136.0	2136.0	2143.0	2143.0	2148.0	2148.0	2148.0	2122.0	2122.0	2103.0	2103.0	2103.0	2072.0	2072.0	2115.0	2115.0	2115.0	2068.0	2068.0	2058.0	2058.0	2058.0	2048.0	2048.0	2077.0	2077.0	2077.0	2043.0	2043.0	2046.0	2046.0	2046.0	2040.0	2040.0	2036.0	2036.0	2036.0	2024.0	2024.0	2031.0	2031.0	2031.0	1991.0	1991.0	2019.0	2019.0	2019.0	2003.0	2003.0	1970.0	1970.0	1970.0	1982.0	1982.0	1996.0	1996.0	1996.0	1973.0	1973.0	1995.0	1995.0	1995.0	1958.0	1958.0	1999.0	1999.0	1999.0	1980.0	1980.0	1946.0	1946.0	1946.0	1987.0	1987.0	1976.0	1976.0	1976.0	1946.0	1946.0	1979.0	1979.0	1979.0	1960.0	1960.0	1929.0	1929.0	1929.0	1953.0	1953.0	1920.0	1920.0	1920.0	1967.0	1967.0	1972.0	1972.0	1972.0	1971.0	1971.0	1972.0	1972.0	1972.0	1961.0	1961.0	1926.0	1926.0	1926.0	1951.0	1951.0	1964.0	1964.0	1941.0	1941.0	1941.0	1947.0	1947.0	1951.0	1951.0	1951.0	1937.0	1937.0	1943.0	1943.0	1943.0	1967.0	1967.0	1940.0	1940.0	1940.0	1931.0	1931.0	1968.0	1968.0	1968.0	1935.0	1935.0	1929.0	1929.0	1929.0	1920.0	1920.0	1945.0	1945.0	1945.0	1926.0	1926.0	1944.0	1944.0	1944.0	1920.0	1920.0	1926.0	1926.0	1926.0	1946.0	1946.0	1955.0	1955.0	1955.0	1956.0	1956.0	1919.0	1919.0	1919.0	1904.0	1904.0	1933.0	1933.0	1933.0	1921.0	1921.0	1916.0	1916.0	1916.0	1918.0	1918.0	1925.0	1925.0	1925.0	1913.0	1913.0	1932.0	1932.0	1932.0	1891.0	1891.0	1884.0	1884.0	1884.0	1886.0	1886.0	1877.0	1877.0	1877.0	1907.0	1907.0	1875.0	1875.0	1875.0	1870.0	1870.0	1908.0	1908.0	1908.0	1857.0	1857.0	1905.0	1905.0	1905.0	1903.0	1903.0	1897.0	1897.0	1897.0	1872.0	1872.0	1872.0	1872.0	1872.0	1855.0	1855.0	1884.0	1884.0	1884.0	1834.0	1834.0	1849.0	1849.0	1849.0	1854.0	1854.0	1836.0	1836.0	1836.0	1847.0	1847.0	1832.0	1832.0	1832.0	1827.0	1827.0	1859.0	1859.0	1859.0	1830.0	1830.0	1822.0	1822.0	1822.0	1855.0	1855.0	1859.0	1859.0	1859.0	1823.0	1823.0	1832.0	1832.0	1832.0	1845.0	1845.0	1809.0	1809.0	1809.0	1798.0	1798.0	1798.0	1798.0	1798.0	1821.0	1821.0	1803.0	1803.0	1803.0	1805.0	1805.0	1785.0	1785.0	1785.0	1822.0	1822.0	1823.0	1823.0	1823.0	1796.0	1796.0	1794.0	1794.0	1794.0	1797.0	1797.0	1784.0	1784.0	1784.0	1762.0	1762.0	1760.0	1760.0	1760.0	1792.0	1792.0	1749.0	1749.0	1749.0	1786.0	1786.0	1761.0	1761.0	1761.0	1762.0	1762.0	1764.0	1764.0	1785.0	1785.0	1785.0	1783.0	1783.0	1785.0	1785.0	1785.0	1791.0	1791.0	1735.0	1735.0	1735.0	1739.0	1739.0	1783.0	1783.0	1783.0	1736.0	1736.0	1755.0	1755.0	1755.0	1727.0	1727.0	1727.0	1727.0	1727.0	1740.0	1740.0	1742.0	1742.0	1742.0	1731.0	1731.0	1760.0	1760.0	1760.0	1755.0	1755.0	1742.0	1742.0	1742.0	1738.0	1738.0	1738.0	1738.0	1738.0	1761.0	1761.0	1741.0	1741.0	1741.0	1754.0	1754.0	1733.0	1733.0	1733.0	1726.0	1726.0	1715.0	1715.0	1715.0	1765.0	1765.0	1756.0	1756.0	1756.0	1756.0	1756.0	1739.0	1739.0	1739.0	1771.0	1771.0	1756.0	1756.0	1756.0	1751.0	1751.0	1787.0	1787.0	1787.0	1786.0	1786.0	1781.0	1781.0	1781.0	1801.0	1801.0	1802.0	1802.0	1802.0	1798.0	1798.0	1820.0	1820.0	1820.0	1809.0	1809.0	1819.0	1819.0	1819.0	1831.0	1831.0	1855.0	1855.0	1855.0	1874.0	1874.0	1886.0	1886.0	1886.0	1879.0	1879.0	1917.0	1917.0	1917.0	1935.0	1935.0	1959.0	1959.0	1959.0	1954.0	1954.0	1974.0	1974.0	1974.0	1987.0	1987.0	2050.0	2050.0	2050.0	2028.0	2028.0	2048.0	2048.0	2048.0	2106.0	2106.0	2098.0	2098.0	2098.0	2112.0	2112.0	2133.0	2133.0	2133.0	2160.0	2160.0	2173.0	2173.0	2173.0	2165.0	2165.0	2181.0	2181.0	2181.0	2203.0	2203.0	2238.0	2238.0	2238.0	2255.0	2255.0	2237.0	2237.0	2237.0	2271.0	2271.0	2288.0	2288.0	2288.0	2287.0	2287.0	2286.0	2286.0	2286.0	2346.0	2346.0	2364.0	2364.0	2364.0	2335.0	2335.0	2334.0	2334.0	2334.0	2363.0	2363.0	2368.0	2368.0	2368.0	2387.0	2387.0	2400.0	2400.0	2400.0	2408.0	2408.0	2403.0	2403.0	2403.0	2414.0	2414.0	2438.0	2438.0	2441.0	2441.0	2441.0	2454.0	2454.0	2452.0	2452.0	2452.0	2423.0	2423.0	2471.0	2471.0	2471.0	2443.0	2443.0	2444.0	2444.0	2444.0	2471.0	2471.0	2479.0	2479.0	2479.0	2431.0	2431.0	2457.0	2457.0	2457.0	2435.0	2435.0	2438.0	2438.0	2438.0	2441.0	2441.0	2428.0	2428.0	2428.0	2468.0	2468.0	2439.0	2439.0	2439.0	2449.0	2449.0	2464.0	2464.0	2464.0	2458.0	2458.0	2441.0	2441.0	2441.0	2461.0	2461.0	2411.0	2411.0	2411.0	2425.0	2425.0	2442.0	2442.0	2442.0	2385.0	2385.0	2443.0	2443.0	2443.0	2412.0	2412.0	2403.0	2403.0	2403.0	2389.0	2389.0	2364.0	2364.0	2364.0	2400.0	2400.0	2384.0	2384.0	2384.0	2410.0	2410.0	2366.0	2366.0	2366.0	2364.0	2364.0	2347.0	2347.0	2347.0	2343.0	2343.0	2330.0	2330.0	2330.0	2349.0	2349.0	2333.0	2333.0	2333.0	2330.0	2330.0	2344.0	2344.0	2344.0	2328.0	2328.0	2315.0	2315.0	2315.0	2310.0	2310.0	2293.0	2293.0	2293.0	2276.0	2276.0	2280.0	2280.0	2280.0	2288.0	2288.0	2247.0	2247.0	2247.0	2255.0	2255.0	2242.0	2242.0	2242.0	2231.0	2231.0	2233.0	2233.0	2233.0	2197.0	2197.0	2221.0	2221.0	2221.0	2228.0	2228.0	2174.0	2174.0	2174.0	2171.0	2171.0	2187.0	2187.0	2187.0	2152.0	2152.0	2167.0	2167.0	2167.0	2146.0	2146.0	2111.0	2111.0	2111.0	2096.0	2096.0	2113.0	2113.0	2113.0	2072.0	2072.0	2090.0	2090.0	2090.0	2101.0	2101.0	2085.0	2085.0	2085.0	2073.0	2073.0	2047.0	2047.0	2047.0	2051.0	2051.0	2058.0	2058.0	2058.0	2052.0	2052.0	2040.0	2040.0	2040.0	2001.0	2001.0	2008.0	2008.0	2008.0	1995.0	1995.0	1998.0	1998.0	2011.0	2011.0	2011.0	1983.0	1983.0	2025.0	2025.0	2025.0	1967.0	1967.0	1982.0	1982.0	1982.0	1958.0	1958.0	1960.0	1960.0	1960.0	1994.0	1994.0	1948.0	1948.0	1948.0	1987.0	1987.0	1991.0	1991.0	1991.0	1945.0	1945.0	1940.0	1940.0	1940.0	1975.0	1975.0	1959.0	1959.0	1959.0	1956.0	1956.0	1958.0	1958.0	1958.0	1937.0	1937.0	1972.0	1972.0	1972.0	1962.0	1962.0	1943.0	1943.0	1943.0	1973.0	1973.0	1933.0	1933.0	1933.0	1966.0	1966.0	1934.0	1934.0	1934.0	1935.0	1935.0	1960.0	1960.0	1960.0	1955.0	1955.0	1921.0	1921.0	1921.0	1927.0	1927.0	1962.0	1962.0	1962.0	1962.0	1962.0	1918.0	1918.0	1918.0	1930.0	1930.0	1949.0	1949.0	1949.0	1958.0	1958.0	1955.0	1955.0	1955.0	1921.0	1921.0	1955.0	1955.0	1955.0	1913.0	1913.0	1952.0	1952.0	1952.0	1914.0	1914.0	1923.0	1923.0	1923.0	1955.0	1955.0	1915.0	1915.0	1915.0	1951.0	1951.0	1918.0	1918.0	1918.0	1901.0	1901.0	1911.0	1911.0	1911.0	1897.0	1897.0	1910.0	1910.0	1910.0	1929.0	1929.0	1920.0	1920.0	1920.0	1905.0	1905.0	1903.0	1903.0	1903.0	1933.0	1933.0	1924.0	1924.0	1924.0	1914.0	1914.0	1916.0	1916.0	1916.0	1897.0	1897.0	1913.0	1913.0	1913.0	1913.0	1913.0	1869.0	1869.0	1869.0	1871.0	1871.0	1867.0	1867.0	1867.0	1889.0	1889.0	1901.0	1901.0	1901.0	1866.0	1866.0	1893.0	1893.0	1893.0	1840.0	1840.0	1882.0	1882.0	1882.0	1872.0	1872.0	1878.0	1878.0	1878.0	1836.0	1836.0	1875.0	1875.0	1875.0	1835.0	1835.0	1831.0	1831.0	1831.0	1827.0	1827.0	1825.0	1825.0	1825.0	1828.0	1828.0	1848.0	1848.0	1848.0	1846.0	1846.0	1846.0	1846.0	1828.0	1828.0	1828.0	1863.0	1863.0	1796.0	1796.0	1796.0	1840.0	1840.0	1817.0	1817.0	1817.0	1822.0	1822.0	1831.0	1831.0	1831.0	1836.0	1836.0	1792.0	1792.0	1792.0	1794.0	1794.0	1796.0	1796.0	1796.0	1834.0	1834.0	1810.0	1810.0	1810.0	1805.0	1805.0	1815.0	1815.0	1815.0	1808.0	1808.0	1820.0	1820.0	1820.0	1816.0	1816.0	1816.0	1816.0	1816.0	1815.0	1815.0	1770.0	1770.0	1770.0	1828.0	1828.0	1762.0	1762.0	1762.0	1812.0	1812.0	1769.0	1769.0	1769.0	1810.0	1810.0	1774.0	1774.0	1774.0	1764.0	1764.0	1765.0	1765.0	1765.0	1773.0	1773.0	1797.0	1797.0	1797.0	1750.0	1750.0	1748.0	1748.0	1748.0	1796.0	1796.0	1795.0	1795.0	1795.0	1757.0	1757.0	1791.0	1791.0	1791.0	1735.0	1735.0	1783.0	1783.0	1783.0	1729.0	1729.0	1777.0	1777.0	1777.0	1743.0	1743.0	1735.0	1735.0	1735.0	1758.0	1758.0	1742.0	1742.0	1742.0	1759.0	1759.0	1715.0	1715.0	1715.0	1759.0	1759.0	1726.0	1726.0	1726.0	1763.0	1763.0	1768.0	1768.0	1768.0	1770.0	1770.0	1721.0	1721.0	1721.0	1726.0	1726.0	1724.0	1724.0	1724.0	1757.0	1757.0	1776.0	1776.0	1776.0	1745.0	1745.0	1736.0	1736.0	1736.0	1734.0	1734.0	1756.0	1756.0	1756.0	1790.0	1790.0	1798.0	1798.0	1798.0	1799.0	1799.0	1799.0	1799.0	1799.0	1809.0	1809.0	1834.0	1834.0	1834.0	1871.0	1871.0	1843.0	1843.0	1843.0	1865.0	1865.0	1905.0	1905.0	1905.0	1890.0	1890.0	1898.0	1898.0	1898.0	1946.0	1946.0	1953.0	1953.0	1953.0	1955.0	1955.0	1977.0	1977.0	1977.0	2006.0	2006.0	2033.0	2033.0	2033.0	2019.0	2019.0	2076.0	2076.0	2085.0	2085.0	2085.0	2068.0	2068.0	2119.0	2119.0	2119.0	2138.0	2138.0	2138.0	2138.0	2138.0	2176.0	2176.0	2200.0	2200.0	2200.0	2217.0	2217.0	2225.0	2225.0	2225.0	2233.0	2233.0	2250.0	2250.0	2250.0	2238.0	2238.0	2286.0	2286.0	2286.0	2256.0	2256.0	2288.0	2288.0	2288.0	2335.0	2335.0	2331.0	2331.0	2331.0	2342.0	2342.0	2341.0	2341.0	2341.0	2341.0	2341.0	2364.0	2364.0	2364.0	2396.0	2396.0	2362.0	2362.0	2362.0	2387.0	2387.0	2385.0	2385.0	2385.0	2411.0	2411.0	2435.0	2435.0	2435.0	2411.0	2411.0	2416.0	2416.0	2416.0	2405.0	2405.0	2454.0	2454.0	2454.0	2413.0	2413.0	2451.0	2451.0	2451.0	2440.0	2440.0	2419.0	2419.0	2419.0	2444.0	2444.0	2455.0	2455.0	2455.0	2439.0	2439.0	2428.0	2428.0	2428.0	2448.0	2448.0	2438.0	2438.0	2438.0	2466.0	2466.0	2456.0	2456.0	2456.0	2460.0	2460.0	2429.0	2429.0	2429.0	2406.0	2406.0	2436.0	2436.0	2436.0	2422.0	2422.0	2425.0	2425.0	2425.0	2423.0	2423.0	2392.0	2392.0	2392.0	2388.0	2388.0	2423.0	2423.0	2423.0	2418.0	2418.0	2410.0	2410.0	2410.0	2399.0	2399.0	2375.0	2375.0	2375.0	2409.0	2409.0	2387.0	2387.0	2387.0	2358.0	2358.0	2377.0	2377.0	2377.0	2373.0	2373.0	2347.0	2347.0	2347.0	2370.0	2370.0	2347.0	2347.0	2347.0	2329.0	2329.0	2359.0	2359.0	2359.0	2354.0	2354.0	2327.0	2327.0	2327.0	2313.0	2313.0	2314.0	2314.0	2314.0	2335.0	2335.0	2294.0	2294.0	2294.0	2304.0	2304.0	2314.0	2314.0	2314.0	2283.0	2283.0	2285.0	2285.0	2285.0	2281.0	2281.0	2282.0	2282.0	2282.0	2247.0	2247.0	2255.0	2255.0	2231.0	2231.0	2231.0	2212.0	2212.0	2205.0	2205.0	2205.0	2234.0	2234.0	2200.0	2200.0	2200.0	2196.0	2196.0	2198.0	2198.0	2198.0	2191.0	2191.0	2147.0	2147.0	2147.0	2134.0	2134.0	2162.0	2162.0	2162.0	2152.0	2152.0	2113.0	2113.0	2113.0	2152.0	2152.0	2105.0	2105.0	2105.0	2097.0	2097.0	2105.0	2105.0	2105.0	2086.0	2086.0	2086.0	2086.0	2086.0	2092.0	2092.0	2065.0	2065.0	2065.0	2074.0	2074.0	2020.0	2020.0	2020.0	2018.0	2018.0	2011.0	2011.0	2011.0	2040.0	2040.0	