2458.0	2458.0	2471.0	2471.0	2471.0	2512.0	2512.0	2449.0	2449.0	2449.0	2428.0	2428.0	2485.0	2485.0	2485.0	2430.0	2430.0	2491.0	2491.0	2491.0	2463.0	2463.0	2440.0	2440.0	2440.0	2446.0	2446.0	2429.0	2429.0	2429.0	2427.0	2427.0	2439.0	2439.0	2439.0	2409.0	2409.0	2437.0	2437.0	2437.0	2348.0	2348.0	2395.0	2395.0	2395.0	2345.0	2345.0	2341.0	2341.0	2341.0	2362.0	2362.0	2379.0	2379.0	2379.0	2391.0	2391.0	2333.0	2333.0	2333.0	2331.0	2331.0	2349.0	2349.0	2349.0	2295.0	2295.0	2323.0	2323.0	2323.0	2253.0	2253.0	2239.0	2239.0	2239.0	2236.0	2236.0	2222.0	2222.0	2222.0	2268.0	2268.0	2202.0	2202.0	2202.0	2263.0	2263.0	2175.0	2175.0	2175.0	2240.0	2240.0	2225.0	2225.0	2225.0	2142.0	2142.0	2201.0	2201.0	2201.0	2185.0	2185.0	2115.0	2115.0	2115.0	2106.0	2106.0	2172.0	2172.0	2172.0	2127.0	2127.0	2112.0	2112.0	2112.0	2130.0	2130.0	2074.0	2074.0	2074.0	2114.0	2114.0	2031.0	2031.0	2031.0	2087.0	2087.0	2079.0	2079.0	2079.0	2023.0	2023.0	2000.0	2000.0	2000.0	2073.0	2073.0	1985.0	1985.0	1985.0	2050.0	2050.0	2006.0	2006.0	2006.0	1967.0	1967.0	2031.0	2031.0	2031.0	2005.0	2005.0	1946.0	1946.0	1946.0	1987.0	1987.0	1931.0	1931.0	1931.0	1976.0	1976.0	1925.0	1925.0	1925.0	1999.0	1999.0	1937.0	1937.0	1937.0	1920.0	1920.0	1943.0	1943.0	1943.0	1931.0	1931.0	1941.0	1941.0	1941.0	1953.0	1953.0	1890.0	1890.0	1890.0	1961.0	1961.0	1932.0	1932.0	1932.0	1954.0	1954.0	1876.0	1876.0	1876.0	1872.0	1872.0	1894.0	1894.0	1894.0	1896.0	1896.0	1902.0	1902.0	1902.0	1876.0	1876.0	1866.0	1866.0	1939.0	1939.0	1939.0	1861.0	1861.0	1919.0	1919.0	1919.0	1862.0	1862.0	1864.0	1864.0	1864.0	1914.0	1914.0	1934.0	1934.0	1934.0	1934.0	1934.0	1872.0	1872.0	1872.0	1871.0	1871.0	1921.0	1921.0	1921.0	1851.0	1851.0	1866.0	1866.0	1866.0	1860.0	1860.0	1868.0	1868.0	1868.0	1901.0	1901.0	1870.0	1870.0	1870.0	1928.0	1928.0	1942.0	1942.0	1942.0	1921.0	1921.0	1883.0	1883.0	1883.0	1943.0	1943.0	1874.0	1874.0	1874.0	1865.0	1865.0	1863.0	1863.0	1863.0	1844.0	1844.0	1879.0	1879.0	1879.0	1908.0	1908.0	1928.0	1928.0	1928.0	1914.0	1914.0	1927.0	1927.0	1927.0	1875.0	1875.0	1870.0	1870.0	1870.0	1837.0	1837.0	1840.0	1840.0	1840.0	1840.0	1840.0	1891.0	1891.0	1891.0	1898.0	1898.0	1823.0	1823.0	1823.0	1838.0	1838.0	1890.0	1890.0	1890.0	1850.0	1850.0	1829.0	1829.0	1829.0	1848.0	1848.0	1816.0	1816.0	1816.0	1882.0	1882.0	1808.0	1808.0	1808.0	1807.0	1807.0	1865.0	1865.0	1865.0	1876.0	1876.0	1815.0	1815.0	1815.0	1848.0	1848.0	1818.0	1818.0	1818.0	1879.0	1879.0	1833.0	1833.0	1833.0	1802.0	1802.0	1865.0	1865.0	1865.0	1833.0	1833.0	1810.0	1810.0	1810.0	1872.0	1872.0	1825.0	1825.0	1825.0	1800.0	1800.0	1800.0	1800.0	1800.0	1872.0	1872.0	1840.0	1840.0	1840.0	1810.0	1810.0	1853.0	1853.0	1853.0	1868.0	1868.0	1867.0	1867.0	1867.0	1811.0	1811.0	1866.0	1866.0	1866.0	1802.0	1802.0	1835.0	1835.0	1835.0	1834.0	1834.0	1831.0	1831.0	1831.0	1871.0	1871.0	1817.0	1817.0	1817.0	1836.0	1836.0	1805.0	1805.0	1805.0	1857.0	1857.0	1783.0	1783.0	1861.0	1861.0	1861.0	1780.0	1780.0	1772.0	1772.0	1772.0	1774.0	1774.0	1784.0	1784.0	1784.0	1838.0	1838.0	1860.0	1860.0	1860.0	1831.0	1831.0	1837.0	1837.0	1837.0	1776.0	1776.0	1849.0	1849.0	1849.0	1786.0	1786.0	1791.0	1791.0	1791.0	1772.0	1772.0	1828.0	1828.0	1828.0	1830.0	1830.0	1770.0	1770.0	1770.0	1774.0	1774.0	1767.0	1767.0	1767.0	1766.0	1766.0	1792.0	1792.0	1792.0	1799.0	1799.0	1811.0	1811.0	1811.0	1847.0	1847.0	1810.0	1810.0	1810.0	1779.0	1779.0	1799.0	1799.0	1799.0	1786.0	1786.0	1847.0	1847.0	1847.0	1766.0	1766.0	1770.0	1770.0	1770.0	1796.0	1796.0	1833.0	1833.0	1833.0	1771.0	1771.0	1825.0	1825.0	1825.0	1779.0	1779.0	1812.0	1812.0	1812.0	1806.0	1806.0	1776.0	1776.0	1776.0	1773.0	1773.0	1841.0	1841.0	1841.0	1782.0	1782.0	1801.0	1801.0	1801.0	1834.0	1834.0	1868.0	1868.0	1868.0	1805.0	1805.0	1852.0	1852.0	1852.0	1834.0	1834.0	1853.0	1853.0	1853.0	1851.0	1851.0	1781.0	1781.0	1781.0	1795.0	1795.0	1787.0	1787.0	1787.0	1843.0	1843.0	1834.0	1834.0	1834.0	1850.0	1850.0	1786.0	1786.0	1786.0	1787.0	1787.0	1830.0	1830.0	1830.0	1857.0	1857.0	1814.0	1814.0	1814.0	1855.0	1855.0	1841.0	1841.0	1841.0	1855.0	1855.0	1793.0	1793.0	1793.0	1802.0	1802.0	1848.0	1848.0	1848.0	1788.0	1788.0	1786.0	1786.0	1786.0	1855.0	1855.0	1807.0	1807.0	1807.0	1815.0	1815.0	1794.0	1794.0	1794.0	1860.0	1860.0	1823.0	1823.0	1823.0	1854.0	1854.0	1855.0	1855.0	1855.0	1854.0	1854.0	1845.0	1845.0	1845.0	1824.0	1824.0	1900.0	1900.0	1904.0	1904.0	1904.0	1912.0	1912.0	1848.0	1848.0	1848.0	1879.0	1879.0	1912.0	1912.0	1912.0	1939.0	1939.0	1884.0	1884.0	1884.0	1894.0	1894.0	1913.0	1913.0	1913.0	1978.0	1978.0	1945.0	1945.0	1945.0	2033.0	2033.0	1980.0	1980.0	1980.0	2000.0	2000.0	2093.0	2093.0	2093.0	2078.0	2078.0	2086.0	2086.0	2086.0	2156.0	2156.0	2142.0	2142.0	2142.0	2147.0	2147.0	2207.0	2207.0	2207.0	2268.0	2268.0	2258.0	2258.0	2258.0	2253.0	2253.0	2268.0	2268.0	2268.0	2315.0	2315.0	2321.0	2321.0	2321.0	2416.0	2416.0	2448.0	2448.0	2448.0	2390.0	2390.0	2466.0	2466.0	2466.0	2439.0	2439.0	2438.0	2438.0	2438.0	2480.0	2480.0	2474.0	2474.0	2474.0	2499.0	2499.0	2574.0	2574.0	2574.0	2541.0	2541.0	2523.0	2523.0	2523.0	2576.0	2576.0	2566.0	2566.0	2566.0	2576.0	2576.0	2603.0	2603.0	2603.0	2568.0	2568.0	2568.0	2568.0	2568.0	2564.0	2564.0	2628.0	2628.0	2628.0	2572.0	2572.0	2565.0	2565.0	2565.0	2603.0	2603.0	2609.0	2609.0	2609.0	2554.0	2554.0	2624.0	2624.0	2624.0	2540.0	2540.0	2576.0	2576.0	2576.0	2572.0	2572.0	2571.0	2571.0	2571.0	2547.0	2547.0	2597.0	2597.0	2597.0	2548.0	2548.0	2565.0	2565.0	2565.0	2571.0	2571.0	2525.0	2525.0	2525.0	2546.0	2546.0	2586.0	2586.0	2586.0	2583.0	2583.0	2579.0	2579.0	2579.0	2506.0	2506.0	2569.0	2569.0	2569.0	2565.0	2565.0	2518.0	2518.0	2518.0	2532.0	2532.0	2551.0	2551.0	2551.0	2546.0	2546.0	2544.0	2544.0	2544.0	2511.0	2511.0	2470.0	2470.0	2470.0	2446.0	2446.0	2523.0	2523.0	2523.0	2435.0	2435.0	2495.0	2495.0	2495.0	2415.0	2415.0	2431.0	2431.0	2445.0	2445.0	2445.0	2390.0	2390.0	2398.0	2398.0	2398.0	2433.0	2433.0	2375.0	2375.0	2375.0	2400.0	2400.0	2408.0	2408.0	2408.0	2418.0	2418.0	2414.0	2414.0	2414.0	2401.0	2401.0	2338.0	2338.0	2338.0	2374.0	2374.0	2373.0	2373.0	2373.0	2333.0	2333.0	2288.0	2288.0	2288.0	2275.0	2275.0	2322.0	2322.0	2322.0	2308.0	2308.0	2302.0	2302.0	2302.0	2253.0	2253.0	2260.0	2260.0	2260.0	2296.0	2296.0	2262.0	2262.0	2262.0	2231.0	2231.0	2250.0	2250.0	2250.0	2183.0	2183.0	2182.0	2182.0	2182.0	2222.0	2222.0	2219.0	2219.0	2219.0	2189.0	2189.0	2144.0	2144.0	2144.0	2125.0	2125.0	2141.0	2141.0	2141.0	2120.0	2120.0	2165.0	2165.0	2165.0	2098.0	2098.0	2163.0	2163.0	2163.0	2088.0	2088.0	2106.0	2106.0	2106.0	2150.0	2150.0	2130.0	2130.0	2130.0	2103.0	2103.0	2063.0	2063.0	2063.0	2079.0	2079.0	2107.0	2107.0	2107.0	2116.0	2116.0	2052.0	2052.0	2052.0	2102.0	2102.0	2104.0	2104.0	2104.0	2064.0	2064.0	2107.0	2107.0	2107.0	2083.0	2083.0	2072.0	2072.0	2072.0	2011.0	2011.0	2083.0	2083.0	2083.0	2021.0	2021.0	2065.0	2065.0	2065.0	2009.0	2009.0	2060.0	2060.0	2060.0	2000.0	2000.0	2058.0	2058.0	2058.0	1977.0	1977.0	2022.0	2022.0	2022.0	2034.0	2034.0	1957.0	1957.0	1957.0	1976.0	1976.0	2022.0	2022.0	2022.0	2034.0	2034.0	2027.0	2027.0	2027.0	1966.0	1966.0	1989.0	1989.0	1989.0	2035.0	2035.0	1950.0	1950.0	1950.0	1957.0	1957.0	1990.0	1990.0	1990.0	2003.0	2003.0	1964.0	1964.0	1964.0	1980.0	1980.0	1951.0	1951.0	1951.0	2011.0	2011.0	1970.0	1970.0	1943.0	1943.0	1943.0	1917.0	1917.0	1919.0	1919.0	1919.0	1923.0	1923.0	1906.0	1906.0	1906.0	1931.0	1931.0	1937.0	1937.0	1937.0	1914.0	1914.0	1919.0	1919.0	1919.0	1900.0	1900.0	1932.0	1932.0	1932.0	1954.0	1954.0	1970.0	1970.0	1970.0	1955.0	1955.0	1959.0	1959.0	1959.0	1944.0	1944.0	1925.0	1925.0	1925.0	1883.0	1883.0	1957.0	1957.0	1957.0	1877.0	1877.0	1931.0	1931.0	1931.0	1935.0	1935.0	1936.0	1936.0	1936.0	1902.0	1902.0	1937.0	1937.0	1937.0	1859.0	1859.0	1891.0	1891.0	1891.0	1864.0	1864.0	1871.0	1871.0	1871.0	1893.0	1893.0	1904.0	1904.0	1904.0	1877.0	1877.0	1845.0	1845.0	1845.0	1920.0	1920.0	1841.0	1841.0	1841.0	1893.0	1893.0	1921.0	1921.0	1921.0	1865.0	1865.0	1895.0	1895.0	1895.0	1852.0	1852.0	1909.0	1909.0	1909.0	1829.0	1829.0	1837.0	1837.0	1837.0	1844.0	1844.0	1898.0	1898.0	1898.0	1820.0	1820.0	1874.0	1874.0	1874.0	1811.0	1811.0	1895.0	1895.0	1895.0	1830.0	1830.0	1894.0	1894.0	1894.0	1875.0	1875.0	1860.0	1860.0	1860.0	1835.0	1835.0	1856.0	1856.0	1856.0	1794.0	1794.0	1875.0	1875.0	1875.0	1810.0	1810.0	1856.0	1856.0	1856.0	1810.0	1810.0	1829.0	1829.0	1829.0	1837.0	1837.0	1842.0	1842.0	1842.0	1852.0	1852.0	1847.0	1847.0	1847.0	1812.0	1812.0	1794.0	1794.0	1794.0	1784.0	1784.0	1791.0	1791.0	1791.0	1843.0	1843.0	1785.0	1785.0	1785.0	1775.0	1775.0	1768.0	1768.0	1768.0	1830.0	1830.0	1840.0	1840.0	1840.0	1779.0	1779.0	1772.0	1772.0	1772.0	1804.0	1804.0	1772.0	1772.0	1772.0	1844.0	1844.0	1770.0	1770.0	1766.0	1766.0	1766.0	1794.0	1794.0	1774.0	1774.0	1774.0	1761.0	1761.0	1773.0	1773.0	1773.0	1749.0	1749.0	1805.0	1805.0	1805.0	1808.0	1808.0	1810.0	1810.0	1810.0	1753.0	1753.0	1763.0	1763.0	1763.0	1808.0	1808.0	1737.0	1737.0	1737.0	1811.0	1811.0	1723.0	1723.0	1723.0	1783.0	1783.0	1801.0	1801.0	1801.0	1721.0	1721.0	1721.0	1721.0	1721.0	1769.0	1769.0	1770.0	1770.0	1770.0	1698.0	1698.0	1736.0	1736.0	1736.0	1756.0	1756.0	1744.0	1744.0	1744.0	1760.0	1760.0	1692.0	1692.0	1692.0	1709.0	1709.0	1744.0	1744.0	1744.0	1673.0	1673.0	1739.0	1739.0	1739.0	1664.0	1664.0	1653.0	1653.0	1653.0	1657.0	1657.0	1710.0	1710.0	1710.0	1733.0	1733.0	1671.0	1671.0	1671.0	1727.0	1727.0	1653.0	1653.0	1653.0	1654.0	1654.0	1650.0	1650.0	1650.0	1668.0	1668.0	1645.0	1645.0	1645.0	1640.0	1640.0	1682.0	1682.0	1682.0	1676.0	1676.0	1685.0	1685.0	1685.0	1727.0	1727.0	1688.0	1688.0	1688.0	1710.0	1710.0	1663.0	1663.0	1663.0	1731.0	1731.0	1674.0	1674.0	1674.0	1726.0	1726.0	1736.0	1736.0	1736.0	1702.0	1702.0	1696.0	1696.0	1696.0	1732.0	1732.0	1762.0	1762.0	1762.0	1755.0	1755.0	1719.0	1719.0	1719.0	1739.0	1739.0	1759.0	1759.0	1759.0	1728.0	1728.0	1783.0	1783.0	1783.0	1788.0	1788.0	1832.0	1832.0	1832.0	1830.0	1830.0	1823.0	1823.0	1823.0	1805.0	1805.0	1866.0	1866.0	1866.0	1824.0	1824.0	1827.0	1827.0	1827.0	1853.0	1853.0	1871.0	1871.0	1871.0	1918.0	1918.0	1994.0	1994.0	1994.0	1975.0	1975.0	1968.0	1968.0	1968.0	2050.0	2050.0	2059.0	2059.0	2059.0	2051.0	2051.0	2110.0	2110.0	2168.0	2168.0	2168.0	2167.0	2167.0	2171.0	2171.0	2171.0	2224.0	2224.0	2277.0	2277.0	2277.0	2222.0	2222.0	2250.0	2250.0	2250.0	2338.0	2338.0	2302.0	2302.0	2302.0	2323.0	2323.0	2353.0	2353.0	2353.0	2411.0	2411.0	2407.0	2407.0	2407.0	2397.0	2397.0	2450.0	2450.0	2450.0	2455.0	2455.0	2511.0	2511.0	2511.0	2531.0	2531.0	2504.0	2504.0	2504.0	2477.0	2477.0	2505.0	2505.0	2505.0	2491.0	2491.0	2510.0	2510.0	2510.0	2594.0	2594.0	2522.0	2522.0	2522.0	2533.0	2533.0	2567.0	2567.0	2567.0	2554.0	2554.0	2605.0	2605.0	2605.0	2555.0	2555.0	2549.0	2549.0	2549.0	2596.0	2596.0	2598.0	2598.0	2598.0	2568.0	2568.0	2525.0	2525.0	2525.0	2520.0	2520.0	2576.0	2576.0	2576.0	2503.0	2503.0	2554.0	2554.0	2554.0	2569.0	2569.0	2567.0	2567.0	2567.0	2560.0	2560.0	2546.0	2546.0	2546.0	2473.0	2473.0	2550.0	2550.0	2550.0	2467.0	2467.0	2533.0	2533.0	2533.0	2485.0	2485.0	2487.0	2487.0	2487.0	2434.0	2434.0	2427.0	2427.0	2427.0	2423.0	2423.0	2484.0	2484.0	2484.0	2453.0	2453.0	2410.0	2410.0	2410.0	2416.0	2416.0	2389.0	2389.0	2389.0	2426.0	2426.0	2435.0	2435.0	2435.0	2355.0	2355.0	2353.0	2353.0	2353.0	2340.0	2340.0	2338.0	2338.0	2338.0	2339.0	2339.0	2351.0	2351.0	2351.0	2377.0	2377.0	2290.0	2290.0	2290.0	2355.0	2355.0	2274.0	2274.0	2274.0	2276.0	2276.0	2272.0	2272.0	2272.0	2285.0	2285.0	2235.0	2235.0	2235.0	2251.0	2251.0	2285.0	2285.0	2285.0	2220.0	2220.0	2263.0	2263.0	2263.0	2204.0	2204.0	2232.0	2232.0	2232.0	2212.0	2212.0	2170.0	2170.0	2211.0	2211.0	2211.0	2236.0	2236.0	2144.0	2144.0	2144.0	2210.0	2210.0	2124.0	2124.0	2124.0	2114.0	2114.0	2168.0	2168.0	2168.0	2097.0	2097.0	2114.0	2114.0	2114.0	2087.0	2087.0	2067.0	2067.0	2067.0	2119.0	2119.0	2107.0	2107.0	2107.0	2076.0	2076.0	2064.0	2064.0	2064.0	2123.0	2123.0	2042.0	2042.0	2042.0	2069.0	2069.0	2107.0	2107.0	2107.0	2110.0	2110.0	2028.0	2028.0	2028.0	2050.0	2050.0	2026.0	2026.0	2026.0	2053.0	2053.0	2047.0	2047.0	2047.0	2090.0	2090.0	2030.0	2030.0	2030.0	2059.0	2059.0	2015.0	2015.0	2015.0	2052.0	2052.0	2082.0	2082.0	2082.0	2013.0	2013.0	2016.0	2016.0	2016.0	2021.0	2021.0	2039.0	2039.0	2039.0	2068.0	2068.0	2087.0	2087.0	2087.0	2074.0	2074.0	2025.0	2025.0	2025.0	2055.0	2055.0	2107.0	2107.0	2107.0	2070.0	2070.0	2047.0	2047.0	2047.0	2031.0	2031.0	2045.0	2045.0	2045.0	2077.0	2077.0	2042.0	2042.0	2042.0	2081.0	2081.0	2104.0	2104.0	2104.0	2100.0	2100.0	2082.0	2082.0	2082.0	2067.0	2067.0	2107.0	2107.0	2107.0	2035.0	2035.0	2052.0	2052.0	2052.0	2063.0	2063.0	2048.0	2048.0	2048.0	2111.0	2111.0	2089.0	2089.0	2089.0	2079.0	2079.0	2048.0	2048.0	2048.0	2087.0	2087.0	2094.0	2094.0	2094.0	2021.0	2021.0	2013.0	2013.0	2013.0	2045.0	2045.0	2009.0	2009.0	2009.0	2092.0	2092.0	2061.0	2061.0	2061.0	2023.0	2023.0	2074.0	2074.0	2074.0	2054.0	2054.0	2000.0	2000.0	2000.0	2078.0	2078.0	2053.0	2053.0	2053.0	2064.0	2064.0	1983.0	1983.0	1983.0	1985.0	1985.0	2042.0	2042.0	2042.0	2029.0	2029.0	1973.0	1973.0	1973.0	1969.0	1969.0	2000.0	2000.0	1955.0	1955.0	1955.0	2031.0	2031.0	1948.0	1948.0	1948.0	1991.0	1991.0	1996.0	1996.0	1996.0	1994.0	1994.0	1934.0	1934.0	1934.0	2000.0	2000.0	1952.0	1952.0	1952.0	1898.0	1898.0	1916.0	1916.0	1916.0	1911.0	1911.0	1947.0	1947.0	1947.0	1910.0	1910.0	1868.0	1868.0	1868.0	1907.0	1907.0	1864.0	1864.0	1864.0	1928.0	1928.0	1899.0	1899.0	1899.0	1885.0	1885.0	1862.0	1862.0	1862.0	1923.0	1923.0	1905.0	1905.0	1905.0	1843.0	1843.0	1880.0	1880.0	1880.0	1843.0	1843.0	1892.0	1892.0	1892.0	1851.0	1851.0	1905.0	1905.0	1905.0	1855.0	1855.0	1881.0	1881.0	1881.0	1827.0	1827.0	1830.0	1830.0	1830.0	1890.0	1890.0	1830.0	1830.0	1830.0	1875.0	1875.0	1878.0	1878.0	1878.0	1829.0	1829.0	1835.0	1835.0	1835.0	1861.0	1861.0	1826.0	1826.0	1826.0	1834.0	1834.0	1831.0	1831.0	1831.0	1813.0	1813.0	1806.0	1806.0	1806.0	1817.0	1817.0	1870.0	1870.0	1870.0	1816.0	1816.0	1811.0	1811.0	1811.0	1851.0	1851.0	1795.0	1795.0	1795.0	1855.0	1855.0	1835.0	1835.0	1835.0	1865.0	1865.0	1862.0	1862.0	1862.0	1848.0	1848.0	1859.0	1859.0	1859.0	1769.0	1769.0	1791.0	1791.0	1791.0	1794.0	1794.0	1814.0	1814.0	1814.0	1827.0	1827.0	1830.0	1830.0	1830.0	1747.0	1747.0	1820.0	1820.0	1820.0	1741.0	1741.0	1803.0	1803.0	1803.0	1805.0	1805.0	1770.0	1770.0	1770.0	1758.0	1758.0	1761.0	1761.0	1761.0	1738.0	1738.0	1766.0	1766.0	1766.0	1710.0	1710.0	1728.0	1728.0	1728.0	1694.0	1694.0	1702.0	1702.0	1702.0	1760.0	1760.0	1719.0	1719.0	1719.0	1675.0	1675.0	1715.0	1715.0	1703.0	1703.0	1703.0	1697.0	1697.0	1738.0	1738.0	1738.0	1728.0	1728.0	1739.0	1739.0	1739.0	1662.0	1662.0	1654.0	1654.0	1654.0	1718.0	1718.0	1691.0	1691.0	1691.0	1691.0	1691.0	1724.0	1724.0	1724.0	1683.0	1683.0	1691.0	1691.0	1691.0	1699.0	1699.0	1639.0	1639.0	1639.0	1623.0	1623.0	1687.0	1687.0	1687.0	1663.0	1663.0	1625.0	1625.0	1625.0	1626.0	1626.0	1670.0	1670.0	1670.0	1604.0	1604.0	1593.0	1593.0	1593.0	