1846.0	1836.0	1836.0	1836.0	1834.0	1834.0	1850.0	1850.0	1850.0	1829.0	1829.0	1895.0	1895.0	1895.0	1894.0	1894.0	1857.0	1857.0	1857.0	1840.0	1840.0	1813.0	1813.0	1813.0	1820.0	1820.0	1810.0	1810.0	1885.0	1885.0	1885.0	1889.0	1889.0	1870.0	1870.0	1870.0	1867.0	1867.0	1877.0	1877.0	1877.0	1793.0	1793.0	1803.0	1803.0	1803.0	1818.0	1818.0	1799.0	1799.0	1799.0	1829.0	1829.0	1801.0	1801.0	1801.0	1827.0	1827.0	1822.0	1822.0	1822.0	1864.0	1864.0	1862.0	1862.0	1862.0	1795.0	1795.0	1805.0	1805.0	1805.0	1866.0	1866.0	1788.0	1788.0	1788.0	1787.0	1787.0	1799.0	1799.0	1799.0	1848.0	1848.0	1845.0	1845.0	1845.0	1792.0	1792.0	1863.0	1863.0	1863.0	1860.0	1860.0	1825.0	1825.0	1825.0	1830.0	1830.0	1836.0	1836.0	1836.0	1810.0	1810.0	1779.0	1779.0	1779.0	1777.0	1777.0	1805.0	1805.0	1805.0	1837.0	1837.0	1788.0	1788.0	1788.0	1825.0	1825.0	1838.0	1838.0	1838.0	1790.0	1790.0	1750.0	1750.0	1750.0	1772.0	1772.0	1789.0	1789.0	1789.0	1766.0	1766.0	1830.0	1830.0	1830.0	1808.0	1808.0	1781.0	1781.0	1781.0	1817.0	1817.0	1810.0	1810.0	1810.0	1782.0	1782.0	1771.0	1771.0	1771.0	1817.0	1817.0	1798.0	1798.0	1798.0	1770.0	1770.0	1751.0	1751.0	1751.0	1763.0	1763.0	1791.0	1791.0	1791.0	1735.0	1735.0	1740.0	1740.0	1740.0	1817.0	1817.0	1786.0	1786.0	1786.0	1812.0	1812.0	1794.0	1794.0	1794.0	1733.0	1733.0	1803.0	1803.0	1803.0	1770.0	1770.0	1734.0	1734.0	1734.0	1736.0	1736.0	1727.0	1727.0	1727.0	1758.0	1758.0	1796.0	1796.0	1796.0	1743.0	1743.0	1771.0	1771.0	1771.0	1783.0	1783.0	1816.0	1816.0	1816.0	1774.0	1774.0	1775.0	1775.0	1775.0	1748.0	1748.0	1795.0	1795.0	1795.0	1820.0	1820.0	1742.0	1742.0	1742.0	1801.0	1801.0	1752.0	1752.0	1752.0	1815.0	1815.0	1822.0	1822.0	1806.0	1806.0	1806.0	1752.0	1752.0	1824.0	1824.0	1824.0	1803.0	1803.0	1818.0	1818.0	1818.0	1806.0	1806.0	1825.0	1825.0	1825.0	1819.0	1819.0	1805.0	1805.0	1805.0	1752.0	1752.0	1772.0	1772.0	1772.0	1776.0	1776.0	1780.0	1780.0	1780.0	1749.0	1749.0	1825.0	1825.0	1825.0	1775.0	1775.0	1823.0	1823.0	1823.0	1766.0	1766.0	1809.0	1809.0	1809.0	1808.0	1808.0	1750.0	1750.0	1750.0	1819.0	1819.0	1771.0	1771.0	1771.0	1758.0	1758.0	1743.0	1743.0	1743.0	1771.0	1771.0	1825.0	1825.0	1825.0	1786.0	1786.0	1814.0	1814.0	1814.0	1744.0	1744.0	1749.0	1749.0	1749.0	1800.0	1800.0	1808.0	1808.0	1808.0	1819.0	1819.0	1810.0	1810.0	1810.0	1787.0	1787.0	1833.0	1833.0	1833.0	1814.0	1814.0	1860.0	1860.0	1860.0	1863.0	1863.0	1818.0	1818.0	1818.0	1826.0	1826.0	1855.0	1855.0	1855.0	1862.0	1862.0	1873.0	1873.0	1873.0	1904.0	1904.0	1900.0	1900.0	1900.0	1998.0	1998.0	1932.0	1932.0	1932.0	1979.0	1979.0	2016.0	2016.0	2016.0	2014.0	2014.0	2066.0	2066.0	2066.0	2081.0	2081.0	2067.0	2067.0	2067.0	2163.0	2163.0	2179.0	2179.0	2179.0	2130.0	2130.0	2231.0	2231.0	2231.0	2241.0	2241.0	2211.0	2211.0	2211.0	2248.0	2248.0	2324.0	2324.0	2324.0	2293.0	2293.0	2292.0	2292.0	2292.0	2342.0	2342.0	2390.0	2390.0	2390.0	2411.0	2411.0	2370.0	2370.0	2370.0	2397.0	2397.0	2456.0	2456.0	2456.0	2428.0	2428.0	2464.0	2464.0	2464.0	2420.0	2420.0	2503.0	2503.0	2503.0	2489.0	2489.0	2490.0	2490.0	2490.0	2523.0	2523.0	2487.0	2487.0	2487.0	2468.0	2468.0	2502.0	2502.0	2495.0	2495.0	2495.0	2485.0	2485.0	2533.0	2533.0	2533.0	2460.0	2460.0	2458.0	2458.0	2458.0	2460.0	2460.0	2507.0	2507.0	2507.0	2472.0	2472.0	2471.0	2471.0	2471.0	2468.0	2468.0	2458.0	2458.0	2458.0	2466.0	2466.0	2462.0	2462.0	2462.0	2481.0	2481.0	2486.0	2486.0	2486.0	2454.0	2454.0	2441.0	2441.0	2441.0	2493.0	2493.0	2421.0	2421.0	2421.0	2473.0	2473.0	2405.0	2405.0	2405.0	2453.0	2453.0	2413.0	2413.0	2413.0	2455.0	2455.0	2437.0	2437.0	2437.0	2376.0	2376.0	2453.0	2453.0	2453.0	2395.0	2395.0	2406.0	2406.0	2406.0	2358.0	2358.0	2424.0	2424.0	2424.0	2385.0	2385.0	2408.0	2408.0	2408.0	2405.0	2405.0	2378.0	2378.0	2378.0	2341.0	2341.0	2309.0	2309.0	2309.0	2304.0	2304.0	2297.0	2297.0	2297.0	2310.0	2310.0	2295.0	2295.0	2295.0	2267.0	2267.0	2265.0	2265.0	2265.0	2264.0	2264.0	2309.0	2309.0	2309.0	2229.0	2229.0	2265.0	2265.0	2265.0	2229.0	2229.0	2255.0	2255.0	2255.0	2187.0	2187.0	2225.0	2225.0	2225.0	2191.0	2191.0	2157.0	2157.0	2157.0	2147.0	2147.0	2220.0	2220.0	2220.0	2178.0	2178.0	2130.0	2130.0	2130.0	2162.0	2162.0	2181.0	2181.0	2181.0	2147.0	2147.0	2148.0	2148.0	2148.0	2127.0	2127.0	2070.0	2070.0	2070.0	2048.0	2048.0	2071.0	2071.0	2071.0	2064.0	2064.0	2041.0	2041.0	2041.0	2096.0	2096.0	2034.0	2034.0	2034.0	2015.0	2015.0	2009.0	2009.0	2009.0	2045.0	2045.0	2028.0	2028.0	2028.0	2007.0	2007.0	1982.0	1982.0	1982.0	1983.0	1983.0	1995.0	1995.0	1995.0	1986.0	1986.0	2023.0	2023.0	2023.0	1954.0	1954.0	2032.0	2032.0	1987.0	1987.0	1987.0	1951.0	1951.0	1962.0	1962.0	1962.0	2030.0	2030.0	1948.0	1948.0	1948.0	1990.0	1990.0	1960.0	1960.0	1960.0	1948.0	1948.0	1952.0	1952.0	1952.0	1953.0	1953.0	1986.0	1986.0	1986.0	2019.0	2019.0	1987.0	1987.0	1987.0	1957.0	1957.0	1947.0	1947.0	1947.0	1988.0	1988.0	1992.0	1992.0	1992.0	1960.0	1960.0	1960.0	1960.0	1960.0	1991.0	1991.0	1973.0	1973.0	1973.0	2002.0	2002.0	1991.0	1991.0	1991.0	1945.0	1945.0	2005.0	2005.0	2005.0	1930.0	1930.0	1983.0	1983.0	1983.0	1949.0	1949.0	1957.0	1957.0	1957.0	1995.0	1995.0	1909.0	1909.0	1909.0	1915.0	1915.0	1993.0	1993.0	1993.0	1917.0	1917.0	1969.0	1969.0	1969.0	1942.0	1942.0	1934.0	1934.0	1934.0	1941.0	1941.0	1975.0	1975.0	1975.0	1918.0	1918.0	1918.0	1918.0	1918.0	1932.0	1932.0	1886.0	1886.0	1886.0	1975.0	1975.0	1950.0	1950.0	1950.0	1951.0	1951.0	1894.0	1894.0	1894.0	1905.0	1905.0	1884.0	1884.0	1884.0	1948.0	1948.0	1958.0	1958.0	1958.0	1891.0	1891.0	1906.0	1906.0	1906.0	1889.0	1889.0	1953.0	1953.0	1953.0	1887.0	1887.0	1907.0	1907.0	1907.0	1937.0	1937.0	1912.0	1912.0	1912.0	1944.0	1944.0	1942.0	1942.0	1942.0	1877.0	1877.0	1844.0	1844.0	1844.0	1904.0	1904.0	1864.0	1864.0	1864.0	1916.0	1916.0	1845.0	1845.0	1845.0	1881.0	1881.0	1873.0	1873.0	1873.0	1837.0	1837.0	1903.0	1903.0	1903.0	1837.0	1837.0	1852.0	1852.0	1852.0	1825.0	1825.0	1899.0	1899.0	1899.0	1878.0	1878.0	1883.0	1883.0	1883.0	1814.0	1814.0	1887.0	1887.0	1887.0	1817.0	1817.0	1863.0	1863.0	1863.0	1887.0	1887.0	1879.0	1879.0	1815.0	1815.0	1815.0	1818.0	1818.0	1859.0	1859.0	1859.0	1794.0	1794.0	1843.0	1843.0	1843.0	1810.0	1810.0	1792.0	1792.0	1792.0	1867.0	1867.0	1855.0	1855.0	1855.0	1827.0	1827.0	1846.0	1846.0	1846.0	1785.0	1785.0	1804.0	1804.0	1804.0	1862.0	1862.0	1804.0	1804.0	1804.0	1864.0	1864.0	1823.0	1823.0	1823.0	1848.0	1848.0	1863.0	1863.0	1863.0	1829.0	1829.0	1863.0	1863.0	1863.0	1861.0	1861.0	1794.0	1794.0	1794.0	1813.0	1813.0	1842.0	1842.0	1842.0	1806.0	1806.0	1794.0	1794.0	1794.0	1836.0	1836.0	1797.0	1797.0	1797.0	1773.0	1773.0	1854.0	1854.0	1854.0	1822.0	1822.0	1855.0	1855.0	1855.0	1779.0	1779.0	1813.0	1813.0	1813.0	1838.0	1838.0	1824.0	1824.0	1824.0	1784.0	1784.0	1816.0	1816.0	1816.0	1838.0	1838.0	1841.0	1841.0	1841.0	1841.0	1841.0	1816.0	1816.0	1816.0	1809.0	1809.0	1812.0	1812.0	1812.0	1831.0	1831.0	1779.0	1779.0	1779.0	1809.0	1809.0	1772.0	1772.0	1772.0	1795.0	1795.0	1778.0	1778.0	1778.0	1761.0	1761.0	1759.0	1759.0	1759.0	1825.0	1825.0	1839.0	1839.0	1839.0	1839.0	1839.0	1833.0	1833.0	1833.0	1781.0	1781.0	1804.0	1804.0	1804.0	1779.0	1779.0	1827.0	1827.0	1827.0	1800.0	1800.0	1796.0	1796.0	1796.0	1792.0	1792.0	1847.0	1847.0	1847.0	1822.0	1822.0	1843.0	1843.0	1843.0	1799.0	1799.0	1833.0	1833.0	1833.0	1825.0	1825.0	1835.0	1835.0	1835.0	1765.0	1765.0	1768.0	1768.0	1768.0	1768.0	1768.0	1838.0	1838.0	1838.0	1766.0	1766.0	1800.0	1800.0	1800.0	1838.0	1838.0	1828.0	1828.0	1828.0	1847.0	1847.0	1815.0	1815.0	1843.0	1843.0	1843.0	1784.0	1784.0	1834.0	1834.0	1834.0	1763.0	1763.0	1827.0	1827.0	1827.0	1824.0	1824.0	1791.0	1791.0	1791.0	1765.0	1765.0	1792.0	1792.0	1792.0	1758.0	1758.0	1768.0	1768.0	1768.0	1817.0	1817.0	1840.0	1840.0	1840.0	1810.0	1810.0	1766.0	1766.0	1766.0	1776.0	1776.0	1820.0	1820.0	1820.0	1805.0	1805.0	1803.0	1803.0	1803.0	1814.0	1814.0	1748.0	1748.0	1748.0	1760.0	1760.0	1810.0	1810.0	1810.0	1775.0	1775.0	1818.0	1818.0	1818.0	1768.0	1768.0	1811.0	1811.0	1811.0	1782.0	1782.0	1782.0	1782.0	1782.0	1770.0	1770.0	1846.0	1846.0	1846.0	1822.0	1822.0	1810.0	1810.0	1810.0	1804.0	1804.0	1857.0	1857.0	1857.0	1854.0	1854.0	1897.0	1897.0	1897.0	1847.0	1847.0	1857.0	1857.0	1857.0	1920.0	1920.0	1900.0	1900.0	1900.0	1930.0	1930.0	1936.0	1936.0	1936.0	1985.0	1985.0	1979.0	1979.0	1979.0	2044.0	2044.0	2025.0	2025.0	2025.0	2093.0	2093.0	2082.0	2082.0	2082.0	2089.0	2089.0	2126.0	2126.0	2126.0	2199.0	2199.0	2168.0	2168.0	2168.0	2212.0	2212.0	2256.0	2256.0	2256.0	2230.0	2230.0	2319.0	2319.0	2319.0	2305.0	2305.0	2360.0	2360.0	2360.0	2396.0	2396.0	2336.0	2336.0	2336.0	2363.0	2363.0	2376.0	2376.0	2376.0	2378.0	2378.0	2403.0	2403.0	2403.0	2430.0	2430.0	2424.0	2424.0	2424.0	2454.0	2454.0	2460.0	2460.0	2460.0	2456.0	2456.0	2496.0	2496.0	2496.0	2531.0	2531.0	2479.0	2479.0	2479.0	2469.0	2469.0	2542.0	2542.0	2542.0	2482.0	2482.0	2483.0	2483.0	2483.0	2479.0	2479.0	2521.0	2521.0	2521.0	2477.0	2477.0	2492.0	2492.0	2487.0	2487.0	2487.0	2471.0	2471.0	2512.0	2512.0	2512.0	2474.0	2474.0	2507.0	2507.0	2507.0	2466.0	2466.0	2455.0	2455.0	2455.0	2490.0	2490.0	2518.0	2518.0	2518.0	2475.0	2475.0	2509.0	2509.0	2509.0	2477.0	2477.0	2438.0	2438.0	2438.0	2437.0	2437.0	2496.0	2496.0	2496.0	2465.0	2465.0	2411.0	2411.0	2411.0	2446.0	2446.0	2446.0	2446.0	2446.0	2398.0	2398.0	2456.0	2456.0	2456.0	2440.0	2440.0	2423.0	2423.0	2423.0	2378.0	2378.0	2389.0	2389.0	2389.0	2355.0	2355.0	2364.0	2364.0	2364.0	2399.0	2399.0	2396.0	2396.0	2396.0	2395.0	2395.0	2322.0	2322.0	2322.0	2306.0	2306.0	2340.0	2340.0	2340.0	2327.0	2327.0	2291.0	2291.0	2291.0	2346.0	2346.0	2311.0	2311.0	2311.0	2335.0	2335.0	2328.0	2328.0	2328.0	2252.0	2252.0	2291.0	2291.0	2291.0	2289.0	2289.0	2222.0	2222.0	2222.0	2246.0	2246.0	2254.0	2254.0	2254.0	2203.0	2203.0	2225.0	2225.0	2225.0	2192.0	2192.0	2174.0	2174.0	2174.0	2212.0	2212.0	2153.0	2153.0	2153.0	2131.0	2131.0	2142.0	2142.0	2142.0	2177.0	2177.0	2108.0	2108.0	2108.0	2112.0	2112.0	2142.0	2142.0	2142.0	2147.0	2147.0	2129.0	2129.0	2129.0	2127.0	2127.0	2078.0	2078.0	2078.0	2123.0	2123.0	2067.0	2067.0	2067.0	2109.0	2109.0	2026.0	2026.0	2026.0	2059.0	2059.0	2045.0	2045.0	2045.0	2023.0	2023.0	2064.0	2064.0	2064.0	2001.0	2001.0	2051.0	2051.0	2051.0	2001.0	2001.0	2054.0	2054.0	2054.0	2048.0	2048.0	2037.0	2037.0	2037.0	1997.0	1997.0	1983.0	1983.0	1983.0	1984.0	1984.0	1952.0	1952.0	1952.0	2003.0	2003.0	1996.0	1996.0	1996.0	2012.0	2012.0	1993.0	1993.0	1942.0	1942.0	1942.0	1947.0	1947.0	1928.0	1928.0	1928.0	2023.0	2023.0	1929.0	1929.0	1929.0	1946.0	1946.0	1926.0	1926.0	1926.0	1968.0	1968.0	1980.0	1980.0	1980.0	1979.0	1979.0	1919.0	1919.0	1919.0	1920.0	1920.0	1923.0	1923.0	1923.0	1987.0	1987.0	1981.0	1981.0	1981.0	1920.0	1920.0	1910.0	1910.0	1910.0	1981.0	1981.0	1982.0	1982.0	1982.0	1910.0	1910.0	1911.0	1911.0	1911.0	1940.0	1940.0	1966.0	1966.0	1966.0	1973.0	1973.0	1925.0	1925.0	1925.0	1954.0	1954.0	1978.0	1978.0	1978.0	1903.0	1903.0	1940.0	1940.0	1940.0	1932.0	1932.0	1973.0	1973.0	1973.0	1894.0	1894.0	1961.0	1961.0	1961.0	1941.0	1941.0	1939.0	1939.0	1939.0	1893.0	1893.0	1943.0	1943.0	1943.0	1951.0	1951.0	1898.0	1898.0	1898.0	1892.0	1892.0	1959.0	1959.0	1959.0	1894.0	1894.0	1886.0	1886.0	1886.0	1937.0	1937.0	1892.0	1892.0	1892.0	1870.0	1870.0	1865.0	1865.0	1865.0	1952.0	1952.0	1857.0	1857.0	1857.0	1855.0	1855.0	1928.0	1928.0	1928.0	1909.0	1909.0	1919.0	1919.0	1919.0	1841.0	1841.0	1839.0	1839.0	1839.0	1830.0	1830.0	1894.0	1894.0	1894.0	1826.0	1826.0	1876.0	1876.0	1876.0	1823.0	1823.0	1900.0	1900.0	1900.0	1855.0	1855.0	1884.0	1884.0	1884.0	1805.0	1805.0	1856.0	1856.0	1856.0	1848.0	1848.0	1860.0	1860.0	1860.0	1854.0	1854.0	1870.0	1870.0	1870.0	1798.0	1798.0	1843.0	1843.0	1843.0	1855.0	1855.0	1815.0	1815.0	1815.0	1852.0	1852.0	1824.0	1824.0	1824.0	1852.0	1852.0	1811.0	1811.0	1811.0	1783.0	1783.0	1805.0	1805.0	1805.0	1836.0	1836.0	1764.0	1764.0	1817.0	1817.0	1817.0	1831.0	1831.0	1797.0	1797.0	1797.0	1831.0	1831.0	1761.0	1761.0	1761.0	1789.0	1789.0	1819.0	1819.0	1819.0	1773.0	1773.0	1823.0	1823.0	1823.0	1787.0	1787.0	1800.0	1800.0	1800.0	1766.0	1766.0	1783.0	1783.0	1783.0	1762.0	1762.0	1784.0	1784.0	1784.0	1754.0	1754.0	1749.0	1749.0	1749.0	1823.0	1823.0	1735.0	1735.0	1735.0	1766.0	1766.0	1762.0	1762.0	1762.0	1802.0	1802.0	1748.0	1748.0	1748.0	1784.0	1784.0	1801.0	1801.0	1801.0	1731.0	1731.0	1809.0	1809.0	1809.0	1727.0	1727.0	1774.0	1774.0	1774.0	1715.0	1715.0	1779.0	1779.0	1779.0	1718.0	1718.0	1805.0	1805.0	1805.0	1761.0	1761.0	1715.0	1715.0	1715.0	1796.0	1796.0	1774.0	1774.0	1774.0	1786.0	1786.0	1739.0	1739.0	1739.0	1705.0	1705.0	1730.0	1730.0	1730.0	1778.0	1778.0	1780.0	1780.0	1780.0	1717.0	1717.0	1728.0	1728.0	1728.0	1704.0	1704.0	1787.0	1787.0	1787.0	1755.0	1755.0	1724.0	1724.0	1724.0	1750.0	1750.0	1781.0	1781.0	1781.0	1761.0	1761.0	1709.0	1709.0	1709.0	1724.0	1724.0	1782.0	1782.0	1782.0	1798.0	1798.0	1784.0	1784.0	1784.0	1732.0	1732.0	1790.0	1790.0	1790.0	1719.0	1719.0	1715.0	1715.0	1715.0	1796.0	1796.0	1735.0	1735.0	1735.0	1721.0	1721.0	1792.0	1792.0	1792.0	1775.0	1775.0	1779.0	1779.0	1779.0	1788.0	1788.0	1763.0	1763.0	1763.0	1732.0	1732.0	1753.0	1753.0	1753.0	1724.0	1724.0	1794.0	1794.0	1794.0	1733.0	1733.0	1736.0	1736.0	1736.0	1737.0	1737.0	1728.0	1728.0	1728.0	1738.0	1738.0	1735.0	1735.0	1735.0	1741.0	1741.0	1799.0	1799.0	1799.0	1738.0	1738.0	1773.0	1773.0	1712.0	1712.0	1712.0	1783.0	1783.0	1742.0	1742.0	1742.0	1747.0	1747.0	1790.0	1790.0	1790.0	1782.0	1782.0	1729.0	1729.0	1729.0	1716.0	1716.0	1710.0	1710.0	1710.0	1731.0	1731.0	1749.0	1749.0	1749.0	1735.0	1735.0	1744.0	1744.0	1744.0	1710.0	1710.0	1717.0	1717.0	1717.0	1712.0	1712.0	1772.0	1772.0	1772.0	1796.0	1796.0	1786.0	1786.0	1786.0	1727.0	1727.0	1735.0	1735.0	1735.0	1727.0	1727.0	1762.0	1762.0	1762.0	1787.0	1787.0	1829.0	1829.0	1829.0	1753.0	1753.0	1821.0	1821.0	1821.0	1787.0	1787.0	1783.0	1783.0	1783.0	1797.0	1797.0	1796.0	1796.0	1796.0	1831.0	1831.0	1839.0	1839.0	1839.0	1837.0	1837.0	1861.0	1861.0	1861.0	1885.0	1885.0	1945.0	1945.0	1945.0	1971.0	1971.0	1969.0	1969.0	1969.0	2016.0	2016.0	1954.0	1954.0	1954.0	1968.0	1968.0	2068.0	2068.0	2068.0	2093.0	2093.0	2040.0	2040.0	2040.0	2134.0	2134.0	2098.0	2098.0	2098.0	2162.0	2162.0	2194.0	2194.0	2194.0	2192.0	2192.0	2181.0	2181.0	2181.0	2239.0	2239.0	2239.0	2239.0	2239.0	2232.0	2232.0	2304.0	2304.0	2304.0	2348.0	2348.0	2360.0	2360.0	2360.0	2382.0	2382.0	2324.0	2324.0	2324.0	2390.0	2390.0	2385.0	2385.0	2385.0	2417.0	2417.0	2439.0	2439.0	2439.0	2400.0	2400.0	2397.0	2397.0	2397.0	2419.0	2419.0	2470.0	2470.0	2470.0	2406.0	2406.0	2418.0	2418.0	2418.0	2488.0	2488.0	2475.0	2475.0	2475.0	2439.0	2439.0	2472.0	2472.0	2472.0	2476.0	2476.0	2447.0	2447.0	2447.0	2418.0	2418.0	2477.0	2477.0	2477.0	2453.0	2453.0	2481.0	2481.0	2481.0	2401.0	2401.0	2399.0	2399.0	2402.0	2402.0	2402.0	2466.0	2466.0	2394.0	2394.0	2394.0	2399.0	2399.0	2453.0	2453.0	2453.0	2404.0	2404.0	2368.0	2368.0	2368.0	2427.0	2427.0	2409.0	2409.0	2409.0	2371.0	2371.0	2358.0	2358.0	2358.0	2354.0	2354.0	2360.0	2360.0	