2328.0	2330.0	2330.0	2330.0	2307.0	2307.0	2305.0	2305.0	2305.0	2307.0	2307.0	2323.0	2323.0	2323.0	2295.0	2295.0	2298.0	2298.0	2298.0	2294.0	2294.0	2296.0	2296.0	2296.0	2271.0	2271.0	2285.0	2285.0	2285.0	2278.0	2278.0	2284.0	2284.0	2284.0	2276.0	2276.0	2279.0	2279.0	2279.0	2241.0	2241.0	2253.0	2253.0	2253.0	2262.0	2262.0	2266.0	2266.0	2266.0	2274.0	2274.0	2252.0	2252.0	2252.0	2242.0	2242.0	2266.0	2266.0	2266.0	2249.0	2249.0	2248.0	2248.0	2248.0	2252.0	2252.0	2247.0	2247.0	2247.0	2236.0	2236.0	2237.0	2237.0	2237.0	2233.0	2233.0	2234.0	2234.0	2234.0	2243.0	2243.0	2203.0	2203.0	2203.0	2212.0	2212.0	2227.0	2227.0	2227.0	2209.0	2209.0	2234.0	2234.0	2234.0	2222.0	2222.0	2223.0	2223.0	2211.0	2211.0	2211.0	2204.0	2204.0	2221.0	2221.0	2221.0	2200.0	2200.0	2191.0	2191.0	2191.0	2201.0	2201.0	2216.0	2216.0	2216.0	2205.0	2205.0	2205.0	2205.0	2205.0	2190.0	2190.0	2189.0	2189.0	2189.0	2198.0	2198.0	2172.0	2172.0	2172.0	2164.0	2164.0	2163.0	2163.0	2163.0	2176.0	2176.0	2171.0	2171.0	2171.0	2185.0	2185.0	2148.0	2148.0	2148.0	2174.0	2174.0	2164.0	2164.0	2164.0	2154.0	2154.0	2143.0	2143.0	2143.0	2161.0	2161.0	2175.0	2175.0	2175.0	2158.0	2158.0	2149.0	2149.0	2149.0	2144.0	2144.0	2150.0	2150.0	2150.0	2163.0	2163.0	2145.0	2145.0	2145.0	2128.0	2128.0	2157.0	2157.0	2157.0	2138.0	2138.0	2163.0	2163.0	2163.0	2129.0	2129.0	2149.0	2149.0	2149.0	2149.0	2149.0	2160.0	2160.0	2160.0	2126.0	2126.0	2156.0	2156.0	2156.0	2142.0	2142.0	2124.0	2124.0	2124.0	2165.0	2165.0	2129.0	2129.0	2129.0	2166.0	2166.0	2123.0	2123.0	2123.0	2134.0	2134.0	2124.0	2124.0	2124.0	2149.0	2149.0	2162.0	2162.0	2162.0	2136.0	2136.0	2164.0	2164.0	2164.0	2160.0	2160.0	2142.0	2142.0	2142.0	2123.0	2123.0	2160.0	2160.0	2160.0	2145.0	2145.0	2166.0	2166.0	2166.0	2155.0	2155.0	2153.0	2153.0	2153.0	2168.0	2168.0	2155.0	2155.0	2155.0	2167.0	2167.0	2168.0	2168.0	2168.0	2170.0	2170.0	2174.0	2174.0	2174.0	2155.0	2155.0	2159.0	2159.0	2159.0	2162.0	2162.0	2177.0	2177.0	2177.0	2166.0	2166.0	2168.0	2168.0	2168.0	2171.0	2171.0	2169.0	2169.0	2169.0	2177.0	2177.0	2187.0	2187.0	2187.0	2162.0	2162.0	2160.0	2160.0	2160.0	2178.0	2178.0	2194.0	2194.0	2162.0	2162.0	2162.0	2171.0	2171.0	2167.0	2167.0	2167.0	2188.0	2188.0	2175.0	2175.0	2175.0	2166.0	2166.0	2166.0	2166.0	2166.0	2142.0	2142.0	2164.0	2164.0	2164.0	2182.0	2182.0	2180.0	2180.0	2180.0	2173.0	2173.0	2160.0	2160.0	2160.0	2161.0	2161.0	2163.0	2163.0	2163.0	2155.0	2155.0	2163.0	2163.0	2163.0	2158.0	2158.0	2158.0	2158.0	2158.0	2148.0	2148.0	2144.0	2144.0	2144.0	2177.0	2177.0	2134.0	2134.0	2134.0	2136.0	2136.0	2135.0	2135.0	2135.0	2162.0	2162.0	2164.0	2164.0	2164.0	2129.0	2129.0	2152.0	2152.0	2152.0	2137.0	2137.0	2155.0	2155.0	2155.0	2157.0	2157.0	2130.0	2130.0	2130.0	2140.0	2140.0	2129.0	2129.0	2129.0	2112.0	2112.0	2149.0	2149.0	2149.0	2124.0	2124.0	2112.0	2112.0	2112.0	2135.0	2135.0	2131.0	2131.0	2131.0	2119.0	2119.0	2127.0	2127.0	2127.0	2104.0	2104.0	2111.0	2111.0	2111.0	2123.0	2123.0	2105.0	2105.0	2105.0	2127.0	2127.0	2127.0	2127.0	2127.0	2124.0	2124.0	2113.0	2113.0	2113.0	2099.0	2099.0	2123.0	2123.0	2123.0	2125.0	2125.0	2101.0	2101.0	2101.0	2092.0	2092.0	2098.0	2098.0	2098.0	2103.0	2103.0	2091.0	2091.0	2091.0	2112.0	2112.0	2082.0	2082.0	2082.0	2104.0	2104.0	2087.0	2087.0	2087.0	2078.0	2078.0	2091.0	2091.0	2091.0	2084.0	2084.0	2077.0	2077.0	2077.0	2094.0	2094.0	2078.0	2078.0	2078.0	2088.0	2088.0	2071.0	2071.0	2071.0	2076.0	2076.0	2069.0	2069.0	2069.0	2062.0	2062.0	2083.0	2083.0	2083.0	2077.0	2077.0	2075.0	2075.0	2075.0	2051.0	2051.0	2075.0	2075.0	2075.0	2090.0	2090.0	2067.0	2067.0	2067.0	2074.0	2074.0	2053.0	2053.0	2073.0	2073.0	2073.0	2058.0	2058.0	2065.0	2065.0	2065.0	2045.0	2045.0	2080.0	2080.0	2080.0	2056.0	2056.0	2046.0	2046.0	2046.0	2046.0	2046.0	2042.0	2042.0	2042.0	2051.0	2051.0	2072.0	2072.0	2072.0	2076.0	2076.0	2035.0	2035.0	2035.0	2045.0	2045.0	2046.0	2046.0	2046.0	2068.0	2068.0	2060.0	2060.0	2060.0	2057.0	2057.0	2045.0	2045.0	2045.0	2055.0	2055.0	2054.0	2054.0	2054.0	2051.0	2051.0	2075.0	2075.0	2075.0	2045.0	2045.0	2055.0	2055.0	2055.0	2059.0	2059.0	2032.0	2032.0	2032.0	2039.0	2039.0	2036.0	2036.0	2036.0	2057.0	2057.0	2042.0	2042.0	2042.0	2053.0	2053.0	2049.0	2049.0	2049.0	2060.0	2060.0	2038.0	2038.0	2038.0	2034.0	2034.0	2028.0	2028.0	2028.0	2046.0	2046.0	2029.0	2029.0	2029.0	2028.0	2028.0	2042.0	2042.0	2042.0	2018.0	2018.0	2031.0	2031.0	2031.0	2047.0	2047.0	2030.0	2030.0	2030.0	2047.0	2047.0	2036.0	2036.0	2036.0	2011.0	2011.0	2012.0	2012.0	2012.0	2044.0	2044.0	2032.0	2032.0	2032.0	2027.0	2027.0	2024.0	2024.0	2024.0	2029.0	2029.0	2026.0	2026.0	2026.0	2013.0	2013.0	2015.0	2015.0	2015.0	2037.0	2037.0	2033.0	2033.0	2033.0	2011.0	2011.0	2013.0	2013.0	2013.0	2023.0	2023.0	2038.0	2038.0	2038.0	2017.0	2017.0	2030.0	2030.0	2030.0	2026.0	2026.0	2023.0	2023.0	2023.0	2011.0	2011.0	2018.0	2018.0	2018.0	2009.0	2009.0	2025.0	2025.0	2025.0	2029.0	2029.0	2018.0	2018.0	2018.0	2008.0	2008.0	2014.0	2014.0	2014.0	2016.0	2016.0	2030.0	2030.0	2030.0	2007.0	2007.0	2015.0	2015.0	2015.0	1993.0	1993.0	2011.0	2011.0	1993.0	1993.0	1993.0	2012.0	2012.0	2020.0	2020.0	2020.0	2006.0	2006.0	2011.0	2011.0	2011.0	1996.0	1996.0	1998.0	1998.0	1998.0	2020.0	2020.0	2010.0	2010.0	2010.0	2016.0	2016.0	2002.0	2002.0	2002.0	2017.0	2017.0	2003.0	2003.0	2003.0	1991.0	1991.0	2008.0	2008.0	2008.0	2002.0	2002.0	1988.0	1988.0	1988.0	2005.0	2005.0	1997.0	1997.0	1997.0	1994.0	1994.0	1993.0	1993.0	1993.0	2012.0	2012.0	2002.0	2002.0	2002.0	2000.0	2000.0	2005.0	2005.0	2005.0	2027.0	2027.0	1982.0	1982.0	1982.0	2019.0	2019.0	1998.0	1998.0	1998.0	2004.0	2004.0	1991.0	1991.0	1991.0	2012.0	2012.0	2008.0	2008.0	2008.0	1991.0	1991.0	1990.0	1990.0	1990.0	2017.0	2017.0	1987.0	1987.0	1987.0	2004.0	2004.0	2000.0	2000.0	2000.0	1999.0	1999.0	1981.0	1981.0	1981.0	1989.0	1989.0	1999.0	1999.0	1999.0	2002.0	2002.0	1996.0	1996.0	1996.0	1995.0	1995.0	1980.0	1980.0	1980.0	1993.0	1993.0	1974.0	1974.0	1974.0	1987.0	1987.0	1986.0	1986.0	1986.0	1999.0	1999.0	1971.0	1971.0	1971.0	1995.0	1995.0	2002.0	2002.0	2002.0	1995.0	1995.0	1978.0	1978.0	1978.0	2002.0	2002.0	1993.0	1993.0	1993.0	2001.0	2001.0	1984.0	1984.0	1984.0	1999.0	1999.0	1982.0	1982.0	1982.0	2003.0	2003.0	2016.0	2016.0	2016.0	1977.0	1977.0	1994.0	1994.0	1994.0	1999.0	1999.0	1971.0	1971.0	1971.0	1967.0	1967.0	1998.0	1998.0	1998.0	2001.0	2001.0	1970.0	1970.0	1970.0	1993.0	1993.0	2003.0	2003.0	2003.0	1981.0	1981.0	1988.0	1988.0	1988.0	1997.0	1997.0	1969.0	1969.0	1969.0	1996.0	1996.0	1987.0	1987.0	1987.0	1973.0	1973.0	1977.0	1977.0	1982.0	1982.0	1982.0	1965.0	1965.0	1979.0	1979.0	1979.0	1987.0	1987.0	1992.0	1992.0	1992.0	1972.0	1972.0	1987.0	1987.0	1987.0	1963.0	1963.0	1984.0	1984.0	1984.0	1991.0	1991.0	1972.0	1972.0	1972.0	1959.0	1959.0	1990.0	1990.0	1990.0	1976.0	1976.0	1988.0	1988.0	1988.0	1981.0	1981.0	1958.0	1958.0	1958.0	1979.0	1979.0	1979.0	1979.0	1979.0	1981.0	1981.0	1963.0	1963.0	1963.0	1976.0	1976.0	1984.0	1984.0	1984.0	1983.0	1983.0	1987.0	1987.0	1987.0	1994.0	1994.0	1995.0	1995.0	1995.0	1970.0	1970.0	1973.0	1973.0	1973.0	1981.0	1981.0	1975.0	1975.0	1975.0	1966.0	1966.0	1968.0	1968.0	1968.0	1967.0	1967.0	1987.0	1987.0	1987.0	1973.0	1973.0	1990.0	1990.0	1990.0	1967.0	1967.0	1968.0	1968.0	1968.0	1980.0	1980.0	1983.0	1983.0	1983.0	1993.0	1993.0	1958.0	1958.0	1958.0	1977.0	1977.0	1967.0	1967.0	1967.0	1995.0	1995.0	1987.0	1987.0	1987.0	1964.0	1964.0	2001.0	2001.0	2001.0	1971.0	1971.0	1987.0	1987.0	1987.0	1981.0	1981.0	1986.0	1986.0	1986.0	1976.0	1976.0	1982.0	1982.0	1982.0	1982.0	1982.0	1990.0	1990.0	1990.0	1993.0	1993.0	1992.0	1992.0	1992.0	1986.0	1986.0	1995.0	1995.0	1995.0	1996.0	1996.0	1999.0	1999.0	1999.0	1999.0	1999.0	2001.0	2001.0	2001.0	1995.0	1995.0	2013.0	2013.0	2013.0	2010.0	2010.0	2023.0	2023.0	2023.0	2001.0	2001.0	2042.0	2042.0	2042.0	2034.0	2034.0	2029.0	2029.0	2029.0	2054.0	2054.0	2045.0	2045.0	2045.0	2040.0	2040.0	2071.0	2071.0	2071.0	2041.0	2041.0	2052.0	2052.0	2052.0	2070.0	2070.0	2043.0	2043.0	2061.0	2061.0	2061.0	2044.0	2044.0	2067.0	2067.0	2067.0	2051.0	2051.0	2059.0	2059.0	2059.0	2050.0	2050.0	2079.0	2079.0	2079.0	2074.0	2074.0	2051.0	2051.0	2051.0	2067.0	2067.0	2084.0	2084.0	2084.0	2079.0	2079.0	2084.0	2084.0	2084.0	2052.0	2052.0	2079.0	2079.0	2079.0	2062.0	2062.0	2054.0	2054.0	2054.0	2069.0	2069.0	2061.0	2061.0	2061.0	2070.0	2070.0	2071.0	2071.0	2071.0	2062.0	2062.0	2064.0	2064.0	2064.0	2077.0	2077.0	2067.0	2067.0	2067.0	2078.0	2078.0	2059.0	2059.0	2059.0	2072.0	2072.0	2072.0	2072.0	2072.0	2089.0	2089.0	2055.0	2055.0	2055.0	2060.0	2060.0	2071.0	2071.0	2071.0	2072.0	2072.0	2075.0	2075.0	2075.0	2080.0	2080.0	2051.0	2051.0	2051.0	2038.0	2038.0	2075.0	2075.0	2075.0	2067.0	2067.0	2062.0	2062.0	2062.0	2061.0	2061.0	2044.0	2044.0	2044.0	2056.0	2056.0	2069.0	2069.0	2069.0	2035.0	2035.0	2059.0	2059.0	2059.0	2057.0	2057.0	2051.0	2051.0	2051.0	2054.0	2054.0	2075.0	2075.0	2075.0	2040.0	2040.0	2060.0	2060.0	2060.0	2039.0	2039.0	2034.0	2034.0	2034.0	2070.0	2070.0	2054.0	2054.0	2054.0	2050.0	2050.0	2051.0	2051.0	2051.0	2046.0	2046.0	2034.0	2034.0	2034.0	2035.0	2035.0	2065.0	2065.0	2065.0	2048.0	2048.0	2025.0	2025.0	2025.0	2056.0	2056.0	2053.0	2053.0	2053.0	2048.0	2048.0	2046.0	2046.0	2046.0	2051.0	2051.0	2053.0	2053.0	2053.0	2037.0	2037.0	2025.0	2025.0	2025.0	2062.0	2062.0	2050.0	2050.0	2050.0	2034.0	2034.0	2038.0	2038.0	2038.0	2037.0	2037.0	2028.0	2028.0	2028.0	2026.0	2026.0	2046.0	2046.0	2017.0	2017.0	2017.0	2000.0	2000.0	2038.0	2038.0	2038.0	2031.0	2031.0	2003.0	2003.0	2003.0	2029.0	2029.0	2032.0	2032.0	2032.0	2034.0	2034.0	2021.0	2021.0	2021.0	2018.0	2018.0	2016.0	2016.0	2016.0	2012.0	2012.0	2012.0	2012.0	2012.0	2033.0	2033.0	2022.0	2022.0	2022.0	1993.0	1993.0	2007.0	2007.0	2007.0	2038.0	2038.0	2034.0	2034.0	2034.0	2000.0	2000.0	1995.0	1995.0	1995.0	2004.0	2004.0	2014.0	2014.0	2014.0	2032.0	2032.0	2025.0	2025.0	2025.0	1991.0	1991.0	2034.0	2034.0	2034.0	2007.0	2007.0	2003.0	2003.0	2003.0	1989.0	1989.0	2018.0	2018.0	2018.0	1995.0	1995.0	1994.0	1994.0	1994.0	1991.0	1991.0	1993.0	1993.0	1993.0	2015.0	2015.0	2016.0	2016.0	2016.0	2015.0	2015.0	2010.0	2010.0	2010.0	2023.0	2023.0	2012.0	2012.0	2012.0	2009.0	2009.0	2020.0	2020.0	2020.0	2011.0	2011.0	2011.0	2011.0	2011.0	2014.0	2014.0	1991.0	1991.0	1991.0	1981.0	1981.0	2013.0	2013.0	2013.0	1988.0	1988.0	2000.0	2000.0	2000.0	2025.0	2025.0	1987.0	1987.0	1987.0	2013.0	2013.0	2017.0	2017.0	2017.0	2017.0	2017.0	2001.0	2001.0	2001.0	2009.0	2009.0	1984.0	1984.0	1984.0	1989.0	1989.0	2013.0	2013.0	2013.0	2004.0	2004.0	2014.0	2014.0	2014.0	2007.0	2007.0	2016.0	2016.0	2016.0	2002.0	2002.0	1998.0	1998.0	1998.0	1984.0	1984.0	2004.0	2004.0	2004.0	2001.0	2001.0	1993.0	1993.0	1993.0	1991.0	1991.0	1991.0	1991.0	1991.0	2022.0	2022.0	2011.0	2011.0	2011.0	1985.0	1985.0	1993.0	1993.0	1993.0	1989.0	1989.0	1986.0	1986.0	1986.0	2000.0	2000.0	2004.0	2004.0	2004.0	1984.0	1984.0	2007.0	2007.0	1980.0	1980.0	1980.0	2003.0	2003.0	1988.0	1988.0	1988.0	1985.0	1985.0	1988.0	1988.0	1988.0	1973.0	1973.0	1968.0	1968.0	1968.0	1982.0	1982.0	1998.0	1998.0	1998.0	2003.0	2003.0	2003.0	2003.0	2003.0	1984.0	1984.0	1972.0	1972.0	1972.0	1972.0	1972.0	1982.0	1982.0	1982.0	1989.0	1989.0	1995.0	1995.0	1995.0	1999.0	1999.0	2011.0	2011.0	2011.0	1984.0	1984.0	1990.0	1990.0	1990.0	1985.0	1985.0	1982.0	1982.0	1982.0	1987.0	1987.0	1984.0	1984.0	1984.0	1979.0	1979.0	1982.0	1982.0	1982.0	1997.0	1997.0	1999.0	1999.0	1999.0	1990.0	1990.0	1987.0	1987.0	1987.0	1982.0	1982.0	1987.0	1987.0	1987.0	1980.0	1980.0	1977.0	1977.0	1977.0	2003.0	2003.0	1975.0	1975.0	1975.0	1976.0	1976.0	1988.0	1988.0	1988.0	1968.0	1968.0	2000.0	2000.0	2000.0	1980.0	1980.0	1978.0	1978.0	1978.0	1969.0	1969.0	1988.0	1988.0	1988.0	1960.0	1960.0	1983.0	1983.0	1983.0	1963.0	1963.0	1975.0	1975.0	1975.0	1977.0	1977.0	1978.0	1978.0	1978.0	1979.0	1979.0	1967.0	1967.0	1967.0	1987.0	1987.0	1979.0	1979.0	1979.0	1965.0	1965.0	1967.0	1967.0	1967.0	1987.0	1987.0	1979.0	1979.0	1979.0	1978.0	1978.0	1994.0	1994.0	1994.0	1982.0	1982.0	1976.0	1976.0	1976.0	1984.0	1984.0	1991.0	1991.0	1991.0	1977.0	1977.0	1996.0	1996.0	1996.0	1977.0	1977.0	1964.0	1964.0	1964.0	1967.0	1967.0	1982.0	1982.0	1982.0	1976.0	1976.0	1968.0	1968.0	1968.0	1974.0	1974.0	1991.0	1991.0	1991.0	1995.0	1995.0	1983.0	1983.0	1983.0	1984.0	1984.0	1978.0	1978.0	1978.0	1978.0	1978.0	1987.0	1987.0	1974.0	1974.0	1974.0	1970.0	1970.0	1982.0	1982.0	1982.0	1965.0	1965.0	1953.0	1953.0	1953.0	1984.0	1984.0	1977.0	1977.0	1977.0	1978.0	1978.0	1980.0	1980.0	1980.0	1985.0	1985.0	1978.0	1978.0	1978.0	1957.0	1957.0	1966.0	1966.0	1966.0	1977.0	1977.0	1961.0	1961.0	1961.0	1993.0	1993.0	1979.0	1979.0	1979.0	1962.0	1962.0	1986.0	1986.0	1986.0	1969.0	1969.0	1971.0	1971.0	1971.0	1997.0	1997.0	1975.0	1975.0	1975.0	1968.0	1968.0	2001.0	2001.0	2001.0	1977.0	1977.0	1974.0	1974.0	1974.0	1991.0	1991.0	1948.0	1948.0	1948.0	1970.0	1970.0	1983.0	1983.0	1983.0	1985.0	1985.0	1964.0	1964.0	1964.0	1966.0	1966.0	1964.0	1964.0	1964.0	1964.0	1964.0	1970.0	1970.0	1970.0	1990.0	1990.0	1965.0	1965.0	1965.0	1991.0	1991.0	1972.0	1972.0	1972.0	1961.0	1961.0	1984.0	1984.0	1984.0	1976.0	1976.0	1957.0	1957.0	1957.0	1970.0	1970.0	1974.0	1974.0	1974.0	1995.0	1995.0	1972.0	1972.0	1972.0	1970.0	1970.0	1966.0	1966.0	1966.0	1977.0	1977.0	1966.0	1966.0	1966.0	1983.0	1983.0	1973.0	1973.0	1973.0	1966.0	1966.0	1965.0	1965.0	1965.0	1969.0	1969.0	1969.0	1969.0	1969.0	1970.0	1970.0	1973.0	1973.0	1973.0	1971.0	1971.0	1996.0	1996.0	1996.0	1970.0	1970.0	1980.0	1980.0	1980.0	2001.0	2001.0	1966.0	1966.0	1966.0	1996.0	1996.0	1993.0	1993.0	1993.0	1983.0	1983.0	1987.0	1987.0	1987.0	1992.0	1992.0	1994.0	1994.0	1994.0	2001.0	2001.0	2008.0	2008.0	2008.0	1987.0	1987.0	1995.0	1995.0	1995.0	2010.0	2010.0	2027.0	2027.0	2027.0	2027.0	2027.0	2039.0	2039.0	2033.0	2033.0	2033.0	2041.0	2041.0	2031.0	2031.0	2031.0	2038.0	2038.0	2054.0	2054.0	2054.0	2040.0	2040.0	2028.0	2028.0	2028.0	2036.0	2036.0	2054.0	2054.0	2054.0	2031.0	2031.0	2053.0	2053.0	2053.0	2062.0	2062.0	2059.0	2059.0	2059.0	2067.0	2067.0	2059.0	2059.0	2059.0	2060.0	2060.0	2069.0	2069.0	2069.0	2047.0	2047.0	2047.0	2047.0	2047.0	2085.0	2085.0	2053.0	2053.0	2053.0	2075.0	2075.0	2081.0	2081.0	2081.0	2073.0	2073.0	2074.0	2074.0	2074.0	2073.0	2073.0	2071.0	2071.0	2071.0	2088.0	2088.0	2062.0	2062.0	2062.0	2073.0	2073.0	2075.0	2075.0	2075.0	2081.0	2081.0	2071.0	2071.0	2071.0	2084.0	2084.0	2075.0	2075.0	2075.0	2065.0	2065.0	2066.0	2066.0	2066.0	2070.0	2070.0	2063.0	2063.0	2063.0	2044.0	2044.0	2059.0	2059.0	2059.0	2054.0	2054.0	2052.0	2052.0	2052.0	2052.0	2052.0	2064.0	2064.0	2064.0	2086.0	2086.0	2059.0	2059.0	2059.0	2066.0	2066.0	2069.0	2069.0	2069.0	2065.0	2065.0	2082.0	2082.0	2082.0	2094.0	2094.0	2072.0	2072.0	2072.0	2066.0	2066.0	2068.0	2068.0	2068.0	2089.0	2089.0	2079.0	2079.0	2079.0	2083.0	2083.0	2087.0	2087.0	2087.0	2054.0	2054.0	2064.0	2064.0	2064.0	2075.0	2075.0	2092.0	2092.0	2092.0	2074.0	2074.0	2065.0	2065.0	2065.0	2065.0	2065.0	2064.0	2064.0	2064.0	2076.0	