1955.0	1955.0	1955.0	1955.0	1977.0	1977.0	1949.0	1949.0	1949.0	1972.0	1972.0	1946.0	1946.0	1946.0	1925.0	1925.0	1917.0	1917.0	1917.0	1962.0	1962.0	1923.0	1923.0	1923.0	1921.0	1921.0	1906.0	1906.0	1906.0	1938.0	1938.0	1919.0	1919.0	1919.0	1891.0	1891.0	1930.0	1930.0	1930.0	1943.0	1943.0	1943.0	1943.0	1943.0	1885.0	1885.0	1895.0	1895.0	1895.0	1908.0	1908.0	1919.0	1919.0	1919.0	1932.0	1932.0	1924.0	1924.0	1924.0	1901.0	1901.0	1923.0	1923.0	1923.0	1976.0	1976.0	1980.0	1980.0	1980.0	1908.0	1908.0	1978.0	1978.0	1978.0	1986.0	1986.0	1964.0	1964.0	1964.0	1960.0	1960.0	2004.0	2004.0	2004.0	1961.0	1961.0	2000.0	2000.0	2000.0	1958.0	1958.0	1967.0	1967.0	1967.0	2011.0	2011.0	2002.0	2002.0	2002.0	2029.0	2029.0	2016.0	2016.0	2016.0	2045.0	2045.0	2012.0	2012.0	2012.0	2038.0	2038.0	1988.0	1988.0	1988.0	2010.0	2010.0	1987.0	1987.0	1987.0	1991.0	1991.0	2012.0	2012.0	2012.0	2048.0	2048.0	2014.0	2014.0	2014.0	1979.0	1979.0	1993.0	1993.0	1993.0	2012.0	2012.0	2040.0	2040.0	2040.0	2031.0	2031.0	2004.0	2004.0	2004.0	2033.0	2033.0	1991.0	1991.0	1991.0	2002.0	2002.0	1986.0	1986.0	1986.0	1976.0	1976.0	2028.0	2028.0	2028.0	2021.0	2021.0	1986.0	1986.0	1986.0	2017.0	2017.0	1948.0	1948.0	1948.0	1986.0	1986.0	1961.0	1961.0	1961.0	1951.0	1951.0	1943.0	1943.0	1943.0	1962.0	1962.0	1928.0	1928.0	1928.0	1937.0	1937.0	1981.0	1981.0	1925.0	1925.0	1925.0	1939.0	1939.0	1933.0	1933.0	1933.0	1914.0	1914.0	1925.0	1925.0	1925.0	1941.0	1941.0	1918.0	1918.0	1918.0	1958.0	1958.0	1948.0	1948.0	1948.0	1935.0	1935.0	1898.0	1898.0	1898.0	1919.0	1919.0	1881.0	1881.0	1881.0	1926.0	1926.0	1938.0	1938.0	1938.0	1930.0	1930.0	1882.0	1882.0	1882.0	1898.0	1898.0	1898.0	1898.0	1898.0	1930.0	1930.0	1873.0	1873.0	1873.0	1860.0	1860.0	1876.0	1876.0	1876.0	1919.0	1919.0	1851.0	1851.0	1851.0	1888.0	1888.0	1865.0	1865.0	1865.0	1904.0	1904.0	1848.0	1848.0	1848.0	1859.0	1859.0	1912.0	1912.0	1912.0	1846.0	1846.0	1873.0	1873.0	1873.0	1869.0	1869.0	1853.0	1853.0	1853.0	1862.0	1862.0	1847.0	1847.0	1847.0	1907.0	1907.0	1843.0	1843.0	1843.0	1861.0	1861.0	1862.0	1862.0	1862.0	1899.0	1899.0	1893.0	1893.0	1893.0	1921.0	1921.0	1944.0	1944.0	1944.0	1945.0	1945.0	1962.0	1962.0	1962.0	1966.0	1966.0	1965.0	1965.0	1965.0	1965.0	1965.0	1978.0	1978.0	1978.0	2020.0	2020.0	2022.0	2022.0	2022.0	1979.0	1979.0	2043.0	2043.0	2043.0	2049.0	2049.0	2086.0	2086.0	2086.0	2041.0	2041.0	2047.0	2047.0	2047.0	2107.0	2107.0	2126.0	2126.0	2126.0	2166.0	2166.0	2142.0	2142.0	2142.0	2145.0	2145.0	2201.0	2201.0	2201.0	2231.0	2231.0	2213.0	2213.0	2213.0	2258.0	2258.0	2232.0	2232.0	2232.0	2256.0	2256.0	2275.0	2275.0	2275.0	2299.0	2299.0	2295.0	2295.0	2295.0	2291.0	2291.0	2345.0	2345.0	2345.0	2319.0	2319.0	2325.0	2325.0	2325.0	2340.0	2340.0	2370.0	2370.0	2370.0	2394.0	2394.0	2361.0	2361.0	2361.0	2424.0	2424.0	2444.0	2444.0	2393.0	2393.0	2393.0	2410.0	2410.0	2453.0	2453.0	2453.0	2416.0	2416.0	2481.0	2481.0	2481.0	2466.0	2466.0	2457.0	2457.0	2457.0	2463.0	2463.0	2438.0	2438.0	2438.0	2466.0	2466.0	2478.0	2478.0	2478.0	2515.0	2515.0	2467.0	2467.0	2467.0	2518.0	2518.0	2455.0	2455.0	2455.0	2474.0	2474.0	2515.0	2515.0	2515.0	2523.0	2523.0	2540.0	2540.0	2540.0	2517.0	2517.0	2501.0	2501.0	2501.0	2474.0	2474.0	2533.0	2533.0	2533.0	2472.0	2472.0	2498.0	2498.0	2498.0	2548.0	2548.0	2550.0	2550.0	2550.0	2495.0	2495.0	2497.0	2497.0	2497.0	2530.0	2530.0	2496.0	2496.0	2496.0	2526.0	2526.0	2534.0	2534.0	2534.0	2527.0	2527.0	2553.0	2553.0	2553.0	2495.0	2495.0	2487.0	2487.0	2487.0	2525.0	2525.0	2505.0	2505.0	2505.0	2480.0	2480.0	2526.0	2526.0	2526.0	2521.0	2521.0	2509.0	2509.0	2509.0	2466.0	2466.0	2504.0	2504.0	2504.0	2464.0	2464.0	2442.0	2442.0	2442.0	2494.0	2494.0	2449.0	2449.0	2449.0	2468.0	2468.0	2485.0	2485.0	2485.0	2453.0	2453.0	2435.0	2435.0	2435.0	2477.0	2477.0	2418.0	2418.0	2418.0	2452.0	2452.0	2411.0	2411.0	2411.0	2432.0	2432.0	2418.0	2418.0	2418.0	2434.0	2434.0	2385.0	2385.0	2385.0	2372.0	2372.0	2387.0	2387.0	2387.0	2372.0	2372.0	2366.0	2366.0	2366.0	2391.0	2391.0	2348.0	2348.0	2348.0	2403.0	2403.0	2345.0	2345.0	2345.0	2332.0	2332.0	2324.0	2324.0	2324.0	2361.0	2361.0	2319.0	2319.0	2319.0	2314.0	2314.0	2322.0	2322.0	2322.0	2304.0	2304.0	2314.0	2314.0	2314.0	2293.0	2293.0	2300.0	2300.0	2300.0	2240.0	2240.0	2223.0	2223.0	2244.0	2244.0	2244.0	2259.0	2259.0	2206.0	2206.0	2206.0	2191.0	2191.0	2212.0	2212.0	2212.0	2178.0	2178.0	2159.0	2159.0	2159.0	2211.0	2211.0	2177.0	2177.0	2177.0	2140.0	2140.0	2151.0	2151.0	2151.0	2149.0	2149.0	2172.0	2172.0	2172.0	2112.0	2112.0	2150.0	2150.0	2150.0	2116.0	2116.0	2107.0	2107.0	2107.0	2130.0	2130.0	2125.0	2125.0	2125.0	2077.0	2077.0	2125.0	2125.0	2125.0	2052.0	2052.0	2046.0	2046.0	2046.0	2090.0	2090.0	2097.0	2097.0	2097.0	2043.0	2043.0	2021.0	2021.0	2021.0	2060.0	2060.0	2028.0	2028.0	2028.0	2076.0	2076.0	2016.0	2016.0	2016.0	1982.0	1982.0	2006.0	2006.0	2006.0	2046.0	2046.0	1999.0	1999.0	1999.0	1984.0	1984.0	1982.0	1982.0	1982.0	1968.0	1968.0	1968.0	1968.0	1968.0	1991.0	1991.0	2012.0	2012.0	2012.0	1964.0	1964.0	2012.0	2012.0	2012.0	2009.0	2009.0	1964.0	1964.0	1964.0	1949.0	1949.0	1967.0	1967.0	1967.0	1977.0	1977.0	1948.0	1948.0	1948.0	1925.0	1925.0	1918.0	1918.0	1918.0	1925.0	1925.0	1923.0	1923.0	1923.0	1954.0	1954.0	1966.0	1966.0	1966.0	1919.0	1919.0	1940.0	1940.0	1940.0	1913.0	1913.0	1967.0	1967.0	1967.0	1949.0	1949.0	1896.0	1896.0	1896.0	1927.0	1927.0	1948.0	1948.0	1948.0	1919.0	1919.0	1924.0	1924.0	1924.0	1887.0	1887.0	1937.0	1937.0	1937.0	1917.0	1917.0	1893.0	1893.0	1893.0	1871.0	1871.0	1916.0	1916.0	1916.0	1912.0	1912.0	1900.0	1900.0	1900.0	1899.0	1899.0	1839.0	1839.0	1839.0	1908.0	1908.0	1850.0	1850.0	1850.0	1875.0	1875.0	1832.0	1832.0	1832.0	1912.0	1912.0	1875.0	1875.0	1875.0	1831.0	1831.0	1898.0	1898.0	1825.0	1825.0	1825.0	1846.0	1846.0	1878.0	1878.0	1878.0	1872.0	1872.0	1883.0	1883.0	1883.0	1844.0	1844.0	1821.0	1821.0	1821.0	1871.0	1871.0	1815.0	1815.0	1815.0	1807.0	1807.0	1868.0	1868.0	1868.0	1863.0	1863.0	1852.0	1852.0	1852.0	1788.0	1788.0	1788.0	1788.0	1788.0	1827.0	1827.0	1835.0	1835.0	1835.0	1780.0	1780.0	1803.0	1803.0	1803.0	1771.0	1771.0	1821.0	1821.0	1821.0	1835.0	1835.0	1757.0	1757.0	1757.0	1767.0	1767.0	1825.0	1825.0	1825.0	1806.0	1806.0	1780.0	1780.0	1780.0	1761.0	1761.0	1814.0	1814.0	1814.0	1749.0	1749.0	1774.0	1774.0	1774.0	1757.0	1757.0	1823.0	1823.0	1823.0	1805.0	1805.0	1798.0	1798.0	1798.0	1743.0	1743.0	1797.0	1797.0	1797.0	1807.0	1807.0	1767.0	1767.0	1767.0	1748.0	1748.0	1775.0	1775.0	1775.0	1756.0	1756.0	1740.0	1740.0	1740.0	1789.0	1789.0	1791.0	1791.0	1791.0	1773.0	1773.0	1783.0	1783.0	1783.0	1760.0	1760.0	1722.0	1722.0	1722.0	1789.0	1789.0	1727.0	1727.0	1727.0	1764.0	1764.0	1767.0	1767.0	1767.0	1739.0	1739.0	1736.0	1736.0	1736.0	1735.0	1735.0	1742.0	1742.0	1742.0	1730.0	1730.0	1729.0	1729.0	1729.0	1726.0	1726.0	1787.0	1787.0	1787.0	1715.0	1715.0	1721.0	1721.0	1721.0	1729.0	1729.0	1752.0	1752.0	1752.0	1750.0	1750.0	1747.0	1747.0	1747.0	1764.0	1764.0	1769.0	1769.0	1769.0	1743.0	1743.0	1741.0	1741.0	1741.0	1764.0	1764.0	1773.0	1773.0	1773.0	1733.0	1733.0	1758.0	1758.0	1758.0	1781.0	1781.0	1786.0	1786.0	1786.0	1752.0	1752.0	1730.0	1730.0	1730.0	1788.0	1788.0	1780.0	1780.0	1747.0	1747.0	1747.0	1757.0	1757.0	1791.0	1791.0	1791.0	1765.0	1765.0	1797.0	1797.0	1797.0	1728.0	1728.0	1790.0	1790.0	1790.0	1779.0	1779.0	1752.0	1752.0	1752.0	1744.0	1744.0	1767.0	1767.0	1767.0	1759.0	1759.0	1792.0	1792.0	1792.0	1739.0	1739.0	1750.0	1750.0	1750.0	1734.0	1734.0	1756.0	1756.0	1756.0	1782.0	1782.0	1738.0	1738.0	1738.0	1792.0	1792.0	1778.0	1778.0	1778.0	1765.0	1765.0	1756.0	1756.0	1756.0	1786.0	1786.0	1786.0	1786.0	1786.0	1783.0	1783.0	1823.0	1823.0	1823.0	1789.0	1789.0	1794.0	1794.0	1794.0	1767.0	1767.0	1760.0	1760.0	1760.0	1822.0	1822.0	1784.0	1784.0	1784.0	1761.0	1761.0	1773.0	1773.0	1773.0	1818.0	1818.0	1786.0	1786.0	1786.0	1763.0	1763.0	1825.0	1825.0	1825.0	1809.0	1809.0	1802.0	1802.0	1802.0	1774.0	1774.0	1791.0	1791.0	1791.0	1848.0	1848.0	1798.0	1798.0	1798.0	1817.0	1817.0	1871.0	1871.0	1871.0	1872.0	1872.0	1872.0	1872.0	1872.0	1836.0	1836.0	1848.0	1848.0	1848.0	1863.0	1863.0	1944.0	1944.0	1944.0	1901.0	1901.0	1944.0	1944.0	1944.0	1950.0	1950.0	1992.0	1992.0	1992.0	2027.0	2027.0	2018.0	2018.0	2018.0	2036.0	2036.0	2075.0	2075.0	2075.0	2101.0	2101.0	2077.0	2077.0	2077.0	2091.0	2091.0	2093.0	2093.0	2093.0	2147.0	2147.0	2162.0	2162.0	2162.0	2145.0	2145.0	2223.0	2223.0	2223.0	2239.0	2239.0	2255.0	2255.0	2255.0	2219.0	2219.0	2259.0	2259.0	2259.0	2269.0	2269.0	2261.0	2261.0	2261.0	2296.0	2296.0	2341.0	2341.0	2341.0	2364.0	2364.0	2359.0	2359.0	2359.0	2382.0	2382.0	2373.0	2373.0	2384.0	2384.0	2384.0	2357.0	2357.0	2370.0	2370.0	2370.0	2422.0	2422.0	2397.0	2397.0	2397.0	2425.0	2425.0	2423.0	2423.0	2423.0	2472.0	2472.0	2422.0	2422.0	2422.0	2478.0	2478.0	2447.0	2447.0	2447.0	2451.0	2451.0	2439.0	2439.0	2439.0	2453.0	2453.0	2470.0	2470.0	2470.0	2457.0	2457.0	2507.0	2507.0	2507.0	2460.0	2460.0	2460.0	2460.0	2460.0	2502.0	2502.0	2519.0	2519.0	2519.0	2475.0	2475.0	2522.0	2522.0	2522.0	2475.0	2475.0	2485.0	2485.0	2485.0	2530.0	2530.0	2515.0	2515.0	2515.0	2524.0	2524.0	2535.0	2535.0	2535.0	2517.0	2517.0	2469.0	2469.0	2469.0	2470.0	2470.0	2537.0	2537.0	2537.0	2535.0	2535.0	2506.0	2506.0	2506.0	2491.0	2491.0	2514.0	2514.0	2514.0	2498.0	2498.0	2474.0	2474.0	2474.0	2482.0	2482.0	2521.0	2521.0	2521.0	2509.0	2509.0	2472.0	2472.0	2472.0	2512.0	2512.0	2442.0	2442.0	2442.0	2477.0	2477.0	2495.0	2495.0	2495.0	2494.0	2494.0	2452.0	2452.0	2452.0	2465.0	2465.0	2437.0	2437.0	2437.0	2431.0	2431.0	2422.0	2422.0	2422.0	2458.0	2458.0	2416.0	2416.0	2416.0	2415.0	2415.0	2412.0	2412.0	2412.0	2454.0	2454.0	2395.0	2395.0	2395.0	2385.0	2385.0	2424.0	2424.0	2424.0	2415.0	2415.0	2416.0	2416.0	2416.0	2419.0	2419.0	2411.0	2411.0	2411.0	2334.0	2334.0	2385.0	2385.0	2385.0	2354.0	2354.0	2363.0	2363.0	2363.0	2343.0	2343.0	2340.0	2340.0	2340.0	2291.0	2291.0	2287.0	2287.0	2287.0	2315.0	2315.0	2265.0	2265.0	2265.0	2265.0	2265.0	2253.0	2253.0	2253.0	2294.0	2294.0	2243.0	2243.0	2243.0	2222.0	2222.0	2251.0	2251.0	2251.0	2219.0	2219.0	2207.0	2207.0	2236.0	2236.0	2236.0	2202.0	2202.0	2191.0	2191.0	2191.0	2210.0	2210.0	2143.0	2143.0	2143.0	2130.0	2130.0	2159.0	2159.0	2159.0	2118.0	2118.0	2100.0	2100.0	2100.0	2139.0	2139.0	2136.0	2136.0	2136.0	2091.0	2091.0	2088.0	2088.0	2088.0	2053.0	2053.0	2073.0	2073.0	2073.0	2053.0	2053.0	2054.0	2054.0	2054.0	2016.0	2016.0	2029.0	2029.0	2029.0	2027.0	2027.0	2011.0	2011.0	2011.0	1983.0	1983.0	1979.0	1979.0	1979.0	2012.0	2012.0	2018.0	2018.0	2018.0	2018.0	2018.0	2016.0	2016.0	2016.0	1992.0	1992.0	1940.0	1940.0	1940.0	2002.0	2002.0	1988.0	1988.0	1988.0	1979.0	1979.0	1965.0	1965.0	1965.0	1937.0	1937.0	1918.0	1918.0	1918.0	1917.0	1917.0	1959.0	1959.0	1959.0	1933.0	1933.0	1962.0	1962.0	1962.0	1895.0	1895.0	1888.0	1888.0	1888.0	1932.0	1932.0	1901.0	1901.0	1901.0	1918.0	1918.0	1931.0	1931.0	1931.0	1890.0	1890.0	1904.0	1904.0	1904.0	1899.0	1899.0	1877.0	1877.0	1877.0	1913.0	1913.0	1863.0	1863.0	1863.0	1861.0	1861.0	1855.0	1855.0	1855.0	1900.0	1900.0	1915.0	1915.0	1915.0	1853.0	1853.0	1840.0	1840.0	1840.0	1879.0	1879.0	1835.0	1835.0	1835.0	1842.0	1842.0	1870.0	1870.0	1870.0	1886.0	1886.0	1842.0	1842.0	1842.0	1826.0	1826.0	1819.0	1819.0	1819.0	1835.0	1835.0	1810.0	1810.0	1810.0	1865.0	1865.0	1859.0	1859.0	1859.0	1830.0	1830.0	1847.0	1847.0	1847.0	1851.0	1851.0	1798.0	1798.0	1798.0	1831.0	1831.0	1808.0	1808.0	1808.0	1826.0	1826.0	1823.0	1823.0	1823.0	1783.0	1783.0	1787.0	1787.0	1787.0	1800.0	1800.0	1832.0	1832.0	1772.0	1772.0	1772.0	1786.0	1786.0	1816.0	1816.0	1816.0	1757.0	1757.0	1813.0	1813.0	1813.0	1801.0	1801.0	1799.0	1799.0	1799.0	1755.0	1755.0	1807.0	1807.0	1807.0	1796.0	1796.0	1799.0	1799.0	1799.0	1807.0	1807.0	1811.0	1811.0	1811.0	1743.0	1743.0	1774.0	1774.0	1774.0	1765.0	1765.0	1809.0	1809.0	1809.0	1790.0	1790.0	1753.0	1753.0	1753.0	1753.0	1753.0	1775.0	1775.0	1775.0	1770.0	1770.0	1740.0	1740.0	1740.0	1790.0	1790.0	1718.0	1718.0	1718.0	1729.0	1729.0	1777.0	1777.0	1777.0	1777.0	1777.0	1784.0	1784.0	1784.0	1749.0	1749.0	1774.0	1774.0	1774.0	1766.0	1766.0	1772.0	1772.0	1772.0	1707.0	1707.0	1755.0	1755.0	1755.0	1753.0	1753.0	1729.0	1729.0	1729.0	1768.0	1768.0	1773.0	1773.0	1773.0	1758.0	1758.0	1712.0	1712.0	1712.0	1707.0	1707.0	1694.0	1694.0	1694.0	1714.0	1714.0	1769.0	1769.0	1769.0	1759.0	1759.0	1769.0	1769.0	1769.0	1707.0	1707.0	1727.0	1727.0	1727.0	1769.0	1769.0	1738.0	1738.0	1738.0	1766.0	1766.0	1729.0	1729.0	1729.0	1717.0	1717.0	1761.0	1761.0	1761.0	1752.0	1752.0	1758.0	1758.0	1758.0	1686.0	1686.0	1752.0	1752.0	1752.0	1731.0	1731.0	1705.0	1705.0	1705.0	1733.0	1733.0	1685.0	1685.0	1685.0	1721.0	1721.0	1714.0	1714.0	1714.0	1684.0	1684.0	1693.0	1693.0	1693.0	1692.0	1692.0	1715.0	1715.0	1715.0	1732.0	1732.0	1692.0	1692.0	1692.0	1709.0	1709.0	1684.0	1684.0	1684.0	1682.0	1682.0	1728.0	1728.0	1728.0	1671.0	1671.0	1671.0	1671.0	1671.0	1729.0	1729.0	1725.0	1725.0	1725.0	1672.0	1672.0	1688.0	1688.0	1688.0	1657.0	1657.0	1682.0	1682.0	1722.0	1722.0	1722.0	1723.0	1723.0	1677.0	1677.0	1677.0	1676.0	1676.0	1717.0	1717.0	1717.0	1709.0	1709.0	1670.0	1670.0	1670.0	1719.0	1719.0	1686.0	1686.0	1686.0	1707.0	1707.0	1669.0	1669.0	1669.0	1644.0	1644.0	1646.0	1646.0	1646.0	1703.0	1703.0	1709.0	1709.0	1709.0	1708.0	1708.0	1708.0	1708.0	1708.0	1717.0	1717.0	1657.0	1657.0	1657.0	1717.0	1717.0	1658.0	1658.0	1658.0	1639.0	1639.0	1644.0	1644.0	1644.0	1646.0	1646.0	1636.0	1636.0	1636.0	1666.0	1666.0	1651.0	1651.0	1651.0	1648.0	1648.0	1700.0	1700.0	1700.0	1671.0	1671.0	1699.0	1699.0	1699.0	1659.0	1659.0	1688.0	1688.0	1688.0	1695.0	1695.0	1647.0	1647.0	1647.0	1648.0	1648.0	1664.0	1664.0	1664.0	1715.0	1715.0	1656.0	1656.0	1656.0	1661.0	1661.0	1663.0	1663.0	1663.0	1684.0	1684.0	1695.0	1695.0	1695.0	1718.0	1718.0	1693.0	1693.0	1693.0	1741.0	1741.0	1710.0	1710.0	1710.0	1762.0	1762.0	1738.0	1738.0	1738.0	1797.0	1797.0	1772.0	1772.0	1772.0	1789.0	1789.0	1828.0	1828.0	1828.0	1803.0	1803.0	1807.0	1807.0	1807.0	1888.0	1888.0	1843.0	1843.0	1843.0	1914.0	1914.0	1914.0	1914.0	1914.0	1956.0	1956.0	1935.0	1935.0	1935.0	1940.0	1940.0	1979.0	1979.0	1979.0	1994.0	1994.0	1992.0	1992.0	1992.0	2032.0	2032.0	2034.0	2034.0	2034.0	2098.0	2098.0	2125.0	2125.0	2125.0	2089.0	2089.0	2132.0	2132.0	2132.0	2106.0	2106.0	2133.0	2133.0	2133.0	2128.0	2128.0	2142.0	2142.0	2142.0	2199.0	2199.0	2174.0	2174.0	2174.0	2198.0	2198.0	2231.0	2231.0	2231.0	2217.0	2217.0	2256.0	2256.0	2269.0	2269.0	2269.0	2281.0	2281.0	2303.0	2303.0	2303.0	2307.0	2307.0	2284.0	2284.0	2284.0	2341.0	2341.0	2313.0	2313.0	2313.0	2317.0	2317.0	2319.0	2319.0	2319.0	2379.0	2379.0	2326.0	2326.0	2326.0	2339.0	2339.0	2365.0	2365.0	2365.0	2343.0	2343.0	2408.0	2408.0	2408.0	2372.0	2372.0	2408.0	2408.0	2408.0	2423.0	2423.0	2373.0	2373.0	2373.0	2407.0	2407.0	2431.0	2431.0	2431.0	2423.0	2423.0	2442.0	2442.0	2442.0	2424.0	2424.0	2403.0	2403.0	2403.0	2450.0	2450.0	2445.0	2445.0	2445.0	2409.0	2409.0	2422.0	2422.0	2422.0	2450.0	