1539.0	1539.0	1539.0	1548.0	1548.0	1486.0	1486.0	1486.0	1531.0	1531.0	1506.0	1506.0	1506.0	1464.0	1464.0	1488.0	1488.0	1492.0	1492.0	1492.0	1498.0	1498.0	1500.0	1500.0	1500.0	1518.0	1518.0	1521.0	1521.0	1521.0	1493.0	1493.0	1467.0	1467.0	1467.0	1465.0	1465.0	1480.0	1480.0	1480.0	1444.0	1444.0	1505.0	1505.0	1505.0	1466.0	1466.0	1461.0	1461.0	1461.0	1466.0	1466.0	1508.0	1508.0	1508.0	1450.0	1450.0	1438.0	1438.0	1438.0	1454.0	1454.0	1432.0	1432.0	1432.0	1466.0	1466.0	1436.0	1436.0	1436.0	1499.0	1499.0	1441.0	1441.0	1441.0	1468.0	1468.0	1435.0	1435.0	1435.0	1425.0	1425.0	1447.0	1447.0	1447.0	1474.0	1474.0	1487.0	1487.0	1487.0	1478.0	1478.0	1419.0	1419.0	1419.0	1452.0	1452.0	1436.0	1436.0	1436.0	1436.0	1436.0	1491.0	1491.0	1491.0	1435.0	1435.0	1478.0	1478.0	1478.0	1427.0	1427.0	1468.0	1468.0	1468.0	1440.0	1440.0	1440.0	1440.0	1440.0	1428.0	1428.0	1453.0	1453.0	1453.0	1446.0	1446.0	1428.0	1428.0	1428.0	1432.0	1432.0	1427.0	1427.0	1427.0	1452.0	1452.0	1490.0	1490.0	1490.0	1424.0	1424.0	1431.0	1431.0	1431.0	1441.0	1441.0	1467.0	1467.0	1467.0	1423.0	1423.0	1438.0	1438.0	1438.0	1491.0	1491.0	1443.0	1443.0	1443.0	1455.0	1455.0	1461.0	1461.0	1461.0	1467.0	1467.0	1501.0	1501.0	1501.0	1505.0	1505.0	1489.0	1489.0	1489.0	1504.0	1504.0	1508.0	1508.0	1508.0	1446.0	1446.0	1491.0	1491.0	1491.0	1520.0	1520.0	1485.0	1485.0	1485.0	1476.0	1476.0	1462.0	1462.0	1462.0	1526.0	1526.0	1495.0	1495.0	1495.0	1472.0	1472.0	1489.0	1489.0	1489.0	1472.0	1472.0	1502.0	1502.0	1502.0	1553.0	1553.0	1514.0	1514.0	1514.0	1545.0	1545.0	1550.0	1550.0	1562.0	1562.0	1562.0	1532.0	1532.0	1506.0	1506.0	1506.0	1537.0	1537.0	1519.0	1519.0	1519.0	1578.0	1578.0	1560.0	1560.0	1560.0	1558.0	1558.0	1542.0	1542.0	1542.0	1558.0	1558.0	1517.0	1517.0	1517.0	1578.0	1578.0	1575.0	1575.0	1575.0	1598.0	1598.0	1567.0	1567.0	1567.0	1535.0	1535.0	1544.0	1544.0	1544.0	1553.0	1553.0	1542.0	1542.0	1542.0	1617.0	1617.0	1602.0	1602.0	1602.0	1537.0	1537.0	1612.0	1612.0	1612.0	1605.0	1605.0	1607.0	1607.0	1607.0	1622.0	1622.0	1582.0	1582.0	1582.0	1619.0	1619.0	1632.0	1632.0	1632.0	1632.0	1632.0	1576.0	1576.0	1576.0	1636.0	1636.0	1619.0	1619.0	1619.0	1581.0	1581.0	1634.0	1634.0	1634.0	1632.0	1632.0	1562.0	1562.0	1562.0	1581.0	1581.0	1606.0	1606.0	1606.0	1580.0	1580.0	1631.0	1631.0	1631.0	1616.0	1616.0	1647.0	1647.0	1647.0	1633.0	1633.0	1650.0	1650.0	1650.0	1613.0	1613.0	1603.0	1603.0	1603.0	1628.0	1628.0	1668.0	1668.0	1668.0	1648.0	1648.0	1681.0	1681.0	1681.0	1643.0	1643.0	1675.0	1675.0	1675.0	1724.0	1724.0	1727.0	1727.0	1727.0	1745.0	1745.0	1759.0	1759.0	1759.0	1765.0	1765.0	1737.0	1737.0	1737.0	1756.0	1756.0	1834.0	1834.0	1834.0	1846.0	1846.0	1847.0	1847.0	1847.0	1833.0	1833.0	1857.0	1857.0	1857.0	1861.0	1861.0	1872.0	1872.0	1872.0	1903.0	1903.0	1983.0	1983.0	1983.0	1946.0	1946.0	1971.0	1971.0	1971.0	2041.0	2041.0	2014.0	2014.0	2014.0	2042.0	2042.0	2080.0	2080.0	2080.0	2057.0	2057.0	2063.0	2063.0	2063.0	2114.0	2114.0	2103.0	2103.0	2103.0	2183.0	2183.0	2192.0	2192.0	2173.0	2173.0	2173.0	2204.0	2204.0	2170.0	2170.0	2170.0	2234.0	2234.0	2240.0	2240.0	2240.0	2201.0	2201.0	2254.0	2254.0	2254.0	2219.0	2219.0	2238.0	2238.0	2238.0	2301.0	2301.0	2309.0	2309.0	2309.0	2292.0	2292.0	2275.0	2275.0	2275.0	2337.0	2337.0	2348.0	2348.0	2348.0	2295.0	2295.0	2331.0	2331.0	2331.0	2346.0	2346.0	2346.0	2346.0	2346.0	2347.0	2347.0	2389.0	2389.0	2389.0	2371.0	2371.0	2343.0	2343.0	2343.0	2389.0	2389.0	2403.0	2403.0	2403.0	2376.0	2376.0	2385.0	2385.0	2385.0	2397.0	2397.0	2354.0	2354.0	2354.0	2410.0	2410.0	2367.0	2367.0	2367.0	2390.0	2390.0	2416.0	2416.0	2416.0	2384.0	2384.0	2429.0	2429.0	2429.0	2386.0	2386.0	2403.0	2403.0	2403.0	2439.0	2439.0	2384.0	2384.0	2384.0	2376.0	2376.0	2402.0	2402.0	2402.0	2444.0	2444.0	2431.0	2431.0	2431.0	2387.0	2387.0	2407.0	2407.0	2407.0	2449.0	2449.0	2434.0	2434.0	2434.0	2405.0	2405.0	2381.0	2381.0	2381.0	2440.0	2440.0	2381.0	2381.0	2381.0	2396.0	2396.0	2405.0	2405.0	2405.0	2363.0	2363.0	2372.0	2372.0	2372.0	2361.0	2361.0	2348.0	2348.0	2348.0	2365.0	2365.0	2382.0	2382.0	2382.0	2389.0	2389.0	2334.0	2334.0	2334.0	2326.0	2326.0	2343.0	2343.0	2343.0	2319.0	2319.0	2367.0	2367.0	2367.0	2296.0	2296.0	2348.0	2348.0	2348.0	2359.0	2359.0	2331.0	2331.0	2331.0	2305.0	2305.0	2286.0	2286.0	2286.0	2323.0	2323.0	2303.0	2303.0	2303.0	2308.0	2308.0	2243.0	2243.0	2243.0	2302.0	2302.0	2296.0	2296.0	2296.0	2283.0	2283.0	2235.0	2235.0	2235.0	2206.0	2206.0	2215.0	2215.0	2215.0	2190.0	2190.0	2192.0	2192.0	2163.0	2163.0	2163.0	2188.0	2188.0	2219.0	2219.0	2219.0	2200.0	2200.0	2156.0	2156.0	2156.0	2158.0	2158.0	2172.0	2172.0	2172.0	2125.0	2125.0	2148.0	2148.0	2148.0	2121.0	2121.0	2095.0	2095.0	2095.0	2121.0	2121.0	2113.0	2113.0	2113.0	2117.0	2117.0	2118.0	2118.0	2118.0	2099.0	2099.0	2077.0	2077.0	2077.0	2067.0	2067.0	2070.0	2070.0	2070.0	2008.0	2008.0	2016.0	2016.0	2016.0	2019.0	2019.0	2003.0	2003.0	2003.0	1990.0	1990.0	2019.0	2019.0	2019.0	1975.0	1975.0	1999.0	1999.0	1999.0	1940.0	1940.0	1989.0	1989.0	1989.0	1984.0	1984.0	1926.0	1926.0	1926.0	1947.0	1947.0	1957.0	1957.0	1957.0	1962.0	1962.0	1905.0	1905.0	1905.0	1901.0	1901.0	1962.0	1962.0	1962.0	1948.0	1948.0	1894.0	1894.0	1894.0	1940.0	1940.0	1910.0	1910.0	1910.0	1871.0	1871.0	1934.0	1934.0	1934.0	1876.0	1876.0	1921.0	1921.0	1921.0	1938.0	1938.0	1871.0	1871.0	1871.0	1865.0	1865.0	1909.0	1909.0	1909.0	1880.0	1880.0	1846.0	1846.0	1846.0	1878.0	1878.0	1866.0	1866.0	1866.0	1892.0	1892.0	1904.0	1904.0	1904.0	1843.0	1843.0	1866.0	1866.0	1866.0	1876.0	1876.0	1828.0	1828.0	1828.0	1844.0	1844.0	1833.0	1833.0	1833.0	1860.0	1860.0	1839.0	1839.0	1839.0	1869.0	1869.0	1834.0	1834.0	1834.0	1871.0	1871.0	1813.0	1813.0	1813.0	1806.0	1806.0	1792.0	1792.0	1792.0	1852.0	1852.0	1855.0	1855.0	1855.0	1807.0	1807.0	1827.0	1827.0	1827.0	1842.0	1842.0	1803.0	1803.0	1803.0	1812.0	1812.0	1831.0	1831.0	1831.0	1789.0	1789.0	1815.0	1815.0	1815.0	1818.0	1818.0	1775.0	1775.0	1791.0	1791.0	1791.0	1802.0	1802.0	1812.0	1812.0	1812.0	1763.0	1763.0	1821.0	1821.0	1821.0	1803.0	1803.0	1751.0	1751.0	1751.0	1757.0	1757.0	1798.0	1798.0	1798.0	1816.0	1816.0	1732.0	1732.0	1732.0	1748.0	1748.0	1735.0	1735.0	1735.0	1787.0	1787.0	1750.0	1750.0	1750.0	1787.0	1787.0	1780.0	1780.0	1780.0	1757.0	1757.0	1718.0	1718.0	1718.0	1752.0	1752.0	1740.0	1740.0	1740.0	1758.0	1758.0	1744.0	1744.0	1744.0	1708.0	1708.0	1713.0	1713.0	1713.0	1726.0	1726.0	1707.0	1707.0	1707.0	1751.0	1751.0	1698.0	1698.0	1698.0	1747.0	1747.0	1724.0	1724.0	1724.0	1755.0	1755.0	1708.0	1708.0	1708.0	1714.0	1714.0	1679.0	1679.0	1679.0	1715.0	1715.0	1735.0	1735.0	1735.0	1728.0	1728.0	1712.0	1712.0	1712.0	1719.0	1719.0	1683.0	1683.0	1683.0	1668.0	1668.0	1716.0	1716.0	1716.0	1725.0	1725.0	1653.0	1653.0	1653.0	1722.0	1722.0	1657.0	1657.0	1657.0	1688.0	1688.0	1666.0	1666.0	1666.0	1683.0	1683.0	1703.0	1703.0	1703.0	1668.0	1668.0	1698.0	1698.0	1698.0	1691.0	1691.0	1654.0	1654.0	1654.0	1652.0	1652.0	1652.0	1652.0	1652.0	1652.0	1652.0	1660.0	1660.0	1660.0	1694.0	1694.0	1659.0	1659.0	1659.0	1700.0	1700.0	1666.0	1666.0	1666.0	1648.0	1648.0	1666.0	1666.0	1666.0	1707.0	1707.0	1668.0	1668.0	1668.0	1700.0	1700.0	1708.0	1708.0	1708.0	1697.0	1697.0	1647.0	1647.0	1647.0	1642.0	1642.0	1702.0	1702.0	1702.0	1665.0	1665.0	1660.0	1660.0	1660.0	1646.0	1646.0	1702.0	1702.0	1702.0	1643.0	1643.0	1644.0	1644.0	1644.0	1694.0	1694.0	1640.0	1640.0	1697.0	1697.0	1697.0	1693.0	1693.0	1656.0	1656.0	1656.0	1671.0	1671.0	1660.0	1660.0	1660.0	1644.0	1644.0	1644.0	1644.0	1644.0	1704.0	1704.0	1643.0	1643.0	1643.0	1688.0	1688.0	1687.0	1687.0	1687.0	1654.0	1654.0	1667.0	1667.0	1667.0	1708.0	1708.0	1716.0	1716.0	1716.0	1661.0	1661.0	1667.0	1667.0	1667.0	1686.0	1686.0	1686.0	1686.0	1686.0	1689.0	1689.0	1693.0	1693.0	1693.0	1696.0	1696.0	1703.0	1703.0	1703.0	1718.0	1718.0	1710.0	1710.0	1710.0	1657.0	1657.0	1658.0	1658.0	1658.0	1654.0	1654.0	1701.0	1701.0	1701.0	1684.0	1684.0	1719.0	1719.0	1719.0	1669.0	1669.0	1711.0	1711.0	1711.0	1686.0	1686.0	1711.0	1711.0	1711.0	1671.0	1671.0	1679.0	1679.0	1679.0	1721.0	1721.0	1694.0	1694.0	1694.0	1705.0	1705.0	1721.0	1721.0	1721.0	1730.0	1730.0	1684.0	1684.0	1684.0	1717.0	1717.0	1680.0	1680.0	1680.0	1688.0	1688.0	1681.0	1681.0	1681.0	1689.0	1689.0	1755.0	1755.0	1755.0	1754.0	1754.0	1780.0	1780.0	1780.0	1763.0	1763.0	1780.0	1780.0	1780.0	1785.0	1785.0	1782.0	1782.0	1782.0	1780.0	1780.0	1812.0	1812.0	1812.0	1824.0	1824.0	1820.0	1820.0	1820.0	1863.0	1863.0	1837.0	1837.0	1837.0	1905.0	1905.0	1916.0	1916.0	1916.0	1930.0	1930.0	1959.0	1959.0	1959.0	1948.0	1948.0	1948.0	1948.0	1948.0	1960.0	1960.0	2034.0	2034.0	2034.0	2032.0	2032.0	2009.0	2009.0	2009.0	2066.0	2066.0	2066.0	2066.0	2066.0	2055.0	2055.0	2129.0	2129.0	2129.0	2122.0	2122.0	2167.0	2167.0	2167.0	2127.0	2127.0	2154.0	2154.0	2154.0	2156.0	2156.0	2166.0	2166.0	2166.0	2191.0	2191.0	2230.0	2230.0	2206.0	2206.0	2206.0	2255.0	2255.0	2252.0	2252.0	2252.0	2255.0	2255.0	2265.0	2265.0	2265.0	2299.0	2299.0	2258.0	2258.0	2258.0	2290.0	2290.0	2309.0	2309.0	2309.0	2349.0	2349.0	2309.0	2309.0	2309.0	2347.0	2347.0	2339.0	2339.0	2339.0	2368.0	2368.0	2326.0	2326.0	2326.0	2340.0	2340.0	2325.0	2325.0	2325.0	2333.0	2333.0	2398.0	2398.0	2398.0	2339.0	2339.0	2353.0	2353.0	2353.0	2409.0	2409.0	2402.0	2402.0	2402.0	2369.0	2369.0	2393.0	2393.0	2393.0	2429.0	2429.0	2419.0	2419.0	2419.0	2392.0	2392.0	2364.0	2364.0	2364.0	2365.0	2365.0	2379.0	2379.0	2379.0	2374.0	2374.0	2410.0	2410.0	2410.0	2388.0	2388.0	2371.0	2371.0	2371.0	2429.0	2429.0	2402.0	2402.0	2402.0	2382.0	2382.0	2381.0	2381.0	2381.0	2392.0	2392.0	2429.0	2429.0	2429.0	2379.0	2379.0	2375.0	2375.0	2375.0	2400.0	2400.0	2430.0	2430.0	2430.0	2396.0	2396.0	2411.0	2411.0	2411.0	2404.0	2404.0	2385.0	2385.0	2385.0	2411.0	2411.0	2356.0	2356.0	2356.0	2370.0	2370.0	2411.0	2411.0	2411.0	2361.0	2361.0	2383.0	2383.0	2383.0	2356.0	2356.0	2337.0	2337.0	2337.0	2354.0	2354.0	2354.0	2354.0	2354.0	2355.0	2355.0	2347.0	2347.0	2347.0	2375.0	2375.0	2328.0	2328.0	2328.0	2375.0	2375.0	2338.0	2338.0	2338.0	2363.0	2363.0	2349.0	2349.0	2349.0	2336.0	2336.0	2330.0	2330.0	2330.0	2330.0	2330.0	2330.0	2330.0	2330.0	2287.0	2287.0	2278.0	2278.0	2278.0	2282.0	2282.0	2248.0	2248.0	2248.0	2262.0	2262.0	2231.0	2231.0	2231.0	2265.0	2265.0	2261.0	2261.0	2261.0	2261.0	2261.0	2255.0	2255.0	2243.0	2243.0	2243.0	2239.0	2239.0	2207.0	2207.0	2207.0	2219.0	2219.0	2178.0	2178.0	2178.0	2143.0	2143.0	2180.0	2180.0	2180.0	2139.0	2139.0	2144.0	2144.0	2144.0	2120.0	2120.0	2126.0	2126.0	2126.0	2157.0	2157.0	2128.0	2128.0	2128.0	2119.0	2119.0	2139.0	2139.0	2139.0	2119.0	2119.0	2117.0	2117.0	2117.0	2070.0	2070.0	2038.0	2038.0	2038.0	2076.0	2076.0	2031.0	2031.0	2031.0	2040.0	2040.0	2082.0	2082.0	2082.0	2029.0	2029.0	2025.0	2025.0	2025.0	2006.0	2006.0	2051.0	2051.0	2051.0	2055.0	2055.0	2010.0	2010.0	2010.0	1992.0	1992.0	2004.0	2004.0	2004.0	1967.0	1967.0	2001.0	2001.0	2001.0	2008.0	2008.0	2016.0	2016.0	2016.0	1992.0	1992.0	1943.0	1943.0	1943.0	1957.0	1957.0	1936.0	1936.0	1936.0	1929.0	1929.0	1980.0	1980.0	1980.0	1995.0	1995.0	1952.0	1952.0	1952.0	1947.0	1947.0	1922.0	1922.0	1922.0	1925.0	1925.0	1908.0	1908.0	1908.0	1927.0	1927.0	1939.0	1939.0	1939.0	1936.0	1936.0	1958.0	1958.0	1958.0	1919.0	1919.0	1943.0	1943.0	1943.0	1953.0	1953.0	1935.0	1935.0	1935.0	1939.0	1939.0	1884.0	1884.0	1884.0	1878.0	1878.0	1927.0	1927.0	1927.0	1894.0	1894.0	1869.0	1869.0	1869.0	1924.0	1924.0	1913.0	1913.0	1913.0	1915.0	1915.0	1932.0	1932.0	1932.0	1874.0	1874.0	1866.0	1866.0	1866.0	1847.0	1847.0	1859.0	1859.0	1859.0	1903.0	1903.0	1851.0	1851.0	1851.0	1836.0	1836.0	1891.0	1891.0	1891.0	1830.0	1830.0	1882.0	1882.0	1882.0	1867.0	1867.0	1857.0	1857.0	1857.0	1851.0	1851.0	1857.0	1857.0	1857.0	1872.0	1872.0	1816.0	1816.0	1816.0	1836.0	1836.0	1826.0	1826.0	1800.0	1800.0	1800.0	1853.0	1853.0	1856.0	1856.0	1856.0	1807.0	1807.0	1780.0	1780.0	1780.0	1851.0	1851.0	1787.0	1787.0	1787.0	1784.0	1784.0	1842.0	1842.0	1842.0	1837.0	1837.0	1784.0	1784.0	1784.0	1795.0	1795.0	1764.0	1764.0	1764.0	1830.0	1830.0	1772.0	1772.0	1772.0	1760.0	1760.0	1764.0	1764.0	1764.0	1815.0	1815.0	1748.0	1748.0	1748.0	1747.0	1747.0	1768.0	1768.0	1768.0	1757.0	1757.0	1790.0	1790.0	1790.0	1748.0	1748.0	1787.0	1787.0	1787.0	1765.0	1765.0	1725.0	1725.0	1725.0	1767.0	1767.0	1746.0	1746.0	1746.0	1756.0	1756.0	1782.0	1782.0	1782.0	1758.0	1758.0	1715.0	1715.0	1715.0	1714.0	1714.0	1707.0	1707.0	1707.0	1759.0	1759.0	1734.0	1734.0	1734.0	1726.0	1726.0	1696.0	1696.0	1696.0	1703.0	1703.0	1763.0	1763.0	1763.0	1760.0	1760.0	1699.0	1699.0	1699.0	1704.0	1704.0	1724.0	1724.0	1724.0	1746.0	1746.0	1684.0	1684.0	1684.0	1712.0	1712.0	1690.0	1690.0	1690.0	1705.0	1705.0	1742.0	1742.0	1742.0	1677.0	1677.0	1746.0	1746.0	1746.0	1734.0	1734.0	1738.0	1738.0	1738.0	1739.0	1739.0	1688.0	1688.0	1688.0	1727.0	1727.0	1666.0	1666.0	1666.0	1670.0	1670.0	1679.0	1679.0	1679.0	1727.0	1727.0	1727.0	1727.0	1727.0	1675.0	1675.0	1672.0	1672.0	1672.0	1686.0	1686.0	1726.0	1726.0	1726.0	1670.0	1670.0	1686.0	1686.0	1686.0	1664.0	1664.0	1688.0	1688.0	1688.0	1705.0	1705.0	1663.0	1663.0	1663.0	1717.0	1717.0	1692.0	1692.0	1692.0	1684.0	1684.0	1681.0	1681.0	1681.0	1672.0	1672.0	1659.0	1659.0	1659.0	1739.0	1739.0	1663.0	1663.0	1668.0	1668.0	1668.0	1671.0	1671.0	1670.0	1670.0	1670.0	1701.0	1701.0	1665.0	1665.0	1665.0	1733.0	1733.0	1713.0	1713.0	1713.0	1675.0	1675.0	1734.0	1734.0	1734.0	1683.0	1683.0	1715.0	1715.0	1715.0	1735.0	1735.0	1738.0	1738.0	1738.0	1678.0	1678.0	1746.0	1746.0	1746.0	1672.0	1672.0	1734.0	1734.0	1734.0	1736.0	1736.0	1734.0	1734.0	1734.0	1711.0	1711.0	1735.0	1735.0	1735.0	1688.0	1688.0	1671.0	1671.0	1671.0	1737.0	1737.0	1705.0	1705.0	1705.0	1711.0	1711.0	1704.0	1704.0	1704.0	1742.0	1742.0	1731.0	1731.0	1731.0	1727.0	1727.0	1741.0	1741.0	1741.0	1697.0	1697.0	1726.0	1726.0	1726.0	1675.0	1675.0	1692.0	1692.0	1692.0	1708.0	1708.0	1708.0	1708.0	1708.0	1684.0	1684.0	1748.0	1748.0	1748.0	1758.0	1758.0	1747.0	1747.0	1747.0	1707.0	1707.0	1728.0	1728.0	1728.0	1747.0	1747.0	1735.0	1735.0	1735.0	1728.0	1728.0	1761.0	1761.0	1761.0	1718.0	1718.0	1715.0	1715.0	1715.0	1713.0	1713.0	1734.0	1734.0	1734.0	1758.0	1758.0	1776.0	1776.0	1776.0	1743.0	1743.0	1738.0	1738.0	1738.0	1779.0	1779.0	1788.0	1788.0	1788.0	1759.0	1759.0	1802.0	1802.0	1802.0	1768.0	1768.0	1809.0	1809.0	1809.0	1839.0	1839.0	1820.0	1820.0	1820.0	1830.0	1830.0	1898.0	1898.0	1898.0	1890.0	1890.0	1873.0	1873.0	1873.0	1942.0	1942.0	1949.0	1949.0	1949.0	1975.0	1975.0	1961.0	1961.0	1961.0	1948.0	1948.0	1989.0	1989.0	1989.0	2005.0	2005.0	2019.0	2019.0	2019.0	2079.0	2079.0	2043.0	2043.0	2043.0	2066.0	2066.0	2120.0	2120.0	2120.0	2113.0	2113.0	2168.0	2168.0	2186.0	2186.0	2186.0	2193.0	2193.0	2192.0	2192.0	2192.0	2184.0	2184.0	2250.0	2250.0	2250.0	2270.0	2270.0	2245.0	2245.0	2245.0	2282.0	2282.0	2305.0	2305.0	2305.0	2264.0	2264.0	2302.0	2302.0	2302.0	2307.0	2307.0	2319.0	2319.0	2319.0	2296.0	2296.0	2380.0	2380.0	2380.0	2335.0	2335.0	2356.0	2356.0	2356.0	2366.0	2366.0	2366.0	2366.0	2366.0	