1848.0	1838.0	1838.0	1838.0	1855.0	1855.0	1844.0	1844.0	1844.0	1851.0	1851.0	1811.0	1811.0	1811.0	1811.0	1811.0	1836.0	1836.0	1836.0	1852.0	1852.0	1815.0	1815.0	1792.0	1792.0	1792.0	1797.0	1797.0	1843.0	1843.0	1843.0	1804.0	1804.0	1830.0	1830.0	1830.0	1828.0	1828.0	1808.0	1808.0	1808.0	1839.0	1839.0	1797.0	1797.0	1797.0	1799.0	1799.0	1820.0	1820.0	1820.0	1827.0	1827.0	1806.0	1806.0	1806.0	1789.0	1789.0	1838.0	1838.0	1838.0	1788.0	1788.0	1807.0	1807.0	1807.0	1782.0	1782.0	1843.0	1843.0	1843.0	1832.0	1832.0	1830.0	1830.0	1830.0	1784.0	1784.0	1837.0	1837.0	1837.0	1849.0	1849.0	1841.0	1841.0	1841.0	1787.0	1787.0	1847.0	1847.0	1847.0	1840.0	1840.0	1811.0	1811.0	1811.0	1839.0	1839.0	1830.0	1830.0	1830.0	1785.0	1785.0	1829.0	1829.0	1829.0	1794.0	1794.0	1787.0	1787.0	1787.0	1809.0	1809.0	1782.0	1782.0	1782.0	1806.0	1806.0	1838.0	1838.0	1838.0	1803.0	1803.0	1819.0	1819.0	1819.0	1779.0	1779.0	1798.0	1798.0	1798.0	1831.0	1831.0	1814.0	1814.0	1814.0	1828.0	1828.0	1777.0	1777.0	1777.0	1833.0	1833.0	1774.0	1774.0	1774.0	1795.0	1795.0	1776.0	1776.0	1776.0	1811.0	1811.0	1787.0	1787.0	1787.0	1791.0	1791.0	1813.0	1813.0	1813.0	1811.0	1811.0	1830.0	1830.0	1830.0	1841.0	1841.0	1784.0	1784.0	1784.0	1793.0	1793.0	1797.0	1797.0	1797.0	1776.0	1776.0	1803.0	1803.0	1803.0	1818.0	1818.0	1785.0	1785.0	1785.0	1770.0	1770.0	1817.0	1817.0	1817.0	1787.0	1787.0	1808.0	1808.0	1808.0	1776.0	1776.0	1797.0	1797.0	1797.0	1789.0	1789.0	1816.0	1816.0	1816.0	1772.0	1772.0	1801.0	1801.0	1801.0	1757.0	1757.0	1825.0	1825.0	1825.0	1775.0	1775.0	1819.0	1819.0	1819.0	1767.0	1767.0	1804.0	1804.0	1769.0	1769.0	1769.0	1807.0	1807.0	1769.0	1769.0	1769.0	1769.0	1769.0	1785.0	1785.0	1785.0	1770.0	1770.0	1780.0	1780.0	1780.0	1800.0	1800.0	1779.0	1779.0	1779.0	1792.0	1792.0	1762.0	1762.0	1762.0	1773.0	1773.0	1758.0	1758.0	1758.0	1792.0	1792.0	1763.0	1763.0	1763.0	1776.0	1776.0	1806.0	1806.0	1806.0	1802.0	1802.0	1802.0	1802.0	1802.0	1806.0	1806.0	1802.0	1802.0	1802.0	1763.0	1763.0	1834.0	1834.0	1834.0	1781.0	1781.0	1832.0	1832.0	1832.0	1841.0	1841.0	1807.0	1807.0	1807.0	1833.0	1833.0	1825.0	1825.0	1825.0	1868.0	1868.0	1874.0	1874.0	1874.0	1883.0	1883.0	1885.0	1885.0	1885.0	1952.0	1952.0	1942.0	1942.0	1942.0	1948.0	1948.0	2008.0	2008.0	2008.0	1984.0	1984.0	2050.0	2050.0	2050.0	2051.0	2051.0	2084.0	2084.0	2084.0	2092.0	2092.0	2124.0	2124.0	2124.0	2148.0	2148.0	2208.0	2208.0	2208.0	2232.0	2232.0	2200.0	2200.0	2200.0	2272.0	2272.0	2282.0	2282.0	2282.0	2325.0	2325.0	2302.0	2302.0	2302.0	2342.0	2342.0	2375.0	2375.0	2375.0	2354.0	2354.0	2387.0	2387.0	2387.0	2403.0	2403.0	2396.0	2396.0	2396.0	2456.0	2456.0	2409.0	2409.0	2409.0	2458.0	2458.0	2479.0	2479.0	2479.0	2474.0	2474.0	2453.0	2453.0	2453.0	2463.0	2463.0	2479.0	2479.0	2479.0	2500.0	2500.0	2496.0	2496.0	2496.0	2486.0	2486.0	2525.0	2525.0	2525.0	2511.0	2511.0	2523.0	2523.0	2523.0	2492.0	2492.0	2493.0	2493.0	2493.0	2480.0	2480.0	2526.0	2526.0	2526.0	2481.0	2481.0	2527.0	2527.0	2527.0	2507.0	2507.0	2509.0	2509.0	2509.0	2479.0	2479.0	2502.0	2502.0	2502.0	2464.0	2464.0	2512.0	2512.0	2505.0	2505.0	2505.0	2471.0	2471.0	2438.0	2438.0	2438.0	2430.0	2430.0	2439.0	2439.0	2439.0	2464.0	2464.0	2473.0	2473.0	2473.0	2434.0	2434.0	2430.0	2430.0	2430.0	2435.0	2435.0	2450.0	2450.0	2450.0	2404.0	2404.0	2403.0	2403.0	2403.0	2398.0	2398.0	2422.0	2422.0	2422.0	2403.0	2403.0	2370.0	2370.0	2370.0	2391.0	2391.0	2400.0	2400.0	2400.0	2383.0	2383.0	2360.0	2360.0	2360.0	2386.0	2386.0	2355.0	2355.0	2355.0	2372.0	2372.0	2383.0	2383.0	2383.0	2323.0	2323.0	2334.0	2334.0	2334.0	2331.0	2331.0	2340.0	2340.0	2340.0	2311.0	2311.0	2319.0	2319.0	2319.0	2331.0	2331.0	2340.0	2340.0	2340.0	2319.0	2319.0	2330.0	2330.0	2330.0	2307.0	2307.0	2313.0	2313.0	2313.0	2315.0	2315.0	2247.0	2247.0	2247.0	2278.0	2278.0	2255.0	2255.0	2255.0	2231.0	2231.0	2226.0	2226.0	2226.0	2248.0	2248.0	2278.0	2278.0	2278.0	2241.0	2241.0	2219.0	2219.0	2219.0	2231.0	2231.0	2222.0	2222.0	2222.0	2220.0	2220.0	2218.0	2218.0	2218.0	2203.0	2203.0	2194.0	2194.0	2194.0	2162.0	2162.0	2204.0	2204.0	2204.0	2155.0	2155.0	2175.0	2175.0	2175.0	2148.0	2148.0	2137.0	2137.0	2137.0	2143.0	2143.0	2154.0	2154.0	2154.0	2139.0	2139.0	2107.0	2107.0	2107.0	2117.0	2117.0	2106.0	2106.0	2106.0	2161.0	2161.0	2109.0	2109.0	2109.0	2099.0	2099.0	2123.0	2123.0	2123.0	2160.0	2160.0	2137.0	2137.0	2137.0	2101.0	2101.0	2114.0	2114.0	2114.0	2122.0	2122.0	2094.0	2094.0	2094.0	2117.0	2117.0	2111.0	2111.0	2111.0	2121.0	2121.0	2136.0	2136.0	2136.0	2126.0	2126.0	2089.0	2089.0	2129.0	2129.0	2129.0	2127.0	2127.0	2080.0	2080.0	2080.0	2093.0	2093.0	2098.0	2098.0	2098.0	2077.0	2077.0	2075.0	2075.0	2075.0	2102.0	2102.0	2098.0	2098.0	2098.0	2120.0	2120.0	2113.0	2113.0	2113.0	2087.0	2087.0	2114.0	2114.0	2114.0	2112.0	2112.0	2096.0	2096.0	2096.0	2064.0	2064.0	2072.0	2072.0	2072.0	2061.0	2061.0	2080.0	2080.0	2080.0	2081.0	2081.0	2059.0	2059.0	2059.0	2041.0	2041.0	2069.0	2069.0	2069.0	2054.0	2054.0	2077.0	2077.0	2077.0	2072.0	2072.0	2037.0	2037.0	2037.0	2032.0	2032.0	2088.0	2088.0	2088.0	2032.0	2032.0	2041.0	2041.0	2041.0	2058.0	2058.0	2065.0	2065.0	2065.0	2050.0	2050.0	2006.0	2006.0	2006.0	2042.0	2042.0	2014.0	2014.0	2014.0	2032.0	2032.0	2058.0	2058.0	2058.0	2049.0	2049.0	2019.0	2019.0	2019.0	2040.0	2040.0	2042.0	2042.0	2042.0	1998.0	1998.0	1984.0	1984.0	1984.0	2029.0	2029.0	2028.0	2028.0	2028.0	2004.0	2004.0	2008.0	2008.0	2008.0	1959.0	1959.0	1991.0	1991.0	1991.0	1978.0	1978.0	1970.0	1970.0	1970.0	1956.0	1956.0	1996.0	1996.0	1996.0	1947.0	1947.0	1932.0	1932.0	1932.0	1995.0	1995.0	1985.0	1985.0	1985.0	1969.0	1969.0	1992.0	1992.0	1992.0	1951.0	1951.0	1934.0	1934.0	1934.0	1924.0	1924.0	1916.0	1916.0	1916.0	1917.0	1917.0	1967.0	1967.0	1967.0	1941.0	1941.0	1950.0	1950.0	1950.0	1900.0	1900.0	1950.0	1950.0	1950.0	1945.0	1945.0	1917.0	1917.0	1917.0	1919.0	1919.0	1923.0	1923.0	1923.0	1946.0	1946.0	1944.0	1944.0	1944.0	1897.0	1897.0	1888.0	1888.0	1888.0	1886.0	1886.0	1922.0	1922.0	1915.0	1915.0	1915.0	1888.0	1888.0	1885.0	1885.0	1885.0	1896.0	1896.0	1924.0	1924.0	1924.0	1908.0	1908.0	1874.0	1874.0	1874.0	1911.0	1911.0	1901.0	1901.0	1901.0	1863.0	1863.0	1918.0	1918.0	1918.0	1880.0	1880.0	1871.0	1871.0	1871.0	1855.0	1855.0	1891.0	1891.0	1891.0	1922.0	1922.0	1870.0	1870.0	1870.0	1889.0	1889.0	1889.0	1889.0	1889.0	1853.0	1853.0	1859.0	1859.0	1859.0	1878.0	1878.0	1851.0	1851.0	1851.0	1868.0	1868.0	1877.0	1877.0	1877.0	1888.0	1888.0	1902.0	1902.0	1902.0	1839.0	1839.0	1872.0	1872.0	1872.0	1842.0	1842.0	1871.0	1871.0	1871.0	1880.0	1880.0	1886.0	1886.0	1886.0	1851.0	1851.0	1842.0	1842.0	1842.0	1887.0	1887.0	1828.0	1828.0	1828.0	1867.0	1867.0	1822.0	1822.0	1822.0	1828.0	1828.0	1871.0	1871.0	1871.0	1832.0	1832.0	1847.0	1847.0	1847.0	1871.0	1871.0	1852.0	1852.0	1852.0	1870.0	1870.0	1842.0	1842.0	1842.0	1846.0	1846.0	1844.0	1844.0	1844.0	1836.0	1836.0	1843.0	1843.0	1843.0	1854.0	1854.0	1869.0	1869.0	1869.0	1848.0	1848.0	1869.0	1869.0	1869.0	1863.0	1863.0	1862.0	1862.0	1862.0	1821.0	1821.0	1833.0	1833.0	1833.0	1844.0	1844.0	1851.0	1851.0	1851.0	1859.0	1859.0	1861.0	1861.0	1861.0	1811.0	1811.0	1805.0	1805.0	1805.0	1842.0	1842.0	1845.0	1845.0	1845.0	1829.0	1829.0	1814.0	1814.0	1814.0	1812.0	1812.0	1814.0	1814.0	1814.0	1800.0	1800.0	1820.0	1820.0	1820.0	1860.0	1860.0	1802.0	1802.0	1802.0	1852.0	1852.0	1847.0	1847.0	1847.0	1851.0	1851.0	1793.0	1793.0	1793.0	1800.0	1800.0	1799.0	1799.0	1799.0	1804.0	1804.0	1827.0	1827.0	1837.0	1837.0	1837.0	1824.0	1824.0	1802.0	1802.0	1802.0	1795.0	1795.0	1811.0	1811.0	1811.0	1796.0	1796.0	1810.0	1810.0	1810.0	1854.0	1854.0	1799.0	1799.0	1799.0	1795.0	1795.0	1802.0	1802.0	1802.0	1825.0	1825.0	1847.0	1847.0	1847.0	1843.0	1843.0	1833.0	1833.0	1833.0	1844.0	1844.0	1820.0	1820.0	1820.0	1845.0	1845.0	1813.0	1813.0	1813.0	1856.0	1856.0	1807.0	1807.0	1807.0	1838.0	1838.0	1785.0	1785.0	1785.0	1822.0	1822.0	1842.0	1842.0	1842.0	1831.0	1831.0	1779.0	1779.0	1779.0	1823.0	1823.0	1807.0	1807.0	1807.0	1841.0	1841.0	1847.0	1847.0	1847.0	1808.0	1808.0	1811.0	1811.0	1811.0	1797.0	1797.0	1835.0	1835.0	1835.0	1830.0	1830.0	1818.0	1818.0	1818.0	1798.0	1798.0	1831.0	1831.0	1831.0	1787.0	1787.0	1807.0	1807.0	1807.0	1838.0	1838.0	1787.0	1787.0	1787.0	1840.0	1840.0	1789.0	1789.0	1789.0	1822.0	1822.0	1786.0	1786.0	1786.0	1779.0	1779.0	1818.0	1818.0	1818.0	1831.0	1831.0	1825.0	1825.0	1825.0	1827.0	1827.0	1818.0	1818.0	1818.0	1794.0	1794.0	1781.0	1781.0	1781.0	1829.0	1829.0	1800.0	1800.0	1800.0	1773.0	1773.0	1784.0	1784.0	1784.0	1770.0	1770.0	1779.0	1779.0	1779.0	1810.0	1810.0	1769.0	1769.0	1769.0	1822.0	1822.0	1818.0	1818.0	1818.0	1776.0	1776.0	1813.0	1813.0	1813.0	1801.0	1801.0	1760.0	1760.0	1760.0	1830.0	1830.0	1798.0	1798.0	1798.0	1786.0	1786.0	1801.0	1801.0	1801.0	1831.0	1831.0	1807.0	1807.0	1807.0	1820.0	1820.0	1883.0	1883.0	1883.0	1875.0	1875.0	1880.0	1880.0	1880.0	1897.0	1897.0	1898.0	1898.0	1917.0	1917.0	1917.0	1938.0	1938.0	1990.0	1990.0	1990.0	2034.0	2034.0	1995.0	1995.0	1995.0	2070.0	2070.0	2045.0	2045.0	2045.0	2095.0	2095.0	2113.0	2113.0	2113.0	2113.0	2113.0	2131.0	2131.0	2131.0	2220.0	2220.0	2201.0	2201.0	2201.0	2239.0	2239.0	2223.0	2223.0	2223.0	2270.0	2270.0	2316.0	2316.0	2316.0	2356.0	2356.0	2324.0	2324.0	2324.0	2349.0	2349.0	2371.0	2371.0	2371.0	2375.0	2375.0	2402.0	2402.0	2402.0	2422.0	2422.0	2413.0	2413.0	2413.0	2467.0	2467.0	2447.0	2447.0	2447.0	2464.0	2464.0	2506.0	2506.0	2506.0	2463.0	2463.0	2510.0	2510.0	2510.0	2475.0	2475.0	2498.0	2498.0	2498.0	2494.0	2494.0	2546.0	2546.0	2546.0	2509.0	2509.0	2545.0	2545.0	2545.0	2494.0	2494.0	2522.0	2522.0	2522.0	2512.0	2512.0	2500.0	2500.0	2500.0	2551.0	2551.0	2552.0	2552.0	2552.0	2552.0	2552.0	2511.0	2511.0	2511.0	2510.0	2510.0	2498.0	2498.0	2498.0	2477.0	2477.0	2532.0	2532.0	2532.0	2511.0	2511.0	2486.0	2486.0	2486.0	2528.0	2528.0	2473.0	2473.0	2473.0	2479.0	2479.0	2503.0	2503.0	2503.0	2460.0	2460.0	2444.0	2444.0	2444.0	2434.0	2434.0	2464.0	2464.0	2464.0	2427.0	2427.0	2470.0	2470.0	2470.0	2464.0	2464.0	2410.0	2410.0	2410.0	2426.0	2426.0	2422.0	2422.0	2422.0	2417.0	2417.0	2401.0	2401.0	2401.0	2390.0	2390.0	2399.0	2399.0	2399.0	2407.0	2407.0	2382.0	2382.0	2382.0	2377.0	2377.0	2380.0	2380.0	2380.0	2362.0	2362.0	2367.0	2367.0	2367.0	2381.0	2381.0	2356.0	2356.0	2356.0	2397.0	2397.0	2359.0	2359.0	2359.0	2353.0	2353.0	2359.0	2359.0	2359.0	2332.0	2332.0	2327.0	2327.0	2316.0	2316.0	2316.0	2325.0	2325.0	2345.0	2345.0	2345.0	2350.0	2350.0	2282.0	2282.0	2282.0	2297.0	2297.0	2291.0	2291.0	2291.0	2296.0	2296.0	2308.0	2308.0	2308.0	2267.0	2267.0	2257.0	2257.0	2257.0	2303.0	2303.0	2269.0	2269.0	2269.0	2269.0	2269.0	2249.0	2249.0	2249.0	2264.0	2264.0	2251.0	2251.0	2251.0	2228.0	2228.0	2249.0	2249.0	2249.0	2194.0	2194.0	2205.0	2205.0	2205.0	2215.0	2215.0	2190.0	2190.0	2190.0	2184.0	2184.0	2155.0	2155.0	2155.0	2184.0	2184.0	2194.0	2194.0	2194.0	2166.0	2166.0	2168.0	2168.0	2168.0	2185.0	2185.0	2189.0	2189.0	2189.0	2140.0	2140.0	2152.0	2152.0	2152.0	2156.0	2156.0	2132.0	2132.0	2132.0	2123.0	2123.0	2170.0	2170.0	2170.0	2111.0	2111.0	2150.0	2150.0	2150.0	2099.0	2099.0	2117.0	2117.0	2117.0	2134.0	2134.0	2114.0	2114.0	2114.0	2101.0	2101.0	2092.0	2092.0	2092.0	2129.0	2129.0	2106.0	2106.0	2106.0	2090.0	2090.0	2131.0	2131.0	2131.0	2132.0	2132.0	2117.0	2117.0	2117.0	2098.0	2098.0	2116.0	2116.0	2116.0	2080.0	2080.0	2091.0	2091.0	2091.0	2076.0	2076.0	2113.0	2113.0	2113.0	2114.0	2114.0	2102.0	2102.0	2102.0	2120.0	2120.0	2097.0	2097.0	2097.0	2114.0	2114.0	2073.0	2073.0	2073.0	2061.0	2061.0	2105.0	2105.0	2105.0	2057.0	2057.0	2071.0	2071.0	2071.0	2040.0	2040.0	2046.0	2046.0	2046.0	2049.0	2049.0	2078.0	2078.0	2078.0	2044.0	2044.0	2064.0	2064.0	2064.0	2060.0	2060.0	2058.0	2058.0	2058.0	2050.0	2050.0	2026.0	2026.0	2026.0	2069.0	2069.0	2068.0	2068.0	2068.0	2015.0	2015.0	2068.0	2068.0	2024.0	2024.0	2024.0	2059.0	2059.0	2022.0	2022.0	2022.0	2000.0	2000.0	2032.0	2032.0	2032.0	2029.0	2029.0	2007.0	2007.0	2007.0	2018.0	2018.0	2013.0	2013.0	2013.0	2019.0	2019.0	1998.0	1998.0	1998.0	1977.0	1977.0	1960.0	1960.0	1960.0	2000.0	2000.0	1972.0	1972.0	1972.0	2010.0	2010.0	1983.0	1983.0	1983.0	1979.0	1979.0	1967.0	1967.0	1967.0	1979.0	1979.0	1991.0	1991.0	1991.0	1976.0	1976.0	1946.0	1946.0	1946.0	1975.0	1975.0	1940.0	1940.0	1940.0	1940.0	1940.0	1947.0	1947.0	1947.0	1971.0	1971.0	1928.0	1928.0	1928.0	1937.0	1937.0	1942.0	1942.0	1942.0	1923.0	1923.0	1979.0	1979.0	1979.0	1944.0	1944.0	1935.0	1935.0	1935.0	1901.0	1901.0	1945.0	1945.0	1945.0	1896.0	1896.0	1922.0	1922.0	1922.0	1910.0	1910.0	1932.0	1932.0	1932.0	1909.0	1909.0	1917.0	1917.0	1917.0	1932.0	1932.0	1931.0	1931.0	1931.0	1883.0	1883.0	1916.0	1916.0	1916.0	1898.0	1898.0	1929.0	1929.0	1929.0	1887.0	1887.0	1891.0	1891.0	1891.0	1903.0	1903.0	1873.0	1873.0	1873.0	1913.0	1913.0	1922.0	1922.0	1922.0	1859.0	1859.0	1877.0	1877.0	1877.0	1883.0	1883.0	1908.0	1908.0	1908.0	1855.0	1855.0	1919.0	1919.0	1919.0	1854.0	1854.0	1899.0	1899.0	1899.0	1908.0	1908.0	1897.0	1897.0	1897.0	1867.0	1867.0	1886.0	1886.0	1886.0	1903.0	1903.0	1849.0	1849.0	1849.0	1855.0	1855.0	1877.0	1877.0	1877.0	1888.0	1888.0	1853.0	1853.0	1853.0	1835.0	1835.0	1864.0	1864.0	1864.0	1846.0	1846.0	1859.0	1859.0	1859.0	1878.0	1878.0	1843.0	1843.0	1843.0	1874.0	1874.0	1876.0	1876.0	1898.0	1898.0	1898.0	1840.0	1840.0	1847.0	1847.0	1847.0	1857.0	1857.0	1872.0	1872.0	1872.0	1827.0	1827.0	1871.0	1871.0	1871.0	1859.0	1859.0	1859.0	1859.0	1859.0	1864.0	1864.0	1831.0	1831.0	1831.0	1835.0	1835.0	1869.0	1869.0	1869.0	1866.0	1866.0	1880.0	1880.0	1880.0	1840.0	1840.0	1821.0	1821.0	1821.0	1864.0	1864.0	1864.0	1864.0	1864.0	1830.0	1830.0	1855.0	1855.0	1855.0	1836.0	1836.0	1828.0	1828.0	1828.0	1859.0	1859.0	1801.0	1801.0	1801.0	1807.0	1807.0	1839.0	1839.0	1839.0	1802.0	1802.0	1806.0	1806.0	1806.0	1806.0	1806.0	1835.0	1835.0	1835.0	1866.0	1866.0	1794.0	1794.0	1794.0	1810.0	1810.0	1818.0	1818.0	1818.0	1835.0	1835.0	1829.0	1829.0	1829.0	1836.0	1836.0	1852.0	1852.0	1852.0	1850.0	1850.0	1811.0	1811.0	1811.0	1785.0	1785.0	1791.0	1791.0	1791.0	1802.0	1802.0	1846.0	1846.0	1846.0	1848.0	1848.0	1822.0	1822.0	1822.0	1841.0	1841.0	1842.0	1842.0	1842.0	1814.0	1814.0	1775.0	1775.0	1775.0	1816.0	1816.0	1798.0	1798.0	1798.0	1831.0	1831.0	1787.0	1787.0	1787.0	1790.0	1790.0	1815.0	1815.0	1815.0	1800.0	1800.0	1784.0	1784.0	1784.0	1803.0	1803.0	1837.0	1837.0	1837.0	1842.0	1842.0	1845.0	1845.0	1845.0	1781.0	1781.0	1786.0	1786.0	1786.0	1771.0	1771.0	1803.0	1803.0	1803.0	1772.0	1772.0	1773.0	1773.0	1773.0	1789.0	1789.0	1794.0	1794.0	1794.0	1815.0	1815.0	1811.0	1811.0	1811.0	1788.0	1788.0	1815.0	1815.0	1815.0	1784.0	1784.0	1780.0	1780.0	1780.0	1817.0	1817.0	1825.0	1825.0	1825.0	1808.0	1808.0	1810.0	1810.0	1810.0	1785.0	1785.0	1785.0	1785.0	1778.0	1778.0	1778.0	1771.0	1771.0	1827.0	1827.0	1827.0	1781.0	1781.0	1797.0	1797.0	1797.0	1799.0	1799.0	1838.0	1838.0	1838.0	1782.0	1782.0	1799.0	1799.0	1799.0	1788.0	1788.0	1776.0	1776.0	1776.0	1794.0	1794.0	1819.0	1819.0	1819.0	1774.0	1774.0	1779.0	1779.0	