1920.0	1920.0	1855.0	1855.0	1855.0	1875.0	1875.0	1854.0	1854.0	1854.0	1902.0	1902.0	1840.0	1840.0	1840.0	1892.0	1892.0	1892.0	1892.0	1892.0	1893.0	1893.0	1888.0	1888.0	1888.0	1823.0	1823.0	1878.0	1878.0	1878.0	1860.0	1860.0	1804.0	1804.0	1804.0	1796.0	1796.0	1830.0	1830.0	1830.0	1845.0	1845.0	1843.0	1843.0	1843.0	1788.0	1788.0	1810.0	1810.0	1810.0	1776.0	1776.0	1792.0	1792.0	1792.0	1812.0	1812.0	1757.0	1757.0	1757.0	1776.0	1776.0	1787.0	1787.0	1787.0	1817.0	1817.0	1761.0	1761.0	1761.0	1761.0	1761.0	1800.0	1800.0	1800.0	1748.0	1748.0	1729.0	1729.0	1729.0	1772.0	1772.0	1741.0	1741.0	1741.0	1760.0	1760.0	1777.0	1777.0	1777.0	1777.0	1777.0	1734.0	1734.0	1734.0	1749.0	1749.0	1718.0	1718.0	1718.0	1775.0	1775.0	1715.0	1715.0	1715.0	1717.0	1717.0	1762.0	1762.0	1762.0	1725.0	1725.0	1752.0	1752.0	1752.0	1758.0	1758.0	1737.0	1737.0	1737.0	1725.0	1725.0	1694.0	1694.0	1694.0	1740.0	1740.0	1739.0	1739.0	1739.0	1679.0	1679.0	1743.0	1743.0	1743.0	1716.0	1716.0	1681.0	1681.0	1681.0	1680.0	1680.0	1736.0	1736.0	1736.0	1720.0	1720.0	1735.0	1735.0	1735.0	1715.0	1715.0	1679.0	1679.0	1679.0	1668.0	1668.0	1728.0	1728.0	1728.0	1677.0	1677.0	1725.0	1725.0	1725.0	1671.0	1671.0	1716.0	1716.0	1716.0	1679.0	1679.0	1716.0	1716.0	1716.0	1715.0	1715.0	1711.0	1711.0	1711.0	1727.0	1727.0	1674.0	1674.0	1674.0	1713.0	1713.0	1726.0	1726.0	1726.0	1711.0	1711.0	1659.0	1659.0	1659.0	1698.0	1698.0	1702.0	1702.0	1702.0	1689.0	1689.0	1648.0	1648.0	1680.0	1680.0	1680.0	1710.0	1710.0	1646.0	1646.0	1646.0	1709.0	1709.0	1657.0	1657.0	1657.0	1722.0	1722.0	1680.0	1680.0	1680.0	1690.0	1690.0	1660.0	1660.0	1660.0	1712.0	1712.0	1676.0	1676.0	1676.0	1711.0	1711.0	1670.0	1670.0	1670.0	1678.0	1678.0	1699.0	1699.0	1699.0	1716.0	1716.0	1669.0	1669.0	1669.0	1649.0	1649.0	1649.0	1649.0	1649.0	1694.0	1694.0	1685.0	1685.0	1685.0	1696.0	1696.0	1697.0	1697.0	1697.0	1650.0	1650.0	1701.0	1701.0	1701.0	1660.0	1660.0	1677.0	1677.0	1677.0	1658.0	1658.0	1656.0	1656.0	1656.0	1660.0	1660.0	1697.0	1697.0	1697.0	1687.0	1687.0	1654.0	1654.0	1654.0	1626.0	1626.0	1655.0	1655.0	1655.0	1699.0	1699.0	1660.0	1660.0	1660.0	1639.0	1639.0	1685.0	1685.0	1685.0	1633.0	1633.0	1638.0	1638.0	1638.0	1652.0	1652.0	1627.0	1627.0	1627.0	1660.0	1660.0	1673.0	1673.0	1673.0	1630.0	1630.0	1662.0	1662.0	1662.0	1690.0	1690.0	1633.0	1633.0	1633.0	1687.0	1687.0	1631.0	1631.0	1631.0	1649.0	1649.0	1629.0	1629.0	1629.0	1611.0	1611.0	1616.0	1616.0	1616.0	1648.0	1648.0	1677.0	1677.0	1677.0	1673.0	1673.0	1632.0	1632.0	1632.0	1619.0	1619.0	1665.0	1665.0	1665.0	1637.0	1637.0	1615.0	1615.0	1615.0	1681.0	1681.0	1675.0	1675.0	1675.0	1669.0	1669.0	1636.0	1636.0	1636.0	1654.0	1654.0	1695.0	1695.0	1695.0	1680.0	1680.0	1652.0	1652.0	1652.0	1663.0	1663.0	1669.0	1669.0	1669.0	1724.0	1724.0	1743.0	1743.0	1743.0	1765.0	1765.0	1764.0	1764.0	1764.0	1804.0	1804.0	1788.0	1788.0	1788.0	1856.0	1856.0	1831.0	1831.0	1831.0	1886.0	1886.0	1932.0	1932.0	1941.0	1941.0	1941.0	1939.0	1939.0	1984.0	1984.0	1984.0	2012.0	2012.0	2093.0	2093.0	2093.0	2073.0	2073.0	2165.0	2165.0	2165.0	2178.0	2178.0	2237.0	2237.0	2237.0	2275.0	2275.0	2252.0	2252.0	2252.0	2285.0	2285.0	2347.0	2347.0	2347.0	2369.0	2369.0	2419.0	2419.0	2419.0	2420.0	2420.0	2466.0	2466.0	2466.0	2496.0	2496.0	2531.0	2531.0	2531.0	2516.0	2516.0	2547.0	2547.0	2547.0	2562.0	2562.0	2637.0	2637.0	2637.0	2614.0	2614.0	2647.0	2647.0	2647.0	2699.0	2699.0	2668.0	2668.0	2668.0	2737.0	2737.0	2734.0	2734.0	2734.0	2747.0	2747.0	2759.0	2759.0	2759.0	2749.0	2749.0	2775.0	2775.0	2775.0	2824.0	2824.0	2786.0	2786.0	2786.0	2831.0	2831.0	2845.0	2845.0	2845.0	2812.0	2812.0	2832.0	2832.0	2832.0	2840.0	2840.0	2822.0	2822.0	2822.0	2872.0	2872.0	2834.0	2834.0	2834.0	2857.0	2857.0	2834.0	2834.0	2834.0	2881.0	2881.0	2827.0	2827.0	2827.0	2846.0	2846.0	2868.0	2868.0	2868.0	2830.0	2830.0	2876.0	2876.0	2876.0	2834.0	2834.0	2840.0	2840.0	2840.0	2822.0	2822.0	2838.0	2838.0	2838.0	2799.0	2799.0	2827.0	2827.0	2827.0	2811.0	2811.0	2805.0	2805.0	2805.0	2808.0	2808.0	2785.0	2785.0	2785.0	2791.0	2791.0	2809.0	2809.0	2809.0	2762.0	2762.0	2801.0	2801.0	2801.0	2802.0	2802.0	2743.0	2743.0	2743.0	2768.0	2768.0	2756.0	2756.0	2756.0	2757.0	2757.0	2773.0	2773.0	2773.0	2703.0	2703.0	2763.0	2763.0	2763.0	2752.0	2752.0	2732.0	2732.0	2732.0	2715.0	2715.0	2681.0	2681.0	2681.0	2649.0	2649.0	2654.0	2654.0	2654.0	2678.0	2678.0	2676.0	2676.0	2665.0	2665.0	2665.0	2662.0	2662.0	2597.0	2597.0	2597.0	2619.0	2619.0	2636.0	2636.0	2636.0	2572.0	2572.0	2565.0	2565.0	2565.0	2550.0	2550.0	2535.0	2535.0	2535.0	2588.0	2588.0	2560.0	2560.0	2560.0	2503.0	2503.0	2498.0	2498.0	2498.0	2474.0	2474.0	2461.0	2461.0	2461.0	2503.0	2503.0	2458.0	2458.0	2458.0	2424.0	2424.0	2393.0	2393.0	2393.0	2387.0	2387.0	2401.0	2401.0	2401.0	2382.0	2382.0	2363.0	2363.0	2363.0	2334.0	2334.0	2341.0	2341.0	2341.0	2288.0	2288.0	2267.0	2267.0	2267.0	2262.0	2262.0	2236.0	2236.0	2236.0	2225.0	2225.0	2213.0	2213.0	2213.0	2239.0	2239.0	2195.0	2195.0	2195.0	2213.0	2213.0	2147.0	2147.0	2147.0	2149.0	2149.0	2171.0	2171.0	2171.0	2126.0	2126.0	2124.0	2124.0	2124.0	2094.0	2094.0	2116.0	2116.0	2116.0	2115.0	2115.0	2100.0	2100.0	2100.0	2064.0	2064.0	2115.0	2115.0	2115.0	2102.0	2102.0	2070.0	2070.0	2070.0	2084.0	2084.0	2049.0	2049.0	2049.0	2052.0	2052.0	2079.0	2079.0	2079.0	2019.0	2019.0	2005.0	2005.0	2005.0	2022.0	2022.0	2053.0	2053.0	2053.0	2014.0	2014.0	2065.0	2065.0	2065.0	2001.0	2001.0	2028.0	2028.0	2028.0	2020.0	2020.0	2020.0	2020.0	2020.0	2058.0	2058.0	2043.0	2043.0	2043.0	2031.0	2031.0	2063.0	2063.0	2063.0	2005.0	2005.0	2047.0	2047.0	2047.0	2012.0	2012.0	2025.0	2025.0	2025.0	2050.0	2050.0	1986.0	1986.0	1986.0	2024.0	2024.0	1979.0	1979.0	1979.0	1985.0	1985.0	1979.0	1979.0	1979.0	1974.0	1974.0	1999.0	1999.0	1999.0	1995.0	1995.0	1985.0	1985.0	1985.0	2033.0	2033.0	2030.0	2030.0	2031.0	2031.0	2031.0	2025.0	2025.0	1965.0	1965.0	1965.0	1973.0	1973.0	1979.0	1979.0	1979.0	1992.0	1992.0	1992.0	1992.0	1992.0	1990.0	1990.0	1972.0	1972.0	1972.0	2012.0	2012.0	1969.0	1969.0	1969.0	1934.0	1934.0	1937.0	1937.0	1937.0	1939.0	1939.0	1998.0	1998.0	1998.0	1979.0	1979.0	1965.0	1965.0	1965.0	1931.0	1931.0	1931.0	1931.0	1931.0	1958.0	1958.0	1936.0	1936.0	1936.0	1945.0	1945.0	1935.0	1935.0	1935.0	1953.0	1953.0	1920.0	1920.0	1920.0	1931.0	1931.0	1943.0	1943.0	1943.0	1891.0	1891.0	1919.0	1919.0	1919.0	1891.0	1891.0	1859.0	1859.0	1859.0	1927.0	1927.0	1922.0	1922.0	1922.0	1886.0	1886.0	1852.0	1852.0	1852.0	1896.0	1896.0	1843.0	1843.0	1843.0	1910.0	1910.0	1837.0	1837.0	1837.0	1847.0	1847.0	1881.0	1881.0	1881.0	1874.0	1874.0	1838.0	1838.0	1838.0	1835.0	1835.0	1840.0	1840.0	1840.0	1813.0	1813.0	1820.0	1820.0	1820.0	1784.0	1784.0	1852.0	1852.0	1852.0	1780.0	1780.0	1783.0	1783.0	1783.0	1781.0	1781.0	1796.0	1796.0	1796.0	1830.0	1830.0	1766.0	1766.0	1766.0	1755.0	1755.0	1803.0	1803.0	1803.0	1813.0	1813.0	1807.0	1807.0	1807.0	1781.0	1781.0	1801.0	1801.0	1801.0	1738.0	1738.0	1806.0	1806.0	1806.0	1769.0	1769.0	1748.0	1748.0	1748.0	1772.0	1772.0	1783.0	1783.0	1783.0	1726.0	1726.0	1753.0	1753.0	1753.0	1786.0	1786.0	1746.0	1746.0	1746.0	1729.0	1729.0	1701.0	1701.0	1701.0	1709.0	1709.0	1763.0	1763.0	1763.0	1694.0	1694.0	1728.0	1728.0	1728.0	1754.0	1754.0	1748.0	1748.0	1748.0	1746.0	1746.0	1717.0	1717.0	1717.0	1745.0	1745.0	1704.0	1704.0	1723.0	1723.0	1723.0	1729.0	1729.0	1728.0	1728.0	1728.0	1704.0	1704.0	1731.0	1731.0	1731.0	1741.0	1741.0	1679.0	1679.0	1679.0	1691.0	1691.0	1709.0	1709.0	1709.0	1721.0	1721.0	1671.0	1671.0	1671.0	1716.0	1716.0	1661.0	1661.0	1661.0	1665.0	1665.0	1725.0	1725.0	1725.0	1685.0	1685.0	1722.0	1722.0	1722.0	1697.0	1697.0	1723.0	1723.0	1723.0	1662.0	1662.0	1688.0	1688.0	1688.0	1689.0	1689.0	1724.0	1724.0	1724.0	1670.0	1670.0	1714.0	1714.0	1714.0	1703.0	1703.0	1666.0	1666.0	1666.0	1704.0	1704.0	1699.0	1699.0	1699.0	1649.0	1649.0	1639.0	1639.0	1639.0	1681.0	1681.0	1677.0	1677.0	1677.0	1680.0	1680.0	1651.0	1651.0	1651.0	1647.0	1647.0	1653.0	1653.0	1653.0	1711.0	1711.0	1648.0	1648.0	1648.0	1701.0	1701.0	1705.0	1705.0	1705.0	1687.0	1687.0	1702.0	1702.0	1702.0	1664.0	1664.0	1685.0	1685.0	1685.0	1649.0	1649.0	1657.0	1657.0	1657.0	1639.0	1639.0	1696.0	1696.0	1696.0	1642.0	1642.0	1660.0	1660.0	1660.0	1686.0	1686.0	1636.0	1636.0	1636.0	1677.0	1677.0	1700.0	1700.0	1700.0	1686.0	1686.0	1666.0	1666.0	1666.0	1653.0	1653.0	1702.0	1702.0	1702.0	1693.0	1693.0	1691.0	1691.0	1691.0	1635.0	1635.0	1632.0	1632.0	1632.0	1682.0	1682.0	1688.0	1688.0	1688.0	1637.0	1637.0	1642.0	1642.0	1642.0	1650.0	1650.0	1693.0	1693.0	1693.0	1630.0	1630.0	1654.0	1654.0	1654.0	1693.0	1693.0	1657.0	1657.0	1657.0	1642.0	1642.0	1686.0	1686.0	1686.0	1667.0	1667.0	1646.0	1646.0	1646.0	1700.0	1700.0	1628.0	1628.0	1628.0	1690.0	1690.0	1656.0	1656.0	1643.0	1643.0	1643.0	1705.0	1705.0	1669.0	1669.0	1669.0	1681.0	1681.0	1643.0	1643.0	1643.0	1700.0	1700.0	1703.0	1703.0	1703.0	1670.0	1670.0	1657.0	1657.0	1657.0	1635.0	1635.0	1654.0	1654.0	1654.0	1686.0	1686.0	1712.0	1712.0	1712.0	1693.0	1693.0	1712.0	1712.0	1712.0	1680.0	1680.0	1664.0	1664.0	1664.0	1643.0	1643.0	1679.0	1679.0	1679.0	1696.0	1696.0	1702.0	1702.0	1702.0	1698.0	1698.0	1641.0	1641.0	1641.0	1700.0	1700.0	1648.0	1648.0	1648.0	1644.0	1644.0	1685.0	1685.0	1685.0	1658.0	1658.0	1677.0	1677.0	1677.0	1637.0	1637.0	1670.0	1670.0	1670.0	1693.0	1693.0	1637.0	1637.0	1637.0	1646.0	1646.0	1693.0	1693.0	1693.0	1670.0	1670.0	1698.0	1698.0	1698.0	1705.0	1705.0	1651.0	1651.0	1651.0	1707.0	1707.0	1718.0	1718.0	1718.0	1702.0	1702.0	1719.0	1719.0	1719.0	1761.0	1761.0	1767.0	1767.0	1767.0	1755.0	1755.0	1743.0	1743.0	1743.0	1760.0	1760.0	1818.0	1818.0	1818.0	1820.0	1820.0	1867.0	1867.0	1867.0	1858.0	1858.0	1927.0	1927.0	1927.0	1927.0	1927.0	1939.0	1939.0	1939.0	1978.0	1978.0	2011.0	2011.0	2011.0	2104.0	2104.0	2144.0	2144.0	2144.0	2106.0	2106.0	2201.0	2201.0	2201.0	2226.0	2226.0	2232.0	2232.0	2232.0	2259.0	2259.0	2328.0	2328.0	2328.0	2331.0	2331.0	2379.0	2379.0	2379.0	2418.0	2418.0	2443.0	2443.0	2443.0	2432.0	2432.0	2490.0	2490.0	2490.0	2504.0	2504.0	2575.0	2575.0	2575.0	2539.0	2539.0	2617.0	2617.0	2617.0	2659.0	2659.0	2660.0	2660.0	2660.0	2697.0	2697.0	2681.0	2681.0	2681.0	2705.0	2705.0	2720.0	2720.0	2720.0	2760.0	2760.0	2763.0	2763.0	2813.0	2813.0	2813.0	2784.0	2784.0	2776.0	2776.0	2776.0	2843.0	2843.0	2851.0	2851.0	2851.0	2857.0	2857.0	2825.0	2825.0	2825.0	2823.0	2823.0	2883.0	2883.0	2883.0	2842.0	2842.0	2867.0	2867.0	2867.0	2841.0	2841.0	2841.0	2841.0	2841.0	2872.0	2872.0	2866.0	2866.0	2866.0	2890.0	2890.0	2903.0	2903.0	2903.0	2884.0	2884.0	2892.0	2892.0	2892.0	2876.0	2876.0	2879.0	2879.0	2879.0	2836.0	2836.0	2880.0	2880.0	2880.0	2837.0	2837.0	2846.0	2846.0	2846.0	2829.0	2829.0	2874.0	2874.0	2874.0	2835.0	2835.0	2885.0	2885.0	2885.0	2812.0	2812.0	2831.0	2831.0	2831.0	2864.0	2864.0	2807.0	2807.0	2807.0	2783.0	2783.0	2836.0	2836.0	2836.0	2779.0	2779.0	2790.0	2790.0	2790.0	2810.0	2810.0	2747.0	2747.0	2747.0	2782.0	2782.0	2726.0	2726.0	2726.0	2784.0	2784.0	2782.0	2782.0	2782.0	2772.0	2772.0	2725.0	2725.0	2725.0	2724.0	2724.0	2735.0	2735.0	2735.0	2714.0	2714.0	2688.0	2688.0	2688.0	2691.0	2691.0	2670.0	2670.0	2670.0	2695.0	2695.0	2684.0	2684.0	2684.0	2697.0	2697.0	2667.0	2667.0	2667.0	2683.0	2683.0	2618.0	2618.0	2618.0	2611.0	2611.0	2594.0	2594.0	2594.0	2623.0	2623.0	2588.0	2588.0	2588.0	2612.0	2612.0	2599.0	2599.0	2599.0	2589.0	2589.0	2546.0	2546.0	2546.0	2534.0	2534.0	2544.0	2544.0	2544.0	2475.0	2475.0	2452.0	2452.0	2452.0	2455.0	2455.0	2477.0	2477.0	2477.0	2412.0	2412.0	2446.0	2446.0	2446.0	2372.0	2372.0	2418.0	2418.0	2418.0	2356.0	2356.0	2354.0	2354.0	2354.0	2340.0	2340.0	2287.0	2287.0	2287.0	2275.0	2275.0	2288.0	2288.0	2323.0	2323.0	2323.0	2232.0	2232.0	2263.0	2263.0	2263.0	2262.0	2262.0	2196.0	2196.0	2196.0	2247.0	2247.0	2230.0	2230.0	2230.0	2230.0	2230.0	2168.0	2168.0	2168.0	2153.0	2153.0	2200.0	2200.0	2200.0	2135.0	2135.0	2164.0	2164.0	2164.0	2140.0	2140.0	2160.0	2160.0	2160.0	2120.0	2120.0	2157.0	2157.0	2157.0	2093.0	2093.0	2079.0	2079.0	2079.0	2101.0	2101.0	2096.0	2096.0	2096.0	2070.0	2070.0	2130.0	2130.0	2130.0	2099.0	2099.0	2096.0	2096.0	2096.0	2076.0	2076.0	2099.0	2099.0	2099.0	2061.0	2061.0	2047.0	2047.0	2047.0	2058.0	2058.0	2071.0	2071.0	2071.0	2103.0	2103.0	2096.0	2096.0	2096.0	2056.0	2056.0	2098.0	2098.0	2098.0	2031.0	2031.0	2094.0	2094.0	2094.0	2079.0	2079.0	2093.0	2093.0	2093.0	2074.0	2074.0	2039.0	2039.0	2039.0	2032.0	2032.0	2090.0	2090.0	2090.0	2052.0	2052.0	2089.0	2089.0	2089.0	2032.0	2032.0	2034.0	2034.0	2034.0	2044.0	2044.0	2073.0	2073.0	2073.0	2082.0	2082.0	2058.0	2058.0	2058.0	2028.0	2028.0	2031.0	2031.0	2031.0	2025.0	2025.0	2062.0	2062.0	2062.0	2014.0	2014.0	2008.0	2008.0	2008.0	2065.0	2065.0	2053.0	2053.0	2053.0	1998.0	1998.0	2018.0	2018.0	2018.0	2001.0	2001.0	1990.0	1990.0	1990.0	2016.0	2016.0	1997.0	1997.0	1997.0	1985.0	1985.0	2000.0	2000.0	2000.0	1999.0	1999.0	1984.0	1984.0	1984.0	1986.0	1986.0	1964.0	1964.0	1964.0	2014.0	2014.0	1954.0	1954.0	1954.0	1955.0	1955.0	1991.0	1991.0	1991.0	1984.0	1984.0	1947.0	1947.0	1947.0	1943.0	1943.0	1928.0	1928.0	1928.0	1975.0	1975.0	1974.0	1974.0	1978.0	1978.0	1978.0	1912.0	1912.0	1917.0	1917.0	1917.0	1948.0	1948.0	1932.0	1932.0	1932.0	1890.0	1890.0	1892.0	1892.0	1892.0	1878.0	1878.0	1926.0	1926.0	1926.0	1908.0	1908.0	1906.0	1906.0	1906.0	1890.0	1890.0	1900.0	1900.0	1900.0	1856.0	1856.0	1853.0	1853.0	1853.0	1847.0	1847.0	1840.0	1840.0	1840.0	1871.0	1871.0	1871.0	1871.0	1871.0	1864.0	1864.0	1831.0	1831.0	1831.0	1854.0	1854.0	1836.0	1836.0	1836.0	1819.0	1819.0	1845.0	1845.0	1845.0	1830.0	1830.0	1813.0	1813.0	1813.0	1810.0	1810.0	1793.0	1793.0	1793.0	1793.0	1793.0	1782.0	1782.0	1782.0	1839.0	1839.0	1831.0	1831.0	1831.0	1835.0	1835.0	1774.0	1774.0	1774.0	1820.0	1820.0	1805.0	1805.0	1805.0	1819.0	1819.0	1756.0	1756.0	1756.0	1816.0	1816.0	1775.0	1775.0	1775.0	1815.0	1815.0	1767.0	1767.0	1767.0	1799.0	1799.0	1732.0	1732.0	1732.0	1753.0	1753.0	1789.0	1789.0	1789.0	1766.0	1766.0	1791.0	1791.0	1791.0	1789.0	1789.0	1732.0	1732.0	1732.0	1730.0	1730.0	1758.0	1758.0	1758.0	1760.0	1760.0	1753.0	1753.0	1753.0	1730.0	1730.0	1724.0	1724.0	1724.0	1769.0	1769.0	1715.0	1715.0	1715.0	1715.0	1715.0	1734.0	1734.0	1734.0	1718.0	1718.0	1722.0	1722.0	1722.0	1717.0	1717.0	1704.0	1704.0	1704.0	1761.0	1761.0	1724.0	1724.0	1724.0	1698.0	1698.0	1714.0	1714.0	1714.0	1715.0	1715.0	1702.0	1702.0	1702.0	1727.0	1727.0	1711.0	1711.0	1711.0	1753.0	1753.0	1724.0	1724.0	1724.0	1690.0	1690.0	1696.0	1696.0	1696.0	1703.0	1703.0	1683.0	1683.0	1683.0	1703.0	1703.0	1728.0	1728.0	1728.0	1746.0	1746.0	1740.0	1740.0	1734.0	1734.0	1734.0	1693.0	1693.0	1710.0	1710.0	1710.0	1684.0	1684.0	1706.0	1706.0	1706.0	1725.0	1725.0	1746.0	1746.0	1746.0	1722.0	1722.0	1731.0	1731.0	1731.0	1704.0	1704.0	1728.0	1728.0	1728.0	1685.0	1685.0	1727.0	1727.0	1727.0	1705.0	1705.0	1679.0	1679.0	1679.0	1734.0	1734.0	1689.0	1689.0	1689.0	1695.0	1695.0	1683.0	1683.0	1683.0	1743.0	1743.0	1722.0	1722.0	1722.0	1729.0	1729.0	1754.0	1754.0	1754.0	