1726.0	1710.0	1710.0	1710.0	1737.0	1737.0	1689.0	1689.0	1689.0	1701.0	1701.0	1709.0	1709.0	1709.0	1672.0	1672.0	1705.0	1705.0	1705.0	1670.0	1670.0	1726.0	1726.0	1726.0	1693.0	1693.0	1681.0	1681.0	1720.0	1720.0	1720.0	1710.0	1710.0	1678.0	1678.0	1678.0	1705.0	1705.0	1669.0	1669.0	1669.0	1695.0	1695.0	1719.0	1719.0	1719.0	1717.0	1717.0	1670.0	1670.0	1670.0	1697.0	1697.0	1672.0	1672.0	1672.0	1709.0	1709.0	1671.0	1671.0	1671.0	1665.0	1665.0	1702.0	1702.0	1702.0	1659.0	1659.0	1667.0	1667.0	1667.0	1679.0	1679.0	1679.0	1679.0	1679.0	1692.0	1692.0	1676.0	1676.0	1676.0	1685.0	1685.0	1679.0	1679.0	1679.0	1693.0	1693.0	1656.0	1656.0	1656.0	1723.0	1723.0	1723.0	1723.0	1723.0	1690.0	1690.0	1695.0	1695.0	1695.0	1721.0	1721.0	1674.0	1674.0	1674.0	1718.0	1718.0	1682.0	1682.0	1682.0	1670.0	1670.0	1683.0	1683.0	1683.0	1689.0	1689.0	1691.0	1691.0	1691.0	1679.0	1679.0	1683.0	1683.0	1683.0	1672.0	1672.0	1663.0	1663.0	1663.0	1693.0	1693.0	1695.0	1695.0	1695.0	1663.0	1663.0	1675.0	1675.0	1675.0	1697.0	1697.0	1674.0	1674.0	1674.0	1713.0	1713.0	1712.0	1712.0	1712.0	1717.0	1717.0	1719.0	1719.0	1719.0	1684.0	1684.0	1728.0	1728.0	1728.0	1679.0	1679.0	1687.0	1687.0	1687.0	1670.0	1670.0	1660.0	1660.0	1660.0	1695.0	1695.0	1696.0	1696.0	1696.0	1704.0	1704.0	1662.0	1662.0	1662.0	1659.0	1659.0	1687.0	1687.0	1687.0	1678.0	1678.0	1666.0	1666.0	1666.0	1686.0	1686.0	1712.0	1712.0	1712.0	1683.0	1683.0	1680.0	1680.0	1680.0	1687.0	1687.0	1660.0	1660.0	1660.0	1723.0	1723.0	1737.0	1737.0	1737.0	1714.0	1714.0	1749.0	1749.0	1749.0	1700.0	1700.0	1748.0	1748.0	1748.0	1738.0	1738.0	1735.0	1735.0	1735.0	1753.0	1753.0	1787.0	1787.0	1787.0	1847.0	1847.0	1803.0	1803.0	1885.0	1885.0	1885.0	1882.0	1882.0	1917.0	1917.0	1917.0	1938.0	1938.0	1963.0	1963.0	1963.0	2016.0	2016.0	2001.0	2001.0	2001.0	2064.0	2064.0	2062.0	2062.0	2062.0	2125.0	2125.0	2131.0	2131.0	2131.0	2167.0	2167.0	2199.0	2199.0	2199.0	2223.0	2223.0	2261.0	2261.0	2261.0	2271.0	2271.0	2320.0	2320.0	2320.0	2382.0	2382.0	2395.0	2395.0	2395.0	2415.0	2415.0	2404.0	2404.0	2404.0	2442.0	2442.0	2497.0	2497.0	2497.0	2531.0	2531.0	2501.0	2501.0	2501.0	2529.0	2529.0	2586.0	2586.0	2586.0	2587.0	2587.0	2616.0	2616.0	2616.0	2592.0	2592.0	2653.0	2653.0	2653.0	2621.0	2621.0	2683.0	2683.0	2683.0	2695.0	2695.0	2663.0	2663.0	2663.0	2677.0	2677.0	2689.0	2689.0	2689.0	2690.0	2690.0	2736.0	2736.0	2736.0	2707.0	2707.0	2701.0	2701.0	2701.0	2750.0	2750.0	2748.0	2748.0	2748.0	2755.0	2755.0	2774.0	2774.0	2774.0	2775.0	2775.0	2768.0	2768.0	2768.0	2752.0	2752.0	2715.0	2715.0	2715.0	2745.0	2745.0	2767.0	2767.0	2767.0	2775.0	2775.0	2718.0	2718.0	2718.0	2731.0	2731.0	2756.0	2756.0	2756.0	2770.0	2770.0	2734.0	2734.0	2734.0	2717.0	2717.0	2727.0	2727.0	2727.0	2721.0	2721.0	2762.0	2762.0	2762.0	2729.0	2729.0	2738.0	2738.0	2738.0	2750.0	2750.0	2731.0	2731.0	2731.0	2682.0	2682.0	2723.0	2723.0	2723.0	2724.0	2724.0	2693.0	2693.0	2693.0	2648.0	2648.0	2676.0	2676.0	2676.0	2713.0	2713.0	2650.0	2650.0	2650.0	2632.0	2632.0	2627.0	2627.0	2627.0	2641.0	2641.0	2663.0	2663.0	2663.0	2637.0	2637.0	2619.0	2619.0	2619.0	2655.0	2655.0	2590.0	2590.0	2600.0	2600.0	2600.0	2576.0	2576.0	2601.0	2601.0	2601.0	2589.0	2589.0	2585.0	2585.0	2585.0	2606.0	2606.0	2535.0	2535.0	2535.0	2575.0	2575.0	2548.0	2548.0	2548.0	2511.0	2511.0	2552.0	2552.0	2552.0	2544.0	2544.0	2532.0	2532.0	2532.0	2521.0	2521.0	2472.0	2472.0	2472.0	2497.0	2497.0	2480.0	2480.0	2480.0	2446.0	2446.0	2438.0	2438.0	2438.0	2465.0	2465.0	2418.0	2418.0	2418.0	2423.0	2423.0	2372.0	2372.0	2372.0	2384.0	2384.0	2363.0	2363.0	2363.0	2330.0	2330.0	2368.0	2368.0	2368.0	2307.0	2307.0	2277.0	2277.0	2277.0	2331.0	2331.0	2313.0	2313.0	2313.0	2253.0	2253.0	2257.0	2257.0	2257.0	2256.0	2256.0	2209.0	2209.0	2209.0	2204.0	2204.0	2215.0	2215.0	2215.0	2172.0	2172.0	2203.0	2203.0	2203.0	2142.0	2142.0	2196.0	2196.0	2196.0	2182.0	2182.0	2119.0	2119.0	2119.0	2161.0	2161.0	2096.0	2096.0	2096.0	2077.0	2077.0	2127.0	2127.0	2127.0	2116.0	2116.0	2124.0	2124.0	2124.0	2056.0	2056.0	2070.0	2070.0	2070.0	2053.0	2053.0	2048.0	2048.0	2048.0	2074.0	2074.0	2056.0	2056.0	2056.0	2027.0	2027.0	2070.0	2070.0	2070.0	2039.0	2039.0	2038.0	2038.0	2038.0	2013.0	2013.0	2018.0	2018.0	2018.0	2001.0	2001.0	2004.0	2004.0	2004.0	2015.0	2015.0	2016.0	2016.0	2016.0	2002.0	2002.0	2048.0	2048.0	2048.0	2018.0	2018.0	2054.0	2054.0	2054.0	2047.0	2047.0	2036.0	2036.0	2036.0	2041.0	2041.0	2001.0	2001.0	2001.0	2019.0	2019.0	2040.0	2040.0	2040.0	2011.0	2011.0	2022.0	2022.0	2022.0	2017.0	2017.0	2042.0	2042.0	2042.0	2043.0	2043.0	2002.0	2002.0	2037.0	2037.0	2037.0	2004.0	2004.0	1993.0	1993.0	1993.0	2030.0	2030.0	2011.0	2011.0	2011.0	1976.0	1976.0	1969.0	1969.0	1969.0	2043.0	2043.0	2014.0	2014.0	2014.0	1983.0	1983.0	1974.0	1974.0	1974.0	2010.0	2010.0	1990.0	1990.0	1990.0	1964.0	1964.0	1967.0	1967.0	1967.0	1967.0	1967.0	1977.0	1977.0	1977.0	2002.0	2002.0	2002.0	2002.0	2002.0	1978.0	1978.0	1968.0	1968.0	1968.0	1985.0	1985.0	1930.0	1930.0	1930.0	1929.0	1929.0	1953.0	1953.0	1953.0	1928.0	1928.0	1941.0	1941.0	1941.0	1954.0	1954.0	1953.0	1953.0	1953.0	1952.0	1952.0	1902.0	1902.0	1902.0	1900.0	1900.0	1894.0	1894.0	1894.0	1895.0	1895.0	1943.0	1943.0	1943.0	1896.0	1896.0	1912.0	1912.0	1912.0	1906.0	1906.0	1921.0	1921.0	1921.0	1871.0	1871.0	1861.0	1861.0	1861.0	1900.0	1900.0	1888.0	1888.0	1888.0	1858.0	1858.0	1894.0	1894.0	1894.0	1906.0	1906.0	1876.0	1876.0	1876.0	1888.0	1888.0	1850.0	1850.0	1850.0	1867.0	1867.0	1819.0	1819.0	1819.0	1821.0	1821.0	1831.0	1831.0	1831.0	1806.0	1806.0	1848.0	1848.0	1848.0	1803.0	1803.0	1845.0	1845.0	1845.0	1853.0	1853.0	1807.0	1807.0	1807.0	1833.0	1833.0	1801.0	1801.0	1801.0	1816.0	1816.0	1774.0	1774.0	1774.0	1772.0	1772.0	1812.0	1812.0	1812.0	1782.0	1782.0	1796.0	1796.0	1796.0	1753.0	1753.0	1755.0	1755.0	1755.0	1777.0	1777.0	1797.0	1797.0	1797.0	1741.0	1741.0	1751.0	1751.0	1751.0	1762.0	1762.0	1760.0	1760.0	1760.0	1742.0	1742.0	1770.0	1770.0	1770.0	1745.0	1745.0	1735.0	1735.0	1735.0	1785.0	1785.0	1725.0	1725.0	1725.0	1768.0	1768.0	1771.0	1771.0	1766.0	1766.0	1766.0	1739.0	1739.0	1777.0	1777.0	1777.0	1728.0	1728.0	1760.0	1760.0	1760.0	1742.0	1742.0	1705.0	1705.0	1705.0	1756.0	1756.0	1719.0	1719.0	1719.0	1709.0	1709.0	1745.0	1745.0	1745.0	1705.0	1705.0	1698.0	1698.0	1698.0	1701.0	1701.0	1684.0	1684.0	1684.0	1741.0	1741.0	1735.0	1735.0	1735.0	1732.0	1732.0	1735.0	1735.0	1735.0	1732.0	1732.0	1733.0	1733.0	1733.0	1716.0	1716.0	1737.0	1737.0	1737.0	1730.0	1730.0	1731.0	1731.0	1731.0	1706.0	1706.0	1710.0	1710.0	1710.0	1691.0	1691.0	1747.0	1747.0	1747.0	1686.0	1686.0	1735.0	1735.0	1735.0	1747.0	1747.0	1682.0	1682.0	1682.0	1702.0	1702.0	1688.0	1688.0	1688.0	1736.0	1736.0	1683.0	1683.0	1683.0	1683.0	1683.0	1739.0	1739.0	1739.0	1665.0	1665.0	1667.0	1667.0	1667.0	1715.0	1715.0	1715.0	1715.0	1715.0	1721.0	1721.0	1674.0	1674.0	1674.0	1661.0	1661.0	1668.0	1668.0	1668.0	1676.0	1676.0	1678.0	1678.0	1678.0	1726.0	1726.0	1701.0	1701.0	1701.0	1663.0	1663.0	1672.0	1672.0	1672.0	1666.0	1666.0	1715.0	1715.0	1715.0	1665.0	1665.0	1721.0	1721.0	1721.0	1727.0	1727.0	1666.0	1666.0	1666.0	1703.0	1703.0	1713.0	1713.0	1713.0	1709.0	1709.0	1710.0	1710.0	1710.0	1717.0	1717.0	1691.0	1691.0	1691.0	1686.0	1686.0	1660.0	1660.0	1660.0	1693.0	1693.0	1705.0	1705.0	1705.0	1673.0	1673.0	1670.0	1670.0	1670.0	1680.0	1680.0	1714.0	1714.0	1714.0	1719.0	1719.0	1688.0	1688.0	1688.0	1672.0	1672.0	1720.0	1720.0	1720.0	1714.0	1714.0	1683.0	1683.0	1683.0	1658.0	1658.0	1728.0	1728.0	1709.0	1709.0	1709.0	1722.0	1722.0	1698.0	1698.0	1698.0	1713.0	1713.0	1723.0	1723.0	1723.0	1677.0	1677.0	1724.0	1724.0	1724.0	1682.0	1682.0	1721.0	1721.0	1721.0	1734.0	1734.0	1716.0	1716.0	1716.0	1668.0	1668.0	1724.0	1724.0	1724.0	1669.0	1669.0	1684.0	1684.0	1684.0	1666.0	1666.0	1689.0	1689.0	1689.0	1718.0	1718.0	1700.0	1700.0	1700.0	1683.0	1683.0	1711.0	1711.0	1711.0	1659.0	1659.0	1672.0	1672.0	1672.0	1705.0	1705.0	1711.0	1711.0	1711.0	1653.0	1653.0	1695.0	1695.0	1695.0	1694.0	1694.0	1688.0	1688.0	1688.0	1727.0	1727.0	1691.0	1691.0	1691.0	1751.0	1751.0	1703.0	1703.0	1703.0	1700.0	1700.0	1703.0	1703.0	1703.0	1740.0	1740.0	1728.0	1728.0	1728.0	1754.0	1754.0	1758.0	1758.0	1758.0	1837.0	1837.0	1811.0	1811.0	1811.0	1871.0	1871.0	1853.0	1853.0	1853.0	1894.0	1894.0	1922.0	1922.0	1922.0	1962.0	1962.0	1951.0	1951.0	1951.0	2031.0	2031.0	2042.0	2042.0	2042.0	2044.0	2044.0	2092.0	2092.0	2092.0	2148.0	2148.0	2171.0	2171.0	2171.0	2186.0	2186.0	2200.0	2200.0	2200.0	2237.0	2237.0	2286.0	2286.0	2286.0	2309.0	2309.0	2356.0	2356.0	2356.0	2339.0	2339.0	2383.0	2383.0	2383.0	2457.0	2457.0	2417.0	2417.0	2417.0	2484.0	2484.0	2499.0	2499.0	2499.0	2477.0	2477.0	2510.0	2510.0	2510.0	2598.0	2598.0	2604.0	2604.0	2604.0	2596.0	2596.0	2596.0	2596.0	2596.0	2605.0	2605.0	2599.0	2599.0	2599.0	2676.0	2676.0	2660.0	2660.0	2660.0	2678.0	2678.0	2679.0	2679.0	2679.0	2702.0	2702.0	2673.0	2673.0	2673.0	2717.0	2717.0	2705.0	2705.0	2705.0	2744.0	2744.0	2737.0	2737.0	2727.0	2727.0	2727.0	2732.0	2732.0	2717.0	2717.0	2717.0	2747.0	2747.0	2731.0	2731.0	2731.0	2775.0	2775.0	2736.0	2736.0	2736.0	2714.0	2714.0	2757.0	2757.0	2757.0	2777.0	2777.0	2737.0	2737.0	2737.0	2763.0	2763.0	2725.0	2725.0	2725.0	2715.0	2715.0	2768.0	2768.0	2768.0	2708.0	2708.0	2769.0	2769.0	2769.0	2710.0	2710.0	2740.0	2740.0	2740.0	2688.0	2688.0	2730.0	2730.0	2730.0	2687.0	2687.0	2736.0	2736.0	2736.0	2704.0	2704.0	2731.0	2731.0	2731.0	2657.0	2657.0	2707.0	2707.0	2707.0	2707.0	2707.0	2674.0	2674.0	2674.0	2700.0	2700.0	2676.0	2676.0	2676.0	2637.0	2637.0	2646.0	2646.0	2646.0	2635.0	2635.0	2660.0	2660.0	2660.0	2648.0	2648.0	2625.0	2625.0	2625.0	2636.0	2636.0	2647.0	2647.0	2647.0	2633.0	2633.0	2627.0	2627.0	2627.0	2569.0	2569.0	2589.0	2589.0	2589.0	2567.0	2567.0	2563.0	2563.0	2563.0	2581.0	2581.0	2542.0	2542.0	2542.0	2532.0	2532.0	2559.0	2559.0	2559.0	2524.0	2524.0	2545.0	2545.0	2545.0	2541.0	2541.0	2488.0	2488.0	2488.0	2515.0	2515.0	2493.0	2493.0	2493.0	2457.0	2457.0	2481.0	2481.0	2481.0	2474.0	2474.0	2473.0	2473.0	2473.0	2471.0	2471.0	2426.0	2426.0	2426.0	2396.0	2396.0	2417.0	2417.0	2417.0	2415.0	2415.0	2359.0	2359.0	2359.0	2337.0	2337.0	2314.0	2314.0	2314.0	2319.0	2319.0	2339.0	2339.0	2339.0	2319.0	2319.0	2309.0	2309.0	2309.0	2252.0	2252.0	2280.0	2280.0	2280.0	2212.0	2212.0	2216.0	2216.0	2216.0	2233.0	2233.0	2179.0	2179.0	2179.0	2196.0	2196.0	2152.0	2152.0	2152.0	2144.0	2144.0	2157.0	2157.0	2111.0	2111.0	2111.0	2140.0	2140.0	2100.0	2100.0	2100.0	2141.0	2141.0	2087.0	2087.0	2087.0	2123.0	2123.0	2093.0	2093.0	2093.0	2111.0	2111.0	2086.0	2086.0	2086.0	2053.0	2053.0	2048.0	2048.0	2048.0	2038.0	2038.0	2035.0	2035.0	2035.0	2031.0	2031.0	2034.0	2034.0	2034.0	2058.0	2058.0	2059.0	2059.0	2059.0	2008.0	2008.0	2010.0	2010.0	2010.0	2058.0	2058.0	2011.0	2011.0	2011.0	2045.0	2045.0	2027.0	2027.0	2027.0	2046.0	2046.0	2045.0	2045.0	2045.0	2054.0	2054.0	2041.0	2041.0	2041.0	2049.0	2049.0	2011.0	2011.0	2011.0	2044.0	2044.0	2030.0	2030.0	2030.0	2021.0	2021.0	1995.0	1995.0	1995.0	2012.0	2012.0	2019.0	2019.0	2019.0	2050.0	2050.0	1981.0	1981.0	1981.0	1993.0	1993.0	2018.0	2018.0	2018.0	2016.0	2016.0	1996.0	1996.0	1996.0	2041.0	2041.0	2010.0	2010.0	2010.0	2025.0	2025.0	1975.0	1975.0	1975.0	2035.0	2035.0	1966.0	1966.0	1966.0	1974.0	1974.0	1959.0	1959.0	1959.0	1977.0	1977.0	2025.0	2025.0	2025.0	2027.0	2027.0	2026.0	2026.0	2026.0	2012.0	2012.0	2005.0	2005.0	2005.0	1954.0	1954.0	2009.0	2009.0	2009.0	1990.0	1990.0	2008.0	2008.0	2008.0	1950.0	1950.0	1925.0	1925.0	1925.0	1992.0	1992.0	1922.0	1922.0	1922.0	1984.0	1984.0	1922.0	1922.0	1922.0	1919.0	1919.0	1962.0	1962.0	1962.0	1912.0	1912.0	1912.0	1912.0	1912.0	1922.0	1922.0	1957.0	1957.0	1957.0	1924.0	1924.0	1925.0	1925.0	1925.0	1929.0	1929.0	1954.0	1954.0	1954.0	1913.0	1913.0	1876.0	1876.0	1876.0	1919.0	1919.0	1885.0	1885.0	1885.0	1913.0	1913.0	1897.0	1897.0	1894.0	1894.0	1894.0	1858.0	1858.0	1890.0	1890.0	1890.0	1855.0	1855.0	1841.0	1841.0	1841.0	1865.0	1865.0	1890.0	1890.0	1890.0	1890.0	1890.0	1870.0	1870.0	1870.0	1872.0	1872.0	1885.0	1885.0	1885.0	1838.0	1838.0	1852.0	1852.0	1852.0	1841.0	1841.0	1858.0	1858.0	1858.0	1838.0	1838.0	1844.0	1844.0	1844.0	1794.0	1794.0	1794.0	1794.0	1794.0	1788.0	1788.0	1811.0	1811.0	1811.0	1825.0	1825.0	1826.0	1826.0	1826.0	1769.0	1769.0	1775.0	1775.0	1775.0	1818.0	1818.0	1814.0	1814.0	1814.0	1796.0	1796.0	1802.0	1802.0	1802.0	1802.0	1802.0	1767.0	1767.0	1767.0	1792.0	1792.0	1770.0	1770.0	1770.0	1795.0	1795.0	1784.0	1784.0	1784.0	1736.0	1736.0	1736.0	1736.0	1736.0	1730.0	1730.0	1747.0	1747.0	1747.0	1760.0	1760.0	1775.0	1775.0	1775.0	1773.0	1773.0	1759.0	1759.0	1759.0	1756.0	1756.0	1764.0	1764.0	1764.0	1763.0	1763.0	1708.0	1708.0	1708.0	1727.0	1727.0	1742.0	1742.0	1742.0	1718.0	1718.0	1750.0	1750.0	1750.0	1758.0	1758.0	1687.0	1687.0	1687.0	1732.0	1732.0	1759.0	1759.0	1759.0	1718.0	1718.0	1742.0	1742.0	1742.0	1687.0	1687.0	1715.0	1715.0	1715.0	1701.0	1701.0	1746.0	1746.0	1746.0	1684.0	1684.0	1743.0	1743.0	1743.0	1737.0	1737.0	1719.0	1719.0	1719.0	1745.0	1745.0	1679.0	1679.0	1679.0	1706.0	1706.0	1716.0	1716.0	1716.0	1673.0	1673.0	1722.0	1722.0	1722.0	1678.0	1678.0	1676.0	1676.0	1676.0	1686.0	1686.0	1729.0	1729.0	1729.0	1676.0	1676.0	1699.0	1699.0	1699.0	1745.0	1745.0	1716.0	1716.0	1716.0	1671.0	1671.0	1728.0	1728.0	1728.0	1689.0	1689.0	1671.0	1671.0	1711.0	1711.0	1711.0	1725.0	1725.0	1679.0	1679.0	1679.0	1664.0	1664.0	1715.0	1715.0	1715.0	1686.0	1686.0	1694.0	1694.0	1694.0	1665.0	1665.0	1720.0	1720.0	1720.0	1701.0	1701.0	1665.0	1665.0	1665.0	1664.0	1664.0	1702.0	1702.0	1702.0	1669.0	1669.0	1713.0	1713.0	1713.0	1671.0	1671.0	1735.0	1735.0	1735.0	1678.0	1678.0	1668.0	1668.0	1668.0	1691.0	1691.0	1734.0	1734.0	1734.0	1704.0	1704.0	1688.0	1688.0	1688.0	1673.0	1673.0	1680.0	1680.0	1680.0	1697.0	1697.0	1703.0	1703.0	1703.0	1683.0	1683.0	1700.0	1700.0	1700.0	1721.0	1721.0	1680.0	1680.0	1680.0	1740.0	1740.0	1679.0	1679.0	1679.0	1693.0	1693.0	1702.0	1702.0	1702.0	1738.0	1738.0	1681.0	1681.0	1681.0	1701.0	1701.0	1731.0	1731.0	1731.0	1694.0	1694.0	1698.0	1698.0	1698.0	1719.0	1719.0	1715.0	1715.0	1715.0	1723.0	1723.0	1691.0	1691.0	1691.0	1713.0	1713.0	1681.0	1681.0	1681.0	1722.0	1722.0	1723.0	1723.0	1723.0	1678.0	1678.0	1697.0	1697.0	1697.0	1719.0	1719.0	1715.0	1715.0	1715.0	1715.0	1715.0	1717.0	1717.0	1717.0	1724.0	1724.0	1731.0	1731.0	1731.0	1667.0	1667.0	1706.0	1706.0	1706.0	1723.0	1723.0	1697.0	1697.0	1697.0	1658.0	1658.0	1714.0	1714.0	1714.0	1664.0	1664.0	1699.0	1699.0	1699.0	1720.0	1720.0	1659.0	1659.0	1659.0	1668.0	1668.0	1704.0	1704.0	1704.0	1702.0	1702.0	1723.0	1723.0	1723.0	1722.0	1722.0	1719.0	1719.0	1719.0	1704.0	1704.0	1746.0	1746.0	1746.0	1779.0	1779.0	1743.0	1743.0	1743.0	1753.0	1753.0	1806.0	1806.0	1806.0	1838.0	1838.0	1813.0	1813.0	1874.0	1874.0	1874.0	1869.0	1869.0	1858.0	1858.0	1858.0	1896.0	1896.0	1967.0	1967.0	1967.0	2009.0	2009.0	2011.0	2011.0	2011.0	2019.0	2019.0	2047.0	2047.0	2047.0	2131.0	2131.0	2165.0	2165.0	2165.0	2194.0	2194.0	2206.0	2206.0	