2426.0	2426.0	2426.0	2439.0	2439.0	2401.0	2401.0	2401.0	2396.0	2396.0	2402.0	2402.0	2402.0	2409.0	2409.0	2387.0	2387.0	2387.0	2373.0	2373.0	2354.0	2354.0	2354.0	2390.0	2390.0	2366.0	2366.0	2366.0	2350.0	2350.0	2348.0	2348.0	2348.0	2301.0	2301.0	2337.0	2337.0	2337.0	2305.0	2305.0	2271.0	2271.0	2271.0	2303.0	2303.0	2256.0	2256.0	2256.0	2243.0	2243.0	2279.0	2279.0	2279.0	2235.0	2235.0	2249.0	2249.0	2249.0	2253.0	2253.0	2226.0	2226.0	2226.0	2200.0	2200.0	2172.0	2172.0	2172.0	2199.0	2199.0	2172.0	2172.0	2172.0	2178.0	2178.0	2147.0	2147.0	2147.0	2140.0	2140.0	2091.0	2091.0	2091.0	2107.0	2107.0	2098.0	2098.0	2098.0	2109.0	2109.0	2103.0	2103.0	2103.0	2057.0	2057.0	2079.0	2079.0	2079.0	2071.0	2071.0	2053.0	2053.0	2053.0	2022.0	2022.0	1991.0	1991.0	1991.0	1979.0	1979.0	1970.0	1970.0	1970.0	1998.0	1998.0	1978.0	1978.0	1978.0	1966.0	1966.0	1982.0	1982.0	1982.0	1959.0	1959.0	1959.0	1959.0	1959.0	1931.0	1931.0	1918.0	1918.0	1918.0	1951.0	1951.0	1932.0	1932.0	1932.0	1896.0	1896.0	1920.0	1920.0	1920.0	1926.0	1926.0	1931.0	1931.0	1931.0	1915.0	1915.0	1899.0	1899.0	1899.0	1918.0	1918.0	1893.0	1893.0	1893.0	1865.0	1865.0	1911.0	1911.0	1910.0	1910.0	1910.0	1850.0	1850.0	1895.0	1895.0	1895.0	1870.0	1870.0	1838.0	1838.0	1838.0	1873.0	1873.0	1865.0	1865.0	1865.0	1887.0	1887.0	1836.0	1836.0	1836.0	1837.0	1837.0	1835.0	1835.0	1835.0	1826.0	1826.0	1823.0	1823.0	1823.0	1835.0	1835.0	1811.0	1811.0	1811.0	1831.0	1831.0	1855.0	1855.0	1855.0	1801.0	1801.0	1801.0	1801.0	1801.0	1819.0	1819.0	1844.0	1844.0	1844.0	1797.0	1797.0	1800.0	1800.0	1800.0	1807.0	1807.0	1789.0	1789.0	1789.0	1824.0	1824.0	1804.0	1804.0	1804.0	1809.0	1809.0	1794.0	1794.0	1794.0	1800.0	1800.0	1792.0	1792.0	1792.0	1782.0	1782.0	1818.0	1818.0	1818.0	1801.0	1801.0	1771.0	1771.0	1771.0	1772.0	1772.0	1762.0	1762.0	1762.0	1779.0	1779.0	1798.0	1798.0	1798.0	1762.0	1762.0	1784.0	1784.0	1784.0	1773.0	1773.0	1753.0	1753.0	1753.0	1793.0	1793.0	1765.0	1765.0	1765.0	1754.0	1754.0	1776.0	1776.0	1776.0	1779.0	1779.0	1734.0	1734.0	1734.0	1731.0	1731.0	1732.0	1732.0	1732.0	1733.0	1733.0	1731.0	1731.0	1731.0	1781.0	1781.0	1719.0	1719.0	1719.0	1722.0	1722.0	1762.0	1762.0	1762.0	1730.0	1730.0	1724.0	1724.0	1724.0	1709.0	1709.0	1743.0	1743.0	1743.0	1748.0	1748.0	1745.0	1745.0	1745.0	1747.0	1747.0	1740.0	1740.0	1740.0	1746.0	1746.0	1732.0	1732.0	1732.0	1735.0	1735.0	1699.0	1699.0	1699.0	1693.0	1693.0	1743.0	1743.0	1743.0	1729.0	1729.0	1692.0	1692.0	1692.0	1689.0	1689.0	1697.0	1697.0	1697.0	1724.0	1724.0	1689.0	1689.0	1689.0	1704.0	1704.0	1734.0	1734.0	1734.0	1689.0	1689.0	1690.0	1690.0	1690.0	1686.0	1686.0	1701.0	1701.0	1707.0	1707.0	1707.0	1679.0	1679.0	1685.0	1685.0	1685.0	1670.0	1670.0	1712.0	1712.0	1712.0	1685.0	1685.0	1711.0	1711.0	1711.0	1730.0	1730.0	1709.0	1709.0	1709.0	1686.0	1686.0	1708.0	1708.0	1708.0	1691.0	1691.0	1710.0	1710.0	1710.0	1730.0	1730.0	1701.0	1701.0	1701.0	1674.0	1674.0	1697.0	1697.0	1697.0	1727.0	1727.0	1712.0	1712.0	1712.0	1725.0	1725.0	1739.0	1739.0	1739.0	1755.0	1755.0	1740.0	1740.0	1740.0	1753.0	1753.0	1795.0	1795.0	1795.0	1832.0	1832.0	1813.0	1813.0	1813.0	1840.0	1840.0	1908.0	1908.0	1908.0	1942.0	1942.0	1936.0	1936.0	1936.0	1990.0	1990.0	2043.0	2043.0	2043.0	2031.0	2031.0	2101.0	2101.0	2101.0	2084.0	2084.0	2129.0	2129.0	2129.0	2191.0	2191.0	2202.0	2202.0	2202.0	2207.0	2207.0	2237.0	2237.0	2237.0	2255.0	2255.0	2303.0	2303.0	2303.0	2299.0	2299.0	2326.0	2326.0	2326.0	2394.0	2394.0	2380.0	2380.0	2380.0	2398.0	2398.0	2423.0	2423.0	2423.0	2420.0	2420.0	2445.0	2445.0	2445.0	2453.0	2453.0	2473.0	2473.0	2473.0	2457.0	2457.0	2502.0	2502.0	2502.0	2501.0	2501.0	2495.0	2495.0	2495.0	2492.0	2492.0	2540.0	2540.0	2540.0	2531.0	2531.0	2491.0	2491.0	2491.0	2533.0	2533.0	2506.0	2506.0	2506.0	2518.0	2518.0	2518.0	2518.0	2518.0	2496.0	2496.0	2510.0	2510.0	2510.0	2507.0	2507.0	2553.0	2553.0	2553.0	2536.0	2536.0	2553.0	2553.0	2553.0	2503.0	2503.0	2538.0	2538.0	2538.0	2530.0	2530.0	2537.0	2537.0	2537.0	2476.0	2476.0	2482.0	2482.0	2482.0	2477.0	2477.0	2483.0	2483.0	2483.0	2475.0	2475.0	2475.0	2475.0	2477.0	2477.0	2477.0	2470.0	2470.0	2443.0	2443.0	2443.0	2463.0	2463.0	2473.0	2473.0	2473.0	2443.0	2443.0	2461.0	2461.0	2461.0	2437.0	2437.0	2422.0	2422.0	2422.0	2433.0	2433.0	2433.0	2433.0	2433.0	2423.0	2423.0	2435.0	2435.0	2435.0	2389.0	2389.0	2363.0	2363.0	2363.0	2352.0	2352.0	2346.0	2346.0	2346.0	2370.0	2370.0	2350.0	2350.0	2350.0	2385.0	2385.0	2371.0	2371.0	2371.0	2359.0	2359.0	2329.0	2329.0	2329.0	2282.0	2282.0	2314.0	2314.0	2314.0	2287.0	2287.0	2310.0	2310.0	2310.0	2271.0	2271.0	2263.0	2263.0	2263.0	2258.0	2258.0	2230.0	2230.0	2230.0	2207.0	2207.0	2219.0	2219.0	2219.0	2198.0	2198.0	2176.0	2176.0	2176.0	2216.0	2216.0	2186.0	2186.0	2186.0	2151.0	2151.0	2139.0	2139.0	2139.0	2140.0	2140.0	2115.0	2115.0	2115.0	2114.0	2114.0	2136.0	2136.0	2136.0	2084.0	2084.0	2102.0	2102.0	2102.0	2060.0	2060.0	2029.0	2029.0	2029.0	2026.0	2026.0	2056.0	2056.0	2056.0	2017.0	2017.0	2062.0	2062.0	2062.0	2010.0	2010.0	2031.0	2031.0	2031.0	2013.0	2013.0	1992.0	1992.0	1992.0	1972.0	1972.0	1977.0	1977.0	1977.0	1990.0	1990.0	1967.0	1967.0	1967.0	1951.0	1951.0	1935.0	1935.0	1935.0	1954.0	1954.0	1966.0	1966.0	1966.0	1942.0	1942.0	1949.0	1949.0	1949.0	1916.0	1916.0	1924.0	1924.0	1924.0	1894.0	1894.0	1916.0	1916.0	1916.0	1908.0	1908.0	1868.0	1868.0	1868.0	1888.0	1888.0	1858.0	1858.0	1858.0	1865.0	1865.0	1911.0	1911.0	1911.0	1853.0	1853.0	1858.0	1858.0	1858.0	1857.0	1857.0	1855.0	1855.0	1855.0	1840.0	1840.0	1861.0	1861.0	1861.0	1870.0	1870.0	1859.0	1859.0	1877.0	1877.0	1877.0	1855.0	1855.0	1848.0	1848.0	1848.0	1814.0	1814.0	1817.0	1817.0	1817.0	1805.0	1805.0	1829.0	1829.0	1829.0	1815.0	1815.0	1851.0	1851.0	1851.0	1824.0	1824.0	1834.0	1834.0	1834.0	1845.0	1845.0	1800.0	1800.0	1800.0	1786.0	1786.0	1809.0	1809.0	1809.0	1795.0	1795.0	1842.0	1842.0	1842.0	1787.0	1787.0	1789.0	1789.0	1789.0	1787.0	1787.0	1840.0	1840.0	1840.0	1786.0	1786.0	1811.0	1811.0	1811.0	1768.0	1768.0	1756.0	1756.0	1756.0	1769.0	1769.0	1814.0	1814.0	1814.0	1771.0	1771.0	1789.0	1789.0	1789.0	1783.0	1783.0	1749.0	1749.0	1749.0	1802.0	1802.0	1809.0	1809.0	1809.0	1773.0	1773.0	1788.0	1788.0	1788.0	1747.0	1747.0	1742.0	1742.0	1742.0	1775.0	1775.0	1727.0	1727.0	1727.0	1751.0	1751.0	1773.0	1773.0	1773.0	1769.0	1769.0	1768.0	1768.0	1768.0	1734.0	1734.0	1728.0	1728.0	1728.0	1724.0	1724.0	1758.0	1758.0	1758.0	1774.0	1774.0	1747.0	1747.0	1747.0	1713.0	1713.0	1718.0	1718.0	1718.0	1752.0	1752.0	1745.0	1745.0	1745.0	1706.0	1706.0	1705.0	1705.0	1705.0	1758.0	1758.0	1711.0	1711.0	1711.0	1736.0	1736.0	1755.0	1755.0	1755.0	1743.0	1743.0	1713.0	1713.0	1713.0	1748.0	1748.0	1697.0	1697.0	1697.0	1695.0	1695.0	1720.0	1720.0	1720.0	1699.0	1699.0	1702.0	1702.0	1702.0	1676.0	1676.0	1702.0	1702.0	1702.0	1688.0	1688.0	1713.0	1713.0	1713.0	1681.0	1681.0	1694.0	1694.0	1694.0	1679.0	1679.0	1701.0	1701.0	1701.0	1725.0	1725.0	1676.0	1676.0	1676.0	1712.0	1712.0	1684.0	1684.0	1684.0	1692.0	1692.0	1714.0	1714.0	1675.0	1675.0	1675.0	1679.0	1679.0	1728.0	1728.0	1728.0	1708.0	1708.0	1660.0	1660.0	1660.0	1723.0	1723.0	1732.0	1732.0	1732.0	1726.0	1726.0	1709.0	1709.0	1709.0	1676.0	1676.0	1694.0	1694.0	1694.0	1708.0	1708.0	1713.0	1713.0	1713.0	1733.0	1733.0	1764.0	1764.0	1764.0	1765.0	1765.0	1781.0	1781.0	1781.0	1740.0	1740.0	1786.0	1786.0	1786.0	1832.0	1832.0	1832.0	1832.0	1832.0	1887.0	1887.0	1868.0	1868.0	1868.0	1962.0	1962.0	1971.0	1971.0	1971.0	2006.0	2006.0	2012.0	2012.0	2012.0	2041.0	2041.0	2065.0	2065.0	2065.0	2118.0	2118.0	2166.0	2166.0	2166.0	2161.0	2161.0	2194.0	2194.0	2194.0	2224.0	2224.0	2254.0	2254.0	2254.0	2272.0	2272.0	2336.0	2336.0	2336.0	2333.0	2333.0	2358.0	2358.0	2358.0	2351.0	2351.0	2402.0	2402.0	2402.0	2377.0	2377.0	2409.0	2409.0	2409.0	2436.0	2436.0	2469.0	2469.0	2469.0	2477.0	2477.0	2475.0	2475.0	2475.0	2490.0	2490.0	2474.0	2474.0	2474.0	2490.0	2490.0	2530.0	2530.0	2530.0	2532.0	2532.0	2478.0	2478.0	2478.0	2523.0	2523.0	2536.0	2536.0	2536.0	2528.0	2528.0	2514.0	2514.0	2514.0	2512.0	2512.0	2525.0	2525.0	2525.0	2539.0	2539.0	2512.0	2512.0	2512.0	2494.0	2494.0	2541.0	2541.0	2541.0	2496.0	2496.0	2500.0	2500.0	2500.0	2539.0	2539.0	2492.0	2492.0	2492.0	2532.0	2532.0	2488.0	2488.0	2488.0	2521.0	2521.0	2496.0	2496.0	2496.0	2496.0	2496.0	2461.0	2461.0	2461.0	2487.0	2487.0	2467.0	2467.0	2467.0	2454.0	2454.0	2478.0	2478.0	2478.0	2446.0	2446.0	2466.0	2466.0	2466.0	2434.0	2434.0	2431.0	2431.0	2472.0	2472.0	2472.0	2418.0	2418.0	2437.0	2437.0	2437.0	2439.0	2439.0	2403.0	2403.0	2403.0	2436.0	2436.0	2425.0	2425.0	2425.0	2385.0	2385.0	2384.0	2384.0	2384.0	2363.0	2363.0	2371.0	2371.0	2371.0	2397.0	2397.0	2349.0	2349.0	2349.0	2343.0	2343.0	2323.0	2323.0	2323.0	2356.0	2356.0	2336.0	2336.0	2336.0	2339.0	2339.0	2339.0	2339.0	2339.0	2294.0	2294.0	2305.0	2305.0	2305.0	2300.0	2300.0	2283.0	2283.0	2283.0	2229.0	2229.0	2273.0	2273.0	2273.0	2252.0	2252.0	2229.0	2229.0	2229.0	2235.0	2235.0	2209.0	2209.0	2209.0	2221.0	2221.0	2206.0	2206.0	2206.0	2153.0	2153.0	2144.0	2144.0	2144.0	2162.0	2162.0	2134.0	2134.0	2134.0	2091.0	2091.0	2119.0	2119.0	2119.0	2087.0	2087.0	2110.0	2110.0	2110.0	2048.0	2048.0	2081.0	2081.0	2081.0	2060.0	2060.0	2069.0	2069.0	2069.0	2040.0	2040.0	2014.0	2014.0	2014.0	1999.0	1999.0	2007.0	2007.0	2007.0	1974.0	1974.0	1990.0	1990.0	1990.0	1987.0	1987.0	1988.0	1988.0	1988.0	1971.0	1971.0	1937.0	1937.0	1937.0	1970.0	1970.0	1927.0	1927.0	1927.0	1944.0	1944.0	1914.0	1914.0	1914.0	1942.0	1942.0	1941.0	1941.0	1941.0	1904.0	1904.0	1915.0	1915.0	1915.0	1902.0	1902.0	1907.0	1907.0	1907.0	1891.0	1891.0	1899.0	1899.0	1899.0	1887.0	1887.0	1884.0	1884.0	1884.0	1849.0	1849.0	1901.0	1901.0	1901.0	1880.0	1880.0	1846.0	1846.0	1846.0	1860.0	1860.0	1861.0	1861.0	1861.0	1841.0	1841.0	1840.0	1840.0	1840.0	1879.0	1879.0	1861.0	1861.0	1861.0	1856.0	1856.0	1866.0	1866.0	1866.0	1831.0	1831.0	1838.0	1838.0	1838.0	1841.0	1841.0	1827.0	1827.0	1827.0	1827.0	1827.0	1797.0	1797.0	1832.0	1832.0	1832.0	1808.0	1808.0	1795.0	1795.0	1795.0	1807.0	1807.0	1821.0	1821.0	1821.0	1787.0	1787.0	1776.0	1776.0	1776.0	1799.0	1799.0	1810.0	1810.0	1810.0	1823.0	1823.0	1824.0	1824.0	1824.0	1803.0	1803.0	1778.0	1778.0	1778.0	1818.0	1818.0	1765.0	1765.0	1765.0	1777.0	1777.0	1801.0	1801.0	1801.0	1759.0	1759.0	1807.0	1807.0	1807.0	1760.0	1760.0	1766.0	1766.0	1766.0	1779.0	1779.0	1764.0	1764.0	1764.0	1745.0	1745.0	1748.0	1748.0	1748.0	1791.0	1791.0	1735.0	1735.0	1735.0	1737.0	1737.0	1743.0	1743.0	1743.0	1750.0	1750.0	1766.0	1766.0	1766.0	1763.0	1763.0	1752.0	1752.0	1752.0	1763.0	1763.0	1764.0	1764.0	1764.0	1757.0	1757.0	1724.0	1724.0	1724.0	1747.0	1747.0	1758.0	1758.0	1758.0	1760.0	1760.0	1709.0	1709.0	1709.0	1740.0	1740.0	1748.0	1748.0	1748.0	1752.0	1752.0	1752.0	1752.0	1752.0	1723.0	1723.0	1706.0	1706.0	1706.0	1747.0	1747.0	1699.0	1699.0	1699.0	1692.0	1692.0	1691.0	1691.0	1691.0	1728.0	1728.0	1744.0	1744.0	1744.0	1697.0	1697.0	1704.0	1704.0	1704.0	1702.0	1702.0	1710.0	1710.0	1710.0	1697.0	1697.0	1681.0	1681.0	1681.0	1711.0	1711.0	1693.0	1693.0	1693.0	1687.0	1687.0	1714.0	1714.0	1714.0	1695.0	1695.0	1719.0	1719.0	1719.0	1732.0	1732.0	1704.0	1704.0	1704.0	1674.0	1674.0	1665.0	1665.0	1665.0	1672.0	1672.0	1671.0	1671.0	1671.0	1703.0	1703.0	1680.0	1680.0	1680.0	1660.0	1660.0	1703.0	1703.0	1703.0	1660.0	1660.0	1724.0	1724.0	1724.0	1654.0	1654.0	1707.0	1707.0	1697.0	1697.0	1697.0	1661.0	1661.0	1676.0	1676.0	1676.0	1670.0	1670.0	1688.0	1688.0	1688.0	1713.0	1713.0	1695.0	1695.0	1695.0	1668.0	1668.0	1709.0	1709.0	1709.0	1734.0	1734.0	1732.0	1732.0	1732.0	1714.0	1714.0	1739.0	1739.0	1739.0	1780.0	1780.0	1817.0	1817.0	1817.0	1805.0	1805.0	1847.0	1847.0	1847.0	1857.0	1857.0	1916.0	1916.0	1916.0	1904.0	1904.0	1958.0	1958.0	1958.0	1981.0	1981.0	2034.0	2034.0	2034.0	2082.0	2082.0	2109.0	2109.0	2109.0	2094.0	2094.0	2147.0	2147.0	2147.0	2155.0	2155.0	2214.0	2214.0	2214.0	2220.0	2220.0	2287.0	2287.0	2287.0	2297.0	2297.0	2315.0	2315.0	2315.0	2312.0	2312.0	2331.0	2331.0	2331.0	2337.0	2337.0	2371.0	2371.0	2371.0	2375.0	2375.0	2399.0	2399.0	2399.0	2413.0	2413.0	2465.0	2465.0	2465.0	2447.0	2447.0	2443.0	2443.0	2443.0	2481.0	2481.0	2459.0	2459.0	2459.0	2468.0	2468.0	2503.0	2503.0	2503.0	2514.0	2514.0	2504.0	2504.0	2504.0	2486.0	2486.0	2537.0	2537.0	2537.0	2510.0	2510.0	2534.0	2534.0	2534.0	2550.0	2550.0	2534.0	2534.0	2534.0	2549.0	2549.0	2509.0	2509.0	2509.0	2486.0	2486.0	2498.0	2498.0	2498.0	2508.0	2508.0	2508.0	2508.0	2508.0	2487.0	2487.0	2485.0	2485.0	2485.0	2526.0	2526.0	2479.0	2479.0	2479.0	2476.0	2476.0	2475.0	2475.0	2475.0	2465.0	2465.0	2481.0	2481.0	2481.0	2492.0	2492.0	2489.0	2489.0	2489.0	2488.0	2488.0	2482.0	2482.0	2482.0	2451.0	2451.0	2445.0	2445.0	2445.0	2454.0	2454.0	2455.0	2455.0	2455.0	2428.0	2428.0	2455.0	2455.0	2455.0	2433.0	2433.0	2388.0	2388.0	2424.0	2424.0	2424.0	2390.0	2390.0	2390.0	2390.0	2390.0	2376.0	2376.0	2416.0	2416.0	2416.0	2361.0	2361.0	2355.0	2355.0	2355.0	2345.0	2345.0	2367.0	2367.0	2367.0	2310.0	2310.0	2303.0	2303.0	2303.0	2337.0	2337.0	2333.0	2333.0	2333.0	2276.0	2276.0	2298.0	2298.0	2298.0	2283.0	2283.0	2311.0	2311.0	2311.0	2263.0	2263.0	2263.0	2263.0	2263.0	2210.0	2210.0	2207.0	2207.0	2207.0	2229.0	2229.0	2199.0	2199.0	2199.0	2179.0	2179.0	2156.0	2156.0	2156.0	2181.0	2181.0	2143.0	2143.0	2143.0	2162.0	2162.0	2115.0	2115.0	2115.0	2117.0	2117.0	2113.0	2113.0	2113.0	2084.0	2084.0	2090.0	2090.0	2090.0	2106.0	2106.0	2050.0	2050.0	2050.0	2049.0	2049.0	2036.0	2036.0	2036.0	2058.0	2058.0	2025.0	2025.0	2025.0	2015.0	2015.0	2003.0	2003.0	2003.0	2005.0	2005.0	1990.0	1990.0	1990.0	1969.0	1969.0	1994.0	1994.0	1994.0	2006.0	2006.0	1976.0	1976.0	1976.0	1974.0	1974.0	1961.0	1961.0	1961.0	1929.0	1929.0	1940.0	1940.0	1940.0	1904.0	1904.0	1900.0	1900.0	1900.0	1945.0	1945.0	1920.0	1920.0	1920.0	1925.0	1925.0	1891.0	1891.0	1891.0	1930.0	1930.0	1883.0	1883.0	1883.0	1902.0	1902.0	1884.0	1884.0	1884.0	1882.0	1882.0	1864.0	1864.0	1864.0	1878.0	1878.0	1894.0	1894.0	1894.0	1843.0	1843.0	1868.0	1868.0	1868.0	1844.0	1844.0	1849.0	1849.0	1849.0	1852.0	1852.0	1822.0	1822.0	1822.0	1823.0	1823.0	1847.0	1847.0	1847.0	1862.0	1862.0	1818.0	1818.0	1818.0	1829.0	1829.0	1837.0	1837.0	1837.0	1856.0	1856.0	1797.0	1797.0	1797.0	1812.0	1812.0	1800.0	1800.0	1800.0	1831.0	1831.0	1833.0	1833.0	1829.0	1829.0	1829.0	1816.0	1816.0	1843.0	1843.0	1843.0	1790.0	1790.0	1804.0	1804.0	1804.0	1803.0	1803.0	1795.0	1795.0	1795.0	1826.0	1826.0	1800.0	1800.0	1800.0	1775.0	1775.0	1808.0	1808.0	1808.0	1784.0	1784.0	1812.0	1812.0	1812.0	1795.0	1795.0	1800.0	1800.0	1800.0	1789.0	1789.0	1759.0	1759.0	1759.0	1781.0	1781.0	1747.0	1747.0	1747.0	1733.0	1733.0	1747.0	1747.0	1747.0	1749.0	1749.0	1774.0	1774.0	1774.0	1766.0	1766.0	1790.0	1790.0	1790.0	1743.0	1743.0	1772.0	1772.0	1772.0	1741.0	1741.0	1724.0	1724.0	1724.0	1722.0	1722.0	1717.0	1717.0	1717.0	1714.0	1714.0	1767.0	1767.0	1767.0	1739.0	1739.0	1764.0	1764.0	1764.0	1718.0	1718.0	1701.0	1701.0	1701.0	1749.0	1749.0	1716.0	1716.0	1716.0	1743.0	1743.0	