2476.0	2476.0	2476.0	2483.0	2483.0	2485.0	2485.0	2485.0	2479.0	2479.0	2513.0	2513.0	2513.0	2470.0	2470.0	2468.0	2468.0	2468.0	2434.0	2434.0	2471.0	2471.0	2471.0	2465.0	2465.0	2432.0	2432.0	2432.0	2423.0	2423.0	2441.0	2441.0	2441.0	2427.0	2427.0	2388.0	2388.0	2388.0	2376.0	2376.0	2404.0	2404.0	2404.0	2363.0	2363.0	2388.0	2388.0	2388.0	2329.0	2329.0	2380.0	2380.0	2380.0	2338.0	2338.0	2308.0	2308.0	2308.0	2311.0	2311.0	2301.0	2301.0	2301.0	2282.0	2282.0	2313.0	2313.0	2313.0	2275.0	2275.0	2297.0	2297.0	2297.0	2261.0	2261.0	2243.0	2243.0	2243.0	2235.0	2235.0	2212.0	2212.0	2212.0	2228.0	2228.0	2211.0	2211.0	2211.0	2214.0	2214.0	2172.0	2172.0	2172.0	2199.0	2199.0	2192.0	2192.0	2192.0	2187.0	2187.0	2166.0	2166.0	2166.0	2154.0	2154.0	2110.0	2110.0	2110.0	2088.0	2088.0	2086.0	2086.0	2086.0	2064.0	2064.0	2095.0	2095.0	2095.0	2085.0	2085.0	2080.0	2080.0	2080.0	2045.0	2045.0	2047.0	2047.0	2047.0	2046.0	2046.0	2024.0	2024.0	2009.0	2009.0	2009.0	2036.0	2036.0	2011.0	2011.0	2011.0	1998.0	1998.0	1982.0	1982.0	1982.0	1956.0	1956.0	1958.0	1958.0	1958.0	1941.0	1941.0	1986.0	1986.0	1986.0	1927.0	1927.0	1930.0	1930.0	1930.0	1966.0	1966.0	1932.0	1932.0	1932.0	1901.0	1901.0	1919.0	1919.0	1919.0	1919.0	1919.0	1906.0	1906.0	1906.0	1926.0	1926.0	1926.0	1926.0	1926.0	1908.0	1908.0	1914.0	1914.0	1914.0	1866.0	1866.0	1915.0	1915.0	1915.0	1879.0	1879.0	1870.0	1870.0	1870.0	1878.0	1878.0	1854.0	1854.0	1854.0	1852.0	1852.0	1859.0	1859.0	1859.0	1885.0	1885.0	1835.0	1835.0	1835.0	1873.0	1873.0	1864.0	1864.0	1864.0	1826.0	1826.0	1865.0	1865.0	1865.0	1816.0	1816.0	1820.0	1820.0	1820.0	1857.0	1857.0	1864.0	1864.0	1864.0	1807.0	1807.0	1831.0	1831.0	1831.0	1828.0	1828.0	1843.0	1843.0	1843.0	1846.0	1846.0	1843.0	1843.0	1843.0	1826.0	1826.0	1800.0	1800.0	1800.0	1806.0	1806.0	1798.0	1798.0	1798.0	1804.0	1804.0	1796.0	1796.0	1796.0	1787.0	1787.0	1779.0	1779.0	1779.0	1816.0	1816.0	1795.0	1795.0	1795.0	1793.0	1793.0	1798.0	1798.0	1798.0	1811.0	1811.0	1807.0	1807.0	1807.0	1761.0	1761.0	1768.0	1768.0	1768.0	1795.0	1795.0	1805.0	1805.0	1805.0	1793.0	1793.0	1791.0	1791.0	1791.0	1746.0	1746.0	1763.0	1763.0	1763.0	1789.0	1789.0	1735.0	1735.0	1735.0	1773.0	1773.0	1757.0	1757.0	1757.0	1773.0	1773.0	1770.0	1770.0	1770.0	1733.0	1733.0	1734.0	1734.0	1734.0	1774.0	1774.0	1731.0	1731.0	1731.0	1734.0	1734.0	1773.0	1773.0	1773.0	1722.0	1722.0	1717.0	1717.0	1717.0	1757.0	1757.0	1696.0	1696.0	1722.0	1722.0	1722.0	1716.0	1716.0	1700.0	1700.0	1700.0	1730.0	1730.0	1703.0	1703.0	1703.0	1730.0	1730.0	1692.0	1692.0	1692.0	1714.0	1714.0	1730.0	1730.0	1730.0	1749.0	1749.0	1701.0	1701.0	1701.0	1701.0	1701.0	1688.0	1688.0	1688.0	1750.0	1750.0	1739.0	1739.0	1739.0	1697.0	1697.0	1725.0	1725.0	1725.0	1691.0	1691.0	1690.0	1690.0	1690.0	1689.0	1689.0	1708.0	1708.0	1708.0	1735.0	1735.0	1743.0	1743.0	1743.0	1707.0	1707.0	1694.0	1694.0	1694.0	1726.0	1726.0	1692.0	1692.0	1692.0	1691.0	1691.0	1718.0	1718.0	1718.0	1724.0	1724.0	1725.0	1725.0	1725.0	1702.0	1702.0	1673.0	1673.0	1673.0	1735.0	1735.0	1669.0	1669.0	1669.0	1726.0	1726.0	1707.0	1707.0	1707.0	1694.0	1694.0	1671.0	1671.0	1671.0	1674.0	1674.0	1685.0	1685.0	1685.0	1695.0	1695.0	1682.0	1682.0	1682.0	1732.0	1732.0	1710.0	1710.0	1710.0	1722.0	1722.0	1686.0	1686.0	1686.0	1735.0	1735.0	1747.0	1747.0	1747.0	1745.0	1745.0	1759.0	1759.0	1759.0	1811.0	1811.0	1818.0	1818.0	1818.0	1812.0	1812.0	1826.0	1826.0	1826.0	1883.0	1883.0	1892.0	1892.0	1892.0	1930.0	1930.0	1950.0	1950.0	1950.0	2021.0	2021.0	2052.0	2052.0	2052.0	2052.0	2052.0	2090.0	2090.0	2090.0	2132.0	2132.0	2192.0	2192.0	2192.0	2181.0	2181.0	2227.0	2227.0	2227.0	2246.0	2246.0	2294.0	2294.0	2294.0	2320.0	2320.0	2321.0	2321.0	2321.0	2383.0	2383.0	2378.0	2378.0	2378.0	2386.0	2386.0	2389.0	2389.0	2389.0	2412.0	2412.0	2436.0	2436.0	2436.0	2442.0	2442.0	2488.0	2488.0	2488.0	2508.0	2508.0	2472.0	2472.0	2500.0	2500.0	2500.0	2494.0	2494.0	2505.0	2505.0	2505.0	2524.0	2524.0	2560.0	2560.0	2560.0	2512.0	2512.0	2536.0	2536.0	2536.0	2521.0	2521.0	2526.0	2526.0	2526.0	2548.0	2548.0	2555.0	2555.0	2555.0	2560.0	2560.0	2577.0	2577.0	2577.0	2534.0	2534.0	2531.0	2531.0	2531.0	2531.0	2531.0	2544.0	2544.0	2544.0	2556.0	2556.0	2542.0	2542.0	2542.0	2519.0	2519.0	2527.0	2527.0	2527.0	2524.0	2524.0	2523.0	2523.0	2523.0	2531.0	2531.0	2491.0	2491.0	2491.0	2512.0	2512.0	2499.0	2499.0	2499.0	2486.0	2486.0	2505.0	2505.0	2505.0	2485.0	2485.0	2507.0	2507.0	2507.0	2459.0	2459.0	2437.0	2437.0	2437.0	2496.0	2496.0	2448.0	2448.0	2448.0	2427.0	2427.0	2424.0	2424.0	2424.0	2439.0	2439.0	2431.0	2431.0	2431.0	2449.0	2449.0	2406.0	2406.0	2406.0	2423.0	2423.0	2388.0	2388.0	2388.0	2365.0	2365.0	2397.0	2397.0	2397.0	2358.0	2358.0	2364.0	2364.0	2364.0	2331.0	2331.0	2367.0	2367.0	2367.0	2355.0	2355.0	2329.0	2329.0	2329.0	2344.0	2344.0	2328.0	2328.0	2328.0	2306.0	2306.0	2270.0	2270.0	2270.0	2269.0	2269.0	2257.0	2257.0	2257.0	2230.0	2230.0	2238.0	2238.0	2238.0	2242.0	2242.0	2251.0	2251.0	2251.0	2213.0	2213.0	2185.0	2185.0	2185.0	2172.0	2172.0	2155.0	2155.0	2155.0	2153.0	2153.0	2144.0	2144.0	2144.0	2144.0	2144.0	2154.0	2154.0	2154.0	2127.0	2127.0	2086.0	2086.0	2086.0	2100.0	2100.0	2088.0	2088.0	2088.0	2057.0	2057.0	2046.0	2046.0	2046.0	2065.0	2065.0	2024.0	2024.0	2024.0	2035.0	2035.0	2047.0	2047.0	2047.0	2014.0	2014.0	2007.0	2007.0	2007.0	2013.0	2013.0	1988.0	1988.0	1969.0	1969.0	1969.0	1961.0	1961.0	1979.0	1979.0	1979.0	1948.0	1948.0	1980.0	1980.0	1980.0	1969.0	1969.0	1923.0	1923.0	1923.0	1940.0	1940.0	1957.0	1957.0	1957.0	1949.0	1949.0	1918.0	1918.0	1918.0	1935.0	1935.0	1901.0	1901.0	1901.0	1899.0	1899.0	1918.0	1918.0	1918.0	1883.0	1883.0	1876.0	1876.0	1876.0	1922.0	1922.0	1868.0	1868.0	1868.0	1914.0	1914.0	1869.0	1869.0	1869.0	1887.0	1887.0	1855.0	1855.0	1855.0	1911.0	1911.0	1865.0	1865.0	1865.0	1841.0	1841.0	1838.0	1838.0	1838.0	1866.0	1866.0	1852.0	1852.0	1852.0	1874.0	1874.0	1872.0	1872.0	1872.0	1863.0	1863.0	1845.0	1845.0	1845.0	1851.0	1851.0	1845.0	1845.0	1845.0	1851.0	1851.0	1820.0	1820.0	1820.0	1825.0	1825.0	1818.0	1818.0	1818.0	1794.0	1794.0	1835.0	1835.0	1835.0	1811.0	1811.0	1817.0	1817.0	1817.0	1810.0	1810.0	1807.0	1807.0	1807.0	1783.0	1783.0	1829.0	1829.0	1829.0	1796.0	1796.0	1794.0	1794.0	1794.0	1802.0	1802.0	1771.0	1771.0	1771.0	1805.0	1805.0	1806.0	1806.0	1806.0	1773.0	1773.0	1817.0	1817.0	1817.0	1808.0	1808.0	1758.0	1758.0	1758.0	1796.0	1796.0	1776.0	1776.0	1776.0	1774.0	1774.0	1763.0	1763.0	1763.0	1757.0	1757.0	1744.0	1744.0	1744.0	1772.0	1772.0	1736.0	1736.0	1736.0	1763.0	1763.0	1768.0	1768.0	1768.0	1778.0	1778.0	1732.0	1732.0	1732.0	1766.0	1766.0	1781.0	1781.0	1781.0	1766.0	1766.0	1761.0	1761.0	1761.0	1755.0	1755.0	1750.0	1750.0	1750.0	1750.0	1750.0	1739.0	1739.0	1739.0	1729.0	1729.0	1729.0	1729.0	1729.0	1734.0	1734.0	1727.0	1727.0	1772.0	1772.0	1772.0	1710.0	1710.0	1714.0	1714.0	1714.0	1723.0	1723.0	1715.0	1715.0	1715.0	1702.0	1702.0	1716.0	1716.0	1716.0	1725.0	1725.0	1739.0	1739.0	1739.0	1737.0	1737.0	1706.0	1706.0	1706.0	1741.0	1741.0	1712.0	1712.0	1712.0	1739.0	1739.0	1690.0	1690.0	1690.0	1734.0	1734.0	1678.0	1678.0	1678.0	1726.0	1726.0	1690.0	1690.0	1690.0	1685.0	1685.0	1685.0	1685.0	1685.0	1676.0	1676.0	1699.0	1699.0	1699.0	1697.0	1697.0	1691.0	1691.0	1691.0	1682.0	1682.0	1687.0	1687.0	1687.0	1700.0	1700.0	1684.0	1684.0	1684.0	1683.0	1683.0	1680.0	1680.0	1680.0	1705.0	1705.0	1720.0	1720.0	1720.0	1723.0	1723.0	1684.0	1684.0	1684.0	1686.0	1686.0	1669.0	1669.0	1669.0	1691.0	1691.0	1716.0	1716.0	1716.0	1659.0	1659.0	1708.0	1708.0	1708.0	1665.0	1665.0	1690.0	1690.0	1690.0	1681.0	1681.0	1667.0	1667.0	1667.0	1712.0	1712.0	1696.0	1696.0	1696.0	1720.0	1720.0	1725.0	1725.0	1725.0	1697.0	1697.0	1698.0	1698.0	1698.0	1719.0	1719.0	1767.0	1767.0	1767.0	1775.0	1775.0	1772.0	1772.0	1772.0	1787.0	1787.0	1862.0	1862.0	1862.0	1866.0	1866.0	1928.0	1928.0	1928.0	1921.0	1921.0	1934.0	1934.0	1934.0	1992.0	1992.0	2038.0	2038.0	2038.0	2069.0	2069.0	2059.0	2059.0	2059.0	2126.0	2126.0	2165.0	2165.0	2165.0	2156.0	2156.0	2180.0	2180.0	2180.0	2224.0	2224.0	2275.0	2275.0	2275.0	2272.0	2272.0	2298.0	2298.0	2298.0	2360.0	2360.0	2331.0	2331.0	2331.0	2397.0	2397.0	2411.0	2411.0	2411.0	2431.0	2431.0	2442.0	2442.0	2442.0	2476.0	2476.0	2432.0	2432.0	2454.0	2454.0	2454.0	2480.0	2480.0	2472.0	2472.0	2472.0	2515.0	2515.0	2494.0	2494.0	2494.0	2487.0	2487.0	2500.0	2500.0	2500.0	2503.0	2503.0	2535.0	2535.0	2535.0	2510.0	2510.0	2541.0	2541.0	2541.0	2557.0	2557.0	2517.0	2517.0	2517.0	2516.0	2516.0	2554.0	2554.0	2554.0	2534.0	2534.0	2520.0	2520.0	2520.0	2521.0	2521.0	2521.0	2521.0	2521.0	2534.0	2534.0	2522.0	2522.0	2522.0	2545.0	2545.0	2533.0	2533.0	2533.0	2498.0	2498.0	2520.0	2520.0	2520.0	2505.0	2505.0	2526.0	2526.0	2526.0	2488.0	2488.0	2486.0	2486.0	2486.0	2496.0	2496.0	2505.0	2505.0	2505.0	2462.0	2462.0	2494.0	2494.0	2494.0	2475.0	2475.0	2455.0	2455.0	2455.0	2441.0	2441.0	2440.0	2440.0	2440.0	2467.0	2467.0	2443.0	2443.0	2443.0	2423.0	2423.0	2435.0	2435.0	2435.0	2388.0	2388.0	2378.0	2378.0	2378.0	2380.0	2380.0	2364.0	2364.0	2364.0	2376.0	2376.0	2363.0	2363.0	2363.0	2402.0	2402.0	2336.0	2336.0	2336.0	2350.0	2350.0	2340.0	2340.0	2340.0	2330.0	2330.0	2354.0	2354.0	2354.0	2318.0	2318.0	2319.0	2319.0	2319.0	2270.0	2270.0	2281.0	2281.0	2281.0	2264.0	2264.0	2290.0	2290.0	2290.0	2283.0	2283.0	2244.0	2244.0	2244.0	2259.0	2259.0	2214.0	2214.0	2214.0	2225.0	2225.0	2170.0	2170.0	2170.0	2183.0	2183.0	2166.0	2166.0	2166.0	2136.0	2136.0	2157.0	2157.0	2157.0	2158.0	2158.0	2114.0	2114.0	2114.0	2094.0	2094.0	2102.0	2102.0	2102.0	2066.0	2066.0	2102.0	2102.0	2102.0	2112.0	2112.0	2068.0	2068.0	2068.0	2034.0	2034.0	2071.0	2071.0	2071.0	2025.0	2025.0	2007.0	2007.0	2007.0	2010.0	2010.0	2000.0	2000.0	2005.0	2005.0	2005.0	1991.0	1991.0	2007.0	2007.0	2007.0	1977.0	1977.0	1989.0	1989.0	1989.0	1940.0	1940.0	1971.0	1971.0	1971.0	1921.0	1921.0	1939.0	1939.0	1939.0	1909.0	1909.0	1914.0	1914.0	1914.0	1939.0	1939.0	1914.0	1914.0	1914.0	1902.0	1902.0	1898.0	1898.0	1898.0	1899.0	1899.0	1925.0	1925.0	1925.0	1872.0	1872.0	1923.0	1923.0	1923.0	1864.0	1864.0	1875.0	1875.0	1875.0	1881.0	1881.0	1875.0	1875.0	1875.0	1854.0	1854.0	1908.0	1908.0	1908.0	1852.0	1852.0	1887.0	1887.0	1887.0	1878.0	1878.0	1857.0	1857.0	1857.0	1837.0	1837.0	1878.0	1878.0	1878.0	1878.0	1878.0	1851.0	1851.0	1851.0	1843.0	1843.0	1846.0	1846.0	1846.0	1811.0	1811.0	1831.0	1831.0	1831.0	1869.0	1869.0	1818.0	1818.0	1818.0	1849.0	1849.0	1838.0	1838.0	1838.0	1846.0	1846.0	1845.0	1845.0	1845.0	1831.0	1831.0	1824.0	1824.0	1824.0	1836.0	1836.0	1829.0	1829.0	1829.0	1784.0	1784.0	1807.0	1807.0	1807.0	1787.0	1787.0	1787.0	1787.0	1787.0	1815.0	1815.0	1798.0	1798.0	1798.0	1822.0	1822.0	1768.0	1768.0	1768.0	1816.0	1816.0	1820.0	1820.0	1820.0	1797.0	1797.0	1763.0	1763.0	1763.0	1798.0	1798.0	1778.0	1778.0	1778.0	1793.0	1793.0	1785.0	1785.0	1785.0	1767.0	1767.0	1754.0	1754.0	1754.0	1752.0	1752.0	1773.0	1773.0	1773.0	1750.0	1750.0	1766.0	1766.0	1766.0	1725.0	1725.0	1789.0	1789.0	1789.0	1773.0	1773.0	1722.0	1722.0	1722.0	1755.0	1755.0	1720.0	1720.0	1720.0	1778.0	1778.0	1743.0	1743.0	1743.0	1717.0	1717.0	1741.0	1741.0	1741.0	1755.0	1755.0	1724.0	1724.0	1721.0	1721.0	1721.0	1746.0	1746.0	1723.0	1723.0	1723.0	1764.0	1764.0	1755.0	1755.0	1755.0	1751.0	1751.0	1715.0	1715.0	1715.0	1705.0	1705.0	1756.0	1756.0	1756.0	1703.0	1703.0	1734.0	1734.0	1734.0	1721.0	1721.0	1711.0	1711.0	1711.0	1706.0	1706.0	1705.0	1705.0	1705.0	1737.0	1737.0	1697.0	1697.0	1697.0	1691.0	1691.0	1704.0	1704.0	1704.0	1715.0	1715.0	1747.0	1747.0	1747.0	1702.0	1702.0	1711.0	1711.0	1711.0	1738.0	1738.0	1724.0	1724.0	1724.0	1677.0	1677.0	1702.0	1702.0	1702.0	1671.0	1671.0	1698.0	1698.0	1698.0	1685.0	1685.0	1715.0	1715.0	1715.0	1672.0	1672.0	1668.0	1668.0	1668.0	1722.0	1722.0	1672.0	1672.0	1672.0	1695.0	1695.0	1717.0	1717.0	1717.0	1672.0	1672.0	1664.0	1664.0	1664.0	1667.0	1667.0	1710.0	1710.0	1710.0	1698.0	1698.0	1701.0	1701.0	1701.0	1694.0	1694.0	1664.0	1664.0	1664.0	1689.0	1689.0	1690.0	1690.0	1690.0	1718.0	1718.0	1689.0	1689.0	1689.0	1709.0	1709.0	1732.0	1732.0	1732.0	1734.0	1734.0	1730.0	1730.0	1730.0	1753.0	1753.0	1727.0	1727.0	1727.0	1779.0	1779.0	1751.0	1751.0	1751.0	1809.0	1809.0	1805.0	1805.0	1805.0	1843.0	1843.0	1890.0	1890.0	1890.0	1933.0	1933.0	1925.0	1925.0	1925.0	1977.0	1977.0	1982.0	1982.0	1982.0	2048.0	2048.0	2043.0	2043.0	2043.0	2097.0	2097.0	2118.0	2118.0	2118.0	2177.0	2177.0	2190.0	2190.0	2190.0	2219.0	2219.0	2229.0	2229.0	2229.0	2246.0	2246.0	2318.0	2318.0	2318.0	2292.0	2292.0	2344.0	2344.0	2344.0	2363.0	2363.0	2349.0	2349.0	2349.0	2395.0	2395.0	2427.0	2427.0	2431.0	2431.0	2431.0	2453.0	2453.0	2441.0	2441.0	2441.0	2478.0	2478.0	2487.0	2487.0	2487.0	2491.0	2491.0	2528.0	2528.0	2528.0	2490.0	2490.0	2505.0	2505.0	2505.0	2515.0	2515.0	2516.0	2516.0	2516.0	2516.0	2516.0	2504.0	2504.0	2504.0	2546.0	2546.0	2516.0	2516.0	2516.0	2513.0	2513.0	2547.0	2547.0	2547.0	2535.0	2535.0	2535.0	2535.0	2535.0	2540.0	2540.0	2516.0	2516.0	2516.0	2528.0	2528.0	2517.0	2517.0	2517.0	2524.0	2524.0	2503.0	2503.0	2503.0	2529.0	2529.0	2503.0	2503.0	2503.0	2481.0	2481.0	2481.0	2481.0	2481.0	2511.0	2511.0	2481.0	2481.0	2481.0	2510.0	2510.0	2485.0	2485.0	2485.0	2474.0	2474.0	2441.0	2441.0	2441.0	2450.0	2450.0	2471.0	2471.0	2471.0	2435.0	2435.0	2435.0	2435.0	2435.0	2441.0	2441.0	2437.0	2437.0	2437.0	2419.0	2419.0	2410.0	2410.0	2410.0	2394.0	2394.0	2391.0	2391.0	2391.0	2427.0	2427.0	2407.0	2407.0	2407.0	2409.0	2409.0	2401.0	2401.0	2401.0	2345.0	2345.0	2352.0	2352.0	2352.0	2359.0	2359.0	2364.0	2364.0	2364.0	2351.0	2351.0	2335.0	2335.0	2335.0	2297.0	2297.0	2305.0	2305.0	2305.0	2296.0	2296.0	2266.0	2266.0	2266.0	2267.0	2267.0	2278.0	2278.0	2278.0	2267.0	2267.0	2219.0	2219.0	2219.0	2203.0	2203.0	2214.0	2214.0	2214.0	2217.0	2217.0	2179.0	2179.0	2179.0	2170.0	2170.0	2198.0	2198.0	2198.0	2179.0	2179.0	2157.0	2157.0	2157.0	2162.0	2162.0	2137.0	2137.0	2137.0	2139.0	2139.0	2078.0	2078.0	2078.0	2114.0	2114.0	2099.0	2099.0	2099.0	2102.0	2102.0	2098.0	2098.0	2098.0	2058.0	2058.0	2031.0	2031.0	2031.0	2072.0	2072.0	2033.0	2033.0	2005.0	2005.0	2005.0	2020.0	2020.0	1987.0	1987.0	1987.0	1993.0	1993.0	2012.0	2012.0	2012.0	1952.0	1952.0	1995.0	1995.0	1995.0	1948.0	1948.0	1977.0	1977.0	1977.0	1969.0	1969.0	1961.0	1961.0	1961.0	1947.0	1947.0	1952.0	1952.0	1952.0	1940.0	1940.0	1943.0	1943.0	1943.0	1909.0	1909.0	1903.0	1903.0	1903.0	1893.0	1893.0	1879.0	1879.0	1879.0	1930.0	1930.0	1914.0	1914.0	1914.0	1912.0	1912.0	1879.0	1879.0	1879.0	1904.0	1904.0	1905.0	1905.0	1905.0	1863.0	1863.0	1884.0	1884.0	1884.0	1886.0	1886.0	1863.0	1863.0	1863.0	1861.0	1861.0	1837.0	1837.0	1837.0	1829.0	1829.0	1868.0	1868.0	1868.0	1858.0	1858.0	1843.0	1843.0	1843.0	1873.0	1873.0	1868.0	1868.0	1868.0	1856.0	1856.0	1877.0	1877.0	1877.0	1863.0	1863.0	1863.0	1863.0	1863.0	1826.0	1826.0	1822.0	1822.0	1822.0	1804.0	1804.0	1823.0	1823.0	1823.0	1810.0	1810.0	1855.0	1855.0	1855.0	1825.0	1825.0	1822.0	1822.0	1822.0	1844.0	1844.0	1796.0	1796.0	1796.0	1807.0	1807.0	