1393.0	1393.0	1393.0	1393.0	1289.0	1289.0	1265.0	1265.0	1265.0	1259.0	1259.0	1252.0	1252.0	1252.0	1251.0	1251.0	1224.0	1224.0	1224.0	1272.0	1272.0	1270.0	1270.0	1270.0	1282.0	1282.0	1286.0	1286.0	1286.0	1351.0	1351.0	1372.0	1372.0	1372.0	1372.0	1372.0	1389.0	1389.0	1389.0	1427.0	1427.0	1515.0	1515.0	1515.0	1528.0	1528.0	1537.0	1537.0	1537.0	1572.0	1572.0	1640.0	1640.0	1640.0	1647.0	1647.0	1682.0	1682.0	1682.0	1697.0	1697.0	1730.0	1730.0	1730.0	1770.0	1770.0	1820.0	1820.0	1820.0	1853.0	1853.0	1879.0	1879.0	1879.0	1871.0	1871.0	1922.0	1922.0	1922.0	1922.0	1922.0	1943.0	1943.0	1943.0	1956.0	1956.0	2001.0	2001.0	2001.0	2010.0	2010.0	2027.0	2027.0	2027.0	2055.0	2055.0	2059.0	2059.0	2059.0	2063.0	2063.0	2050.0	2050.0	2050.0	2100.0	2100.0	2105.0	2105.0	2105.0	2125.0	2125.0	2085.0	2085.0	2085.0	2097.0	2097.0	2125.0	2125.0	2125.0	2108.0	2108.0	2137.0	2137.0	2137.0	2140.0	2140.0	2182.0	2182.0	2182.0	2163.0	2163.0	2158.0	2158.0	2158.0	2163.0	2163.0	2130.0	2130.0	2130.0	2153.0	2153.0	2134.0	2134.0	2134.0	2179.0	2179.0	2178.0	2178.0	2178.0	2173.0	2173.0	2137.0	2137.0	2137.0	2175.0	2175.0	2167.0	2167.0	2178.0	2178.0	2178.0	2135.0	2135.0	2131.0	2131.0	2131.0	2195.0	2195.0	2169.0	2169.0	2169.0	2151.0	2151.0	2160.0	2160.0	2160.0	2137.0	2137.0	2141.0	2141.0	2141.0	2137.0	2137.0	2169.0	2169.0	2169.0	2126.0	2126.0	2168.0	2168.0	2168.0	2156.0	2156.0	2157.0	2157.0	2157.0	2127.0	2127.0	2113.0	2113.0	2113.0	2154.0	2154.0	2154.0	2154.0	2154.0	2094.0	2094.0	2133.0	2133.0	2133.0	2087.0	2087.0	2075.0	2075.0	2075.0	2133.0	2133.0	2069.0	2069.0	2069.0	2056.0	2056.0	2073.0	2073.0	2073.0	2051.0	2051.0	2055.0	2055.0	2055.0	2042.0	2042.0	2032.0	2032.0	2032.0	2029.0	2029.0	2015.0	2015.0	2015.0	2026.0	2026.0	2002.0	2002.0	2002.0	2033.0	2033.0	1984.0	1984.0	1984.0	1974.0	1974.0	1985.0	1985.0	1985.0	1968.0	1968.0	1953.0	1953.0	1953.0	1983.0	1983.0	1989.0	1989.0	1989.0	1912.0	1912.0	1971.0	1971.0	1971.0	1923.0	1923.0	1951.0	1951.0	1951.0	1894.0	1894.0	1911.0	1911.0	1911.0	1904.0	1904.0	1900.0	1900.0	1900.0	1857.0	1857.0	1879.0	1879.0	1879.0	1892.0	1892.0	1834.0	1834.0	1834.0	1850.0	1850.0	1840.0	1840.0	1840.0	1834.0	1834.0	1852.0	1852.0	1852.0	1821.0	1821.0	1780.0	1780.0	1780.0	1776.0	1776.0	1772.0	1772.0	1772.0	1817.0	1817.0	1809.0	1809.0	1809.0	1761.0	1761.0	1746.0	1746.0	1746.0	1788.0	1788.0	1761.0	1761.0	1761.0	1744.0	1744.0	1796.0	1796.0	1796.0	1729.0	1729.0	1779.0	1779.0	1779.0	1768.0	1768.0	1767.0	1767.0	1767.0	1763.0	1763.0	1727.0	1727.0	1727.0	1771.0	1771.0	1771.0	1771.0	1771.0	1751.0	1751.0	1748.0	1748.0	1748.0	1715.0	1715.0	1716.0	1716.0	1725.0	1725.0	1725.0	1742.0	1742.0	1744.0	1744.0	1744.0	1716.0	1716.0	1712.0	1712.0	1712.0	1725.0	1725.0	1707.0	1707.0	1707.0	1715.0	1715.0	1743.0	1743.0	1743.0	1698.0	1698.0	1700.0	1700.0	1700.0	1740.0	1740.0	1734.0	1734.0	1734.0	1716.0	1716.0	1701.0	1701.0	1701.0	1722.0	1722.0	1684.0	1684.0	1684.0	1698.0	1698.0	1675.0	1675.0	1675.0	1725.0	1725.0	1673.0	1673.0	1673.0	1667.0	1667.0	1680.0	1680.0	1680.0	1676.0	1676.0	1688.0	1688.0	1688.0	1674.0	1674.0	1663.0	1663.0	1663.0	1694.0	1694.0	1659.0	1659.0	1659.0	1664.0	1664.0	1684.0	1684.0	1684.0	1696.0	1696.0	1677.0	1677.0	1677.0	1682.0	1682.0	1657.0	1657.0	1657.0	1661.0	1661.0	1659.0	1659.0	1659.0	1665.0	1665.0	1693.0	1693.0	1693.0	1660.0	1660.0	1678.0	1678.0	1678.0	1640.0	1640.0	1635.0	1635.0	1635.0	1654.0	1654.0	1673.0	1673.0	1673.0	1674.0	1674.0	1644.0	1644.0	1644.0	1659.0	1659.0	1654.0	1654.0	1654.0	1679.0	1679.0	1670.0	1670.0	1670.0	1676.0	1676.0	1655.0	1655.0	1655.0	1681.0	1681.0	1625.0	1625.0	1625.0	1642.0	1642.0	1627.0	1627.0	1627.0	1664.0	1664.0	1667.0	1667.0	1667.0	1663.0	1663.0	1625.0	1625.0	1625.0	1608.0	1608.0	1634.0	1634.0	1634.0	1619.0	1619.0	1613.0	1613.0	1613.0	1613.0	1613.0	1658.0	1658.0	1658.0	1630.0	1630.0	1620.0	1620.0	1620.0	1619.0	1619.0	1629.0	1629.0	1629.0	1626.0	1626.0	1603.0	1603.0	1603.0	1623.0	1623.0	1618.0	1618.0	1618.0	1648.0	1648.0	1641.0	1641.0	1641.0	1603.0	1603.0	1617.0	1617.0	1617.0	1599.0	1599.0	1636.0	1636.0	1624.0	1624.0	1624.0	1627.0	1627.0	1621.0	1621.0	1621.0	1651.0	1651.0	1643.0	1643.0	1643.0	1648.0	1648.0	1615.0	1615.0	1615.0	1592.0	1592.0	1628.0	1628.0	1628.0	1596.0	1596.0	1603.0	1603.0	1603.0	1607.0	1607.0	1650.0	1650.0	1650.0	1654.0	1654.0	1600.0	1600.0	1600.0	1619.0	1619.0	1604.0	1604.0	1604.0	1654.0	1654.0	1609.0	1609.0	1609.0	1632.0	1632.0	1665.0	1665.0	1665.0	1664.0	1664.0	1659.0	1659.0	1659.0	1675.0	1675.0	1659.0	1659.0	1659.0	1669.0	1669.0	1741.0	1741.0	1741.0	1773.0	1773.0	1769.0	1769.0	1769.0	1764.0	1764.0	1836.0	1836.0	1836.0	1844.0	1844.0	1854.0	1854.0	1854.0	1923.0	1923.0	1910.0	1910.0	1910.0	1969.0	1969.0	1987.0	1987.0	1987.0	2014.0	2014.0	2030.0	2030.0	2030.0	2063.0	2063.0	2094.0	2094.0	2094.0	2133.0	2133.0	2160.0	2160.0	2160.0	2179.0	2179.0	2244.0	2244.0	2244.0	2213.0	2213.0	2237.0	2237.0	2237.0	2278.0	2278.0	2280.0	2280.0	2280.0	2318.0	2318.0	2318.0	2318.0	2318.0	2311.0	2311.0	2381.0	2381.0	2381.0	2370.0	2370.0	2368.0	2368.0	2368.0	2400.0	2400.0	2416.0	2416.0	2416.0	2388.0	2388.0	2403.0	2403.0	2403.0	2407.0	2407.0	2416.0	2416.0	2416.0	2444.0	2444.0	2442.0	2442.0	2442.0	2443.0	2443.0	2413.0	2413.0	2413.0	2449.0	2449.0	2468.0	2468.0	2468.0	2455.0	2455.0	2445.0	2445.0	2445.0	2426.0	2426.0	2464.0	2464.0	2464.0	2442.0	2442.0	2424.0	2424.0	2424.0	2460.0	2460.0	2443.0	2443.0	2443.0	2432.0	2432.0	2439.0	2439.0	2439.0	2431.0	2431.0	2452.0	2452.0	2452.0	2416.0	2416.0	2427.0	2427.0	2331.0	2441.0	2441.0	2413.0	2413.0	2405.0	2405.0	2405.0	2385.0	2385.0	2404.0	2404.0	2404.0	2379.0	2379.0	2391.0	2391.0	2391.0	2367.0	2367.0	2377.0	2377.0	2377.0	2368.0	2368.0	2381.0	2381.0	2381.0	2354.0	2354.0	2369.0	2369.0	2369.0	2390.0	2390.0	2373.0	2373.0	2373.0	2370.0	2370.0	2371.0	2371.0	2371.0	2345.0	2345.0	2345.0	2345.0	2345.0	2300.0	2300.0	2320.0	2320.0	2320.0	2299.0	2299.0	2318.0	2318.0	2318.0	2311.0	2311.0	2295.0	2295.0	2295.0	2257.0	2257.0	2267.0	2267.0	2267.0	2262.0	2262.0	2271.0	2271.0	2271.0	2278.0	2278.0	2211.0	2211.0	2211.0	2207.0	2207.0	2218.0	2218.0	2218.0	2220.0	2220.0	2183.0	2183.0	2183.0	2212.0	2212.0	2155.0	2155.0	2155.0	2153.0	2153.0	2166.0	2166.0	2166.0	2124.0	2124.0	2132.0	2132.0	2132.0	2138.0	2138.0	2095.0	2095.0	2095.0	2083.0	2083.0	2093.0	2093.0	2093.0	2094.0	2094.0	2050.0	2050.0	2050.0	2043.0	2043.0	2025.0	2025.0	2025.0	2022.0	2022.0	2035.0	2035.0	2035.0	2014.0	2014.0	2035.0	2035.0	2035.0	2000.0	2000.0	1983.0	1983.0	1983.0	1971.0	1971.0	1957.0	1957.0	1957.0	1964.0	1964.0	1987.0	1987.0	1987.0	1933.0	1933.0	1958.0	1958.0	1958.0	1920.0	1920.0	1954.0	1954.0	1954.0	1951.0	1951.0	1893.0	1893.0	1893.0	1916.0	1916.0	1935.0	1935.0	1935.0	1913.0	1913.0	1921.0	1921.0	1921.0	1895.0	1895.0	1891.0	1891.0	1891.0	1912.0	1912.0	1868.0	1868.0	1868.0	1856.0	1856.0	1859.0	1859.0	1859.0	1880.0	1880.0	1882.0	1882.0	1882.0	1841.0	1841.0	1883.0	1883.0	1883.0	1852.0	1852.0	1863.0	1863.0	1863.0	1830.0	1830.0	1860.0	1860.0	1861.0	1861.0	1861.0	1843.0	1843.0	1827.0	1827.0	1827.0	1848.0	1848.0	1818.0	1818.0	1818.0	1855.0	1855.0	1855.0	1855.0	1855.0	1823.0	1823.0	1849.0	1849.0	1849.0	1830.0	1830.0	1809.0	1809.0	1809.0	1807.0	1807.0	1839.0	1839.0	1839.0	1797.0	1797.0	1819.0	1819.0	1819.0	1828.0	1828.0	1795.0	1795.0	1795.0	1781.0	1781.0	1776.0	1776.0	1776.0	1813.0	1813.0	1813.0	1813.0	1813.0	1781.0	1781.0	1794.0	1794.0	1794.0	1766.0	1766.0	1762.0	1762.0	1762.0	1759.0	1759.0	1805.0	1805.0	1805.0	1779.0	1779.0	1800.0	1800.0	1800.0	1761.0	1761.0	1751.0	1751.0	1751.0	1761.0	1761.0	1744.0	1744.0	1744.0	1766.0	1766.0	1802.0	1802.0	1802.0	1737.0	1737.0	1771.0	1771.0	1771.0	1725.0	1725.0	1759.0	1759.0	1759.0	1725.0	1725.0	1729.0	1729.0	1729.0	1770.0	1770.0	1739.0	1739.0	1739.0	1743.0	1743.0	1734.0	1734.0	1734.0	1712.0	1712.0	1720.0	1720.0	1720.0	1760.0	1760.0	1755.0	1755.0	1755.0	1725.0	1725.0	1700.0	1700.0	1700.0	1748.0	1748.0	1710.0	1710.0	1710.0	1748.0	1748.0	1721.0	1721.0	1721.0	1716.0	1716.0	1723.0	1723.0	1723.0	1686.0	1686.0	1718.0	1718.0	1718.0	1735.0	1735.0	1718.0	1718.0	1718.0	1713.0	1713.0	1678.0	1678.0	1678.0	1693.0	1693.0	1732.0	1732.0	1732.0	1728.0	1728.0	1726.0	1726.0	1726.0	1714.0	1714.0	1720.0	1720.0	1720.0	1708.0	1708.0	1700.0	1700.0	1700.0	1697.0	1697.0	1718.0	1718.0	1718.0	1701.0	1701.0	1716.0	1716.0	1716.0	1667.0	1667.0	1670.0	1670.0	1670.0	1708.0	1708.0	1694.0	1694.0	1694.0	1659.0	1659.0	1715.0	1715.0	1659.0	1659.0	1659.0	1698.0	1698.0	1701.0	1701.0	1701.0	1680.0	1680.0	1674.0	1674.0	1674.0	1674.0	1674.0	1646.0	1646.0	1646.0	1701.0	1701.0	1664.0	1664.0	1664.0	1670.0	1670.0	1708.0	1708.0	1708.0	1659.0	1659.0	1673.0	1673.0	1673.0	1682.0	1682.0	1674.0	1674.0	1674.0	1664.0	1664.0	1694.0	1694.0	1694.0	1655.0	1655.0	1691.0	1691.0	1691.0	1644.0	1644.0	1685.0	1685.0	1685.0	1669.0	1669.0	1674.0	1674.0	1674.0	1729.0	1729.0	1704.0	1704.0	1704.0	1743.0	1743.0	1774.0	1774.0	1774.0	1765.0	1765.0	1793.0	1793.0	1793.0	1828.0	1828.0	1824.0	1824.0	1824.0	1862.0	1862.0	1880.0	1880.0	1880.0	1886.0	1886.0	1926.0	1926.0	1926.0	1939.0	1939.0	1984.0	1984.0	1984.0	2060.0	2060.0	2078.0	2078.0	2078.0	2071.0	2071.0	2111.0	2111.0	2111.0	2138.0	2138.0	2153.0	2153.0	2153.0	2191.0	2191.0	2209.0	2209.0	2209.0	2272.0	2272.0	2278.0	2278.0	2278.0	2278.0	2278.0	2339.0	2339.0	2339.0	2349.0	2349.0	2337.0	2337.0	2337.0	2384.0	2384.0	2409.0	2409.0	2409.0	2421.0	2421.0	2425.0	2425.0	2425.0	2411.0	2411.0	2454.0	2454.0	2454.0	2428.0	2428.0	2472.0	2472.0	2472.0	2485.0	2485.0	2485.0	2485.0	2485.0	2459.0	2459.0	2505.0	2505.0	2505.0	2484.0	2484.0	2485.0	2485.0	2485.0	2486.0	2486.0	2483.0	2483.0	2483.0	2515.0	2515.0	2516.0	2516.0	2516.0	2507.0	2507.0	2505.0	2505.0	2505.0	2521.0	2521.0	2505.0	2505.0	2505.0	2483.0	2483.0	2503.0	2503.0	2503.0	2497.0	2497.0	2496.0	2496.0	2496.0	2480.0	2480.0	2501.0	2501.0	2501.0	2507.0	2507.0	2466.0	2466.0	2466.0	2476.0	2476.0	2460.0	2460.0	2466.0	2466.0	2466.0	2472.0	2472.0	2429.0	2429.0	2429.0	2453.0	2453.0	2455.0	2455.0	2455.0	2413.0	2413.0	2442.0	2442.0	2442.0	2444.0	2444.0	2436.0	2436.0	2436.0	2422.0	2422.0	2453.0	2453.0	2453.0	2397.0	2397.0	2397.0	2397.0	2397.0	2378.0	2378.0	2409.0	2409.0	2409.0	2371.0	2371.0	2367.0	2367.0	2367.0	2375.0	2375.0	2375.0	2375.0	2375.0	2332.0	2332.0	2334.0	2334.0	2334.0	2341.0	2341.0	2297.0	2297.0	2297.0	2317.0	2317.0	2304.0	2304.0	2304.0	2311.0	2311.0	2290.0	2290.0	2290.0	2272.0	2272.0	2269.0	2269.0	2269.0	2276.0	2276.0	2252.0	2252.0	2252.0	2257.0	2257.0	2244.0	2244.0	2244.0	2234.0	2234.0	2213.0	2213.0	2213.0	2219.0	2219.0	2179.0	2179.0	2179.0	2200.0	2200.0	2156.0	2156.0	2156.0	2177.0	2177.0	2138.0	2138.0	2138.0	2124.0	2124.0	2152.0	2152.0	2152.0	2086.0	2086.0	2090.0	2090.0	2090.0	2092.0	2092.0	2076.0	2076.0	2076.0	2078.0	2078.0	2046.0	2046.0	2046.0	2082.0	2082.0	2019.0	2019.0	2019.0	2016.0	2016.0	2048.0	2048.0	2048.0	2024.0	2024.0	2026.0	2026.0	2026.0	2013.0	2013.0	1995.0	1995.0	1995.0	1998.0	1998.0	1960.0	1960.0	1960.0	1940.0	1940.0	1939.0	1939.0	1939.0	1951.0	1951.0	1971.0	1971.0	1971.0	1939.0	1939.0	1945.0	1945.0	1945.0	1955.0	1955.0	1956.0	1956.0	1956.0	1915.0	1915.0	1913.0	1913.0	1913.0	1941.0	1941.0	1896.0	1896.0	1896.0	1886.0	1886.0	1883.0	1883.0	1883.0	1895.0	1895.0	1881.0	1881.0	1881.0	1907.0	1907.0	1887.0	1887.0	1887.0	1859.0	1859.0	1891.0	1891.0	1891.0	1866.0	1866.0	1840.0	1840.0	1885.0	1885.0	1885.0	1831.0	1831.0	1865.0	1865.0	1865.0	1835.0	1835.0	1841.0	1841.0	1841.0	1852.0	1852.0	1827.0	1827.0	1827.0	1828.0	1828.0	1859.0	1859.0	1859.0	1827.0	1827.0	1848.0	1848.0	1848.0	1832.0	1832.0	1816.0	1816.0	1816.0	1826.0	1826.0	1801.0	1801.0	1801.0	1822.0	1822.0	1817.0	1817.0	1817.0	1810.0	1810.0	1795.0	1795.0	1795.0	1831.0	1831.0	1817.0	1817.0	1817.0	1805.0	1805.0	1835.0	1835.0	1835.0	1830.0	1830.0	1784.0	1784.0	1784.0	1779.0	1779.0	1808.0	1808.0	1808.0	1781.0	1781.0	1814.0	1814.0	1814.0	1759.0	1759.0	1815.0	1815.0	1815.0	1767.0	1767.0	1752.0	1752.0	1752.0	1800.0	1800.0	1799.0	1799.0	1799.0	1797.0	1797.0	1784.0	1784.0	1784.0	1772.0	1772.0	1743.0	1743.0	1743.0	1767.0	1767.0	1787.0	1787.0	1787.0	1775.0	1775.0	1770.0	1770.0	1770.0	1785.0	1785.0	1750.0	1750.0	1750.0	1731.0	1731.0	1738.0	1738.0	1738.0	1747.0	1747.0	1765.0	1765.0	1765.0	1730.0	1730.0	1753.0	1753.0	1753.0	1720.0	1720.0	1744.0	1744.0	1744.0	1733.0	1733.0	1750.0	1750.0	1750.0	1702.0	1702.0	1757.0	1757.0	1757.0	1754.0	1754.0	1714.0	1714.0	1714.0	1719.0	1719.0	1724.0	1724.0	1724.0	1719.0	1719.0	1689.0	1689.0	1689.0	1693.0	1693.0	1686.0	1686.0	1686.0	1681.0	1681.0	1712.0	1712.0	1712.0	1720.0	1720.0	1681.0	1681.0	1681.0	1686.0	1686.0	1690.0	1690.0	1690.0	1669.0	1669.0	1700.0	1700.0	1700.0	1696.0	1696.0	1666.0	1666.0	1666.0	1681.0	1681.0	1701.0	1701.0	1701.0	1717.0	1717.0	1681.0	1681.0	1681.0	1707.0	1707.0	1660.0	1660.0	1694.0	1694.0	1694.0	1696.0	1696.0	1698.0	1698.0	1698.0	1661.0	1661.0	1701.0	1701.0	1701.0	1655.0	1655.0	1704.0	1704.0	1704.0	1677.0	1677.0	1696.0	1696.0	1696.0	1701.0	1701.0	1698.0	1698.0	1698.0	1701.0	1701.0	1679.0	1679.0	1679.0	1660.0	1660.0	1698.0	1698.0	1698.0	1663.0	1663.0	1648.0	1648.0	1648.0	1692.0	1692.0	1692.0	1692.0	1692.0	1676.0	1676.0	1715.0	1715.0	1715.0	1680.0	1680.0	1664.0	1664.0	1664.0	1655.0	1655.0	1667.0	1667.0	1667.0	1719.0	1719.0	1710.0	1710.0	1710.0	1720.0	1720.0	1742.0	1742.0	1742.0	1744.0	1744.0	1751.0	1751.0	1751.0	1786.0	1786.0	1817.0	1817.0	1817.0	1847.0	1847.0	1852.0	1852.0	1852.0	1900.0	1900.0	1968.0	1968.0	1968.0	1975.0	1975.0	2000.0	2000.0	2000.0	2035.0	2035.0	2071.0	2071.0	2071.0	2083.0	2083.0	2099.0	2099.0	2099.0	2164.0	2164.0	2195.0	2195.0	2195.0	2210.0	2210.0	2222.0	2222.0	2222.0	2237.0	2237.0	2287.0	2287.0	2287.0	2320.0	2320.0	2312.0	2312.0	2312.0	2352.0	2352.0	2369.0	2369.0	2369.0	2382.0	2382.0	2390.0	2390.0	2390.0	2387.0	2387.0	2424.0	2424.0	2424.0	2445.0	2445.0	2415.0	2415.0	2415.0	2447.0	2447.0	2433.0	2433.0	2433.0	2463.0	2463.0	2469.0	2469.0	2469.0	2496.0	2496.0	2494.0	2494.0	2494.0	2472.0	2472.0	2496.0	2496.0	2496.0	2481.0	2481.0	2485.0	2485.0	2485.0	2490.0	2490.0	2469.0	2469.0	2469.0	2488.0	2488.0	2487.0	2487.0	2487.0	2522.0	2522.0	2476.0	2476.0	2476.0	2474.0	2474.0	2479.0	2479.0	2479.0	2475.0	2475.0	2464.0	2464.0	2464.0	2484.0	2484.0	2502.0	2502.0	2502.0	2482.0	2482.0	2460.0	2460.0	2468.0	2468.0	2468.0	2478.0	2478.0	2476.0	2476.0	2476.0	2475.0	2475.0	2433.0	2433.0	2433.0	2439.0	2439.0	2485.0	2485.0	2485.0	2424.0	2424.0	2448.0	2448.0	2448.0	2440.0	2440.0	2419.0	2419.0	2419.0	2409.0	2409.0	2394.0	2394.0	2394.0	2400.0	2400.0	2422.0	2422.0	2422.0	2400.0	2400.0	2369.0	2369.0	2369.0	2368.0	2368.0	2363.0	2363.0	2363.0	2362.0	2362.0	2380.0	2380.0	2380.0	2376.0	2376.0	2349.0	2349.0	2349.0	2354.0	2354.0	2313.0	2313.0	2313.0	2341.0	2341.0	2286.0	2286.0	2286.0	2277.0	2277.0	2270.0	2270.0	2270.0	2259.0	2259.0	2267.0	2267.0	2267.0	2259.0	2259.0	2254.0	2254.0	2254.0	2226.0	2226.0	2214.0	2214.0	2214.0	2192.0	2192.0	2193.0	2193.0	2193.0	2211.0	2211.0	2188.0	2188.0	2188.0	2181.0	2181.0	2140.0	2140.0	2140.0	2149.0	