1551.0	1551.0	1533.0	1533.0	1501.0	1501.0	1501.0	1452.0	1452.0	1420.0	1420.0	1420.0	1434.0	1434.0	1396.0	1396.0	1396.0	1398.0	1398.0	1396.0	1396.0	1396.0	1417.0	1417.0	1388.0	1388.0	1388.0	1387.0	1387.0	1422.0	1422.0	1422.0	1387.0	1387.0	1396.0	1396.0	1396.0	1439.0	1439.0	1384.0	1384.0	1384.0	1388.0	1388.0	1393.0	1393.0	1393.0	1420.0	1420.0	1424.0	1424.0	1424.0	1407.0	1407.0	1459.0	1459.0	1459.0	1431.0	1431.0	1406.0	1406.0	1406.0	1417.0	1417.0	1423.0	1423.0	1441.0	1441.0	1441.0	1446.0	1446.0	1475.0	1475.0	1475.0	1460.0	1460.0	1463.0	1463.0	1463.0	1498.0	1498.0	1485.0	1485.0	1485.0	1497.0	1497.0	1486.0	1486.0	1486.0	1534.0	1534.0	1536.0	1536.0	1536.0	1521.0	1521.0	1558.0	1558.0	1558.0	1563.0	1563.0	1584.0	1584.0	1584.0	1564.0	1564.0	1590.0	1590.0	1590.0	1614.0	1614.0	1614.0	1614.0	1614.0	1647.0	1647.0	1673.0	1673.0	1673.0	1686.0	1686.0	1700.0	1700.0	1700.0	1696.0	1696.0	1716.0	1716.0	1716.0	1717.0	1717.0	1726.0	1726.0	1726.0	1764.0	1764.0	1774.0	1774.0	1774.0	1796.0	1796.0	1782.0	1782.0	1782.0	1818.0	1818.0	1823.0	1823.0	1823.0	1878.0	1878.0	1877.0	1877.0	1877.0	1876.0	1876.0	1883.0	1883.0	1883.0	1886.0	1886.0	1928.0	1928.0	1928.0	1919.0	1919.0	1960.0	1960.0	1960.0	1950.0	1950.0	1957.0	1957.0	1957.0	1954.0	1954.0	1993.0	1993.0	1993.0	1979.0	1979.0	1985.0	1985.0	1985.0	1997.0	1997.0	2007.0	2007.0	2007.0	1986.0	1986.0	2020.0	2020.0	2020.0	2005.0	2005.0	2034.0	2034.0	2034.0	2027.0	2027.0	2035.0	2035.0	2035.0	2032.0	2032.0	2064.0	2064.0	2064.0	2046.0	2046.0	2044.0	2044.0	2044.0	2055.0	2055.0	2060.0	2060.0	2060.0	2054.0	2054.0	2068.0	2068.0	2068.0	2069.0	2069.0	2111.0	2111.0	2111.0	2107.0	2107.0	2116.0	2116.0	2116.0	2123.0	2123.0	2094.0	2094.0	2094.0	2129.0	2129.0	2087.0	2087.0	2087.0	2128.0	2128.0	2098.0	2098.0	2098.0	2120.0	2120.0	2101.0	2101.0	2101.0	2101.0	2101.0	2143.0	2143.0	2143.0	2119.0	2119.0	2150.0	2150.0	2150.0	2143.0	2143.0	2151.0	2151.0	2151.0	2148.0	2148.0	2155.0	2155.0	2133.0	2133.0	2133.0	2150.0	2150.0	2127.0	2127.0	2127.0	2119.0	2119.0	2107.0	2107.0	2107.0	2155.0	2155.0	2113.0	2113.0	2113.0	2165.0	2165.0	2146.0	2146.0	2146.0	2132.0	2132.0	2116.0	2116.0	2116.0	2115.0	2115.0	2101.0	2101.0	2101.0	2128.0	2128.0	2140.0	2140.0	2140.0	2138.0	2138.0	2131.0	2131.0	2131.0	2129.0	2129.0	2132.0	2132.0	2132.0	2108.0	2108.0	2122.0	2122.0	2122.0	2094.0	2094.0	2103.0	2103.0	2103.0	2100.0	2100.0	2111.0	2111.0	2111.0	2118.0	2118.0	2135.0	2135.0	2135.0	2098.0	2098.0	2093.0	2093.0	2093.0	2104.0	2104.0	2099.0	2099.0	2099.0	2121.0	2121.0	2110.0	2110.0	2110.0	2096.0	2096.0	2098.0	2098.0	2098.0	2106.0	2106.0	2083.0	2083.0	2083.0	2096.0	2096.0	2072.0	2072.0	2072.0	2074.0	2074.0	2086.0	2086.0	2086.0	2052.0	2052.0	2059.0	2059.0	2059.0	2079.0	2079.0	2050.0	2050.0	2050.0	2047.0	2047.0	2023.0	2023.0	2023.0	2037.0	2037.0	2044.0	2044.0	2044.0	2047.0	2047.0	2034.0	2034.0	2034.0	2034.0	2034.0	2014.0	2014.0	2014.0	2033.0	2033.0	1987.0	1987.0	1987.0	1995.0	1995.0	1999.0	1999.0	1999.0	2006.0	2006.0	1978.0	1978.0	1978.0	1975.0	1975.0	2019.0	2019.0	2019.0	1999.0	1999.0	1971.0	1971.0	1971.0	1973.0	1973.0	1961.0	1961.0	1961.0	2007.0	2007.0	1973.0	1973.0	1973.0	1990.0	1990.0	1967.0	1967.0	1967.0	1970.0	1970.0	1978.0	1978.0	1978.0	1989.0	1989.0	1987.0	1987.0	1987.0	1962.0	1962.0	1979.0	1979.0	1979.0	1974.0	1974.0	1957.0	1957.0	1957.0	1944.0	1944.0	1949.0	1949.0	1949.0	1964.0	1964.0	1946.0	1946.0	1986.0	1986.0	1986.0	1960.0	1960.0	1942.0	1942.0	1942.0	1966.0	1966.0	1955.0	1955.0	1955.0	1975.0	1975.0	1976.0	1976.0	1976.0	1947.0	1947.0	1970.0	1970.0	1970.0	1940.0	1940.0	1932.0	1932.0	1932.0	1942.0	1942.0	1933.0	1933.0	1933.0	1934.0	1934.0	1918.0	1918.0	1918.0	1933.0	1933.0	1950.0	1950.0	1950.0	1926.0	1926.0	1950.0	1950.0	1950.0	1920.0	1920.0	1957.0	1957.0	1957.0	1923.0	1923.0	1936.0	1936.0	1936.0	1938.0	1938.0	1937.0	1937.0	1937.0	1950.0	1950.0	1926.0	1926.0	1926.0	1955.0	1955.0	1930.0	1930.0	1930.0	1899.0	1899.0	1915.0	1915.0	1915.0	1937.0	1937.0	1922.0	1922.0	1922.0	1940.0	1940.0	1896.0	1896.0	1896.0	1900.0	1900.0	1919.0	1919.0	1919.0	1896.0	1896.0	1941.0	1941.0	1941.0	1913.0	1913.0	1921.0	1921.0	1921.0	1907.0	1907.0	1903.0	1903.0	1903.0	1893.0	1893.0	1885.0	1885.0	1885.0	1879.0	1879.0	1883.0	1883.0	1883.0	1924.0	1924.0	1914.0	1914.0	1914.0	1904.0	1904.0	1891.0	1891.0	1891.0	1889.0	1889.0	1914.0	1914.0	1914.0	1921.0	1921.0	1894.0	1894.0	1894.0	1893.0	1893.0	1899.0	1899.0	1899.0	1903.0	1903.0	1898.0	1898.0	1898.0	1893.0	1893.0	1885.0	1885.0	1885.0	1903.0	1903.0	1865.0	1865.0	1865.0	1881.0	1881.0	1896.0	1896.0	1896.0	1894.0	1894.0	1863.0	1863.0	1863.0	1889.0	1889.0	1886.0	1886.0	1886.0	1883.0	1883.0	1891.0	1891.0	1891.0	1861.0	1861.0	1868.0	1868.0	1868.0	1866.0	1866.0	1865.0	1865.0	1865.0	1863.0	1863.0	1853.0	1853.0	1853.0	1834.0	1834.0	1875.0	1875.0	1875.0	1881.0	1881.0	1840.0	1840.0	1868.0	1868.0	1868.0	1848.0	1848.0	1842.0	1842.0	1842.0	1844.0	1844.0	1867.0	1867.0	1867.0	1865.0	1865.0	1872.0	1872.0	1872.0	1843.0	1843.0	1866.0	1866.0	1866.0	1878.0	1878.0	1878.0	1878.0	1878.0	1838.0	1838.0	1873.0	1873.0	1873.0	1878.0	1878.0	1841.0	1841.0	1841.0	1835.0	1835.0	1835.0	1835.0	1835.0	1831.0	1831.0	1831.0	1831.0	1831.0	1870.0	1870.0	1867.0	1867.0	1867.0	1849.0	1849.0	1840.0	1840.0	1840.0	1831.0	1831.0	1839.0	1839.0	1839.0	1861.0	1861.0	1828.0	1828.0	1828.0	1827.0	1827.0	1846.0	1846.0	1846.0	1847.0	1847.0	1862.0	1862.0	1862.0	1825.0	1825.0	1862.0	1862.0	1862.0	1833.0	1833.0	1859.0	1859.0	1859.0	1847.0	1847.0	1814.0	1814.0	1814.0	1825.0	1825.0	1843.0	1843.0	1843.0	1823.0	1823.0	1841.0	1841.0	1841.0	1821.0	1821.0	1835.0	1835.0	1835.0	1823.0	1823.0	1839.0	1839.0	1839.0	1827.0	1827.0	1807.0	1807.0	1807.0	1840.0	1840.0	1863.0	1863.0	1863.0	1845.0	1845.0	1810.0	1810.0	1810.0	1858.0	1858.0	1847.0	1847.0	1847.0	1813.0	1813.0	1831.0	1831.0	1831.0	1832.0	1832.0	1852.0	1852.0	1852.0	1844.0	1844.0	1819.0	1819.0	1819.0	1821.0	1821.0	1829.0	1829.0	1829.0	1827.0	1827.0	1807.0	1807.0	1807.0	1809.0	1809.0	1819.0	1819.0	1819.0	1830.0	1830.0	1839.0	1839.0	1839.0	1847.0	1847.0	1820.0	1820.0	1820.0	1827.0	1827.0	1837.0	1837.0	1837.0	1828.0	1828.0	1863.0	1863.0	1863.0	1863.0	1863.0	1862.0	1862.0	1862.0	1823.0	1823.0	1853.0	1853.0	1853.0	1859.0	1859.0	1871.0	1871.0	1871.0	1838.0	1838.0	1871.0	1871.0	1871.0	1859.0	1859.0	1901.0	1901.0	1879.0	1879.0	1879.0	1900.0	1900.0	1904.0	1904.0	1904.0	1919.0	1919.0	1927.0	1927.0	1927.0	1930.0	1930.0	1959.0	1959.0	1959.0	1976.0	1976.0	2013.0	2013.0	2013.0	1996.0	1996.0	2020.0	2020.0	2020.0	2049.0	2049.0	2046.0	2046.0	2046.0	2021.0	2021.0	2076.0	2076.0	2076.0	2101.0	2101.0	2108.0	2108.0	2108.0	2104.0	2104.0	2125.0	2125.0	2125.0	2133.0	2133.0	2126.0	2126.0	2126.0	2164.0	2164.0	2167.0	2167.0	2167.0	2163.0	2163.0	2167.0	2167.0	2167.0	2168.0	2168.0	2194.0	2194.0	2194.0	2172.0	2172.0	2204.0	2204.0	2204.0	2192.0	2192.0	2208.0	2208.0	2208.0	2219.0	2219.0	2245.0	2245.0	2245.0	2241.0	2241.0	2230.0	2230.0	2230.0	2239.0	2239.0	2221.0	2221.0	2221.0	2248.0	2248.0	2277.0	2277.0	2277.0	2272.0	2272.0	2247.0	2247.0	2247.0	2276.0	2276.0	2245.0	2245.0	2245.0	2254.0	2254.0	2277.0	2277.0	2277.0	2310.0	2310.0	2277.0	2277.0	2277.0	2287.0	2287.0	2280.0	2280.0	2280.0	2281.0	2281.0	2295.0	2295.0	2295.0	2291.0	2291.0	2289.0	2289.0	2289.0	2267.0	2267.0	2273.0	2273.0	2273.0	2289.0	2289.0	2261.0	2261.0	2261.0	2287.0	2287.0	2257.0	2257.0	2257.0	2300.0	2300.0	2278.0	2278.0	2278.0	2293.0	2293.0	2277.0	2277.0	2277.0	2263.0	2263.0	2277.0	2277.0	2277.0	2265.0	2265.0	2268.0	2268.0	2268.0	2280.0	2280.0	2271.0	2271.0	2271.0	2280.0	2280.0	2275.0	2275.0	2275.0	2267.0	2267.0	2272.0	2272.0	2272.0	2263.0	2263.0	2282.0	2282.0	2282.0	2286.0	2286.0	2291.0	2291.0	2291.0	2254.0	2254.0	2285.0	2285.0	2285.0	2261.0	2261.0	2282.0	2282.0	2243.0	2243.0	2243.0	2250.0	2250.0	2243.0	2243.0	2243.0	2288.0	2288.0	2241.0	2241.0	2241.0	2248.0	2248.0	2249.0	2249.0	2249.0	2240.0	2240.0	2241.0	2241.0	2241.0	2257.0	2257.0	2221.0	2221.0	2221.0	2224.0	2224.0	2247.0	2247.0	2247.0	2254.0	2254.0	2239.0	2239.0	2239.0	2233.0	2233.0	2235.0	2235.0	2235.0	2211.0	2211.0	2201.0	2201.0	2201.0	2234.0	2234.0	2208.0	2208.0	2208.0	2203.0	2203.0	2206.0	2206.0	2206.0	2183.0	2183.0	2185.0	2185.0	2185.0	2203.0	2203.0	2183.0	2183.0	2183.0	2176.0	2176.0	2189.0	2189.0	2189.0	2179.0	2179.0	2176.0	2176.0	2176.0	2175.0	2175.0	2120.0	2120.0	2120.0	2133.0	2133.0	2162.0	2162.0	2162.0	2121.0	2121.0	2119.0	2119.0	2119.0	2157.0	2157.0	2108.0	2108.0	2108.0	2122.0	2122.0	2113.0	2113.0	2113.0	2094.0	2094.0	2092.0	2092.0	2092.0	2081.0	2081.0	2073.0	2073.0	2073.0	2095.0	2095.0	2078.0	2078.0	2078.0	2072.0	2072.0	2079.0	2079.0	2079.0	2056.0	2056.0	2087.0	2087.0	2087.0	2066.0	2066.0	2062.0	2062.0	2062.0	2062.0	2062.0	2070.0	2070.0	2070.0	2061.0	2061.0	2080.0	2080.0	2080.0	2048.0	2048.0	2082.0	2082.0	2082.0	2062.0	2062.0	2066.0	2066.0	2066.0	2020.0	2020.0	2058.0	2058.0	2058.0	2030.0	2030.0	2062.0	2062.0	2062.0	2075.0	2075.0	2025.0	2025.0	2025.0	2061.0	2061.0	2049.0	2049.0	2049.0	2053.0	2053.0	2022.0	2022.0	2022.0	2003.0	2003.0	2040.0	2040.0	2040.0	2032.0	2032.0	2051.0	2051.0	2051.0	2018.0	2018.0	2010.0	2010.0	2010.0	2031.0	2031.0	1996.0	1996.0	1996.0	2008.0	2008.0	2014.0	2014.0	2014.0	2047.0	2047.0	2021.0	2021.0	2024.0	2024.0	2024.0	2014.0	2014.0	2017.0	2017.0	2017.0	2009.0	2009.0	2011.0	2011.0	2011.0	1993.0	1993.0	2013.0	2013.0	2013.0	1994.0	1994.0	2031.0	2031.0	2031.0	2009.0	2009.0	1975.0	1975.0	1975.0	1988.0	1988.0	1963.0	1963.0	1963.0	1995.0	1995.0	2001.0	2001.0	2001.0	1971.0	1971.0	2004.0	2004.0	2004.0	1966.0	1966.0	1971.0	1971.0	1971.0	1957.0	1957.0	1965.0	1965.0	1965.0	2009.0	2009.0	1991.0	1991.0	1991.0	1974.0	1974.0	1984.0	1984.0	1984.0	1944.0	1944.0	1971.0	1971.0	1971.0	1950.0	1950.0	1947.0	1947.0	1947.0	1965.0	1965.0	1982.0	1982.0	1982.0	1987.0	1987.0	1957.0	1957.0	1957.0	1959.0	1959.0	1931.0	1931.0	1931.0	1955.0	1955.0	1965.0	1965.0	1965.0	1939.0	1939.0	1910.0	1910.0	1910.0	1959.0	1959.0	1967.0	1967.0	1967.0	1926.0	1926.0	1948.0	1948.0	1948.0	1910.0	1910.0	1916.0	1916.0	1916.0	1928.0	1928.0	1923.0	1923.0	1923.0	1916.0	1916.0	1934.0	1934.0	1934.0	1909.0	1909.0	1917.0	1917.0	1917.0	1957.0	1957.0	1901.0	1901.0	1901.0	1903.0	1903.0	1921.0	1921.0	1921.0	1895.0	1895.0	1940.0	1940.0	1940.0	1908.0	1908.0	1912.0	1912.0	1912.0	1926.0	1926.0	1898.0	1898.0	1898.0	1919.0	1919.0	1896.0	1896.0	1896.0	1884.0	1884.0	1897.0	1897.0	1897.0	1939.0	1939.0	1917.0	1917.0	1917.0	1923.0	1923.0	1888.0	1888.0	1888.0	1906.0	1906.0	1911.0	1911.0	1911.0	1915.0	1915.0	1879.0	1879.0	1879.0	1873.0	1873.0	1862.0	1862.0	1862.0	1877.0	1877.0	1887.0	1887.0	1887.0	1881.0	1881.0	1911.0	1911.0	1911.0	1894.0	1894.0	1878.0	1878.0	1901.0	1901.0	1901.0	1862.0	1862.0	1878.0	1878.0	1878.0	1917.0	1917.0	1881.0	1881.0	1881.0	1902.0	1902.0	1851.0	1851.0	1851.0	1887.0	1887.0	1873.0	1873.0	1873.0	1888.0	1888.0	1894.0	1894.0	1894.0	1862.0	1862.0	1902.0	1902.0	1902.0	1895.0	1895.0	1883.0	1883.0	1883.0	1855.0	1855.0	1852.0	1852.0	1852.0	1855.0	1855.0	1869.0	1869.0	1869.0	1847.0	1847.0	1871.0	1871.0	1871.0	1891.0	1891.0	1885.0	1885.0	1885.0	1877.0	1877.0	1870.0	1870.0	1870.0	1853.0	1853.0	1885.0	1885.0	1885.0	1858.0	1858.0	1855.0	1855.0	1855.0	1850.0	1850.0	1872.0	1872.0	1872.0	1881.0	1881.0	1899.0	1899.0	1899.0	1859.0	1859.0	1871.0	1871.0	1871.0	1893.0	1893.0	1838.0	1838.0	1838.0	1881.0	1881.0	1870.0	1870.0	1870.0	1883.0	1883.0	1878.0	1878.0	1878.0	1883.0	1883.0	1885.0	1885.0	1885.0	1889.0	1889.0	1840.0	1840.0	1840.0	1869.0	1869.0	1853.0	1853.0	1853.0	1843.0	1843.0	1836.0	1836.0	1836.0	1887.0	1887.0	1873.0	1873.0	1873.0	1866.0	1866.0	1863.0	1863.0	1863.0	1832.0	1832.0	1885.0	1885.0	1885.0	1859.0	1859.0	1838.0	1838.0	1838.0	1855.0	1855.0	1859.0	1859.0	1859.0	1871.0	1871.0	1835.0	1835.0	1835.0	1854.0	1854.0	1845.0	1845.0	1845.0	1865.0	1865.0	1850.0	1850.0	1850.0	1859.0	1859.0	1867.0	1867.0	1867.0	1881.0	1881.0	1862.0	1862.0	1862.0	1830.0	1830.0	1835.0	1835.0	1835.0	1855.0	1855.0	1856.0	1856.0	1856.0	1849.0	1849.0	1865.0	1865.0	1865.0	1838.0	1838.0	1834.0	1834.0	1834.0	1859.0	1859.0	1872.0	1872.0	1872.0	1835.0	1835.0	1880.0	1880.0	1833.0	1833.0	1833.0	1851.0	1851.0	1881.0	1881.0	1881.0	1842.0	1842.0	1845.0	1845.0	1845.0	1898.0	1898.0	1886.0	1886.0	1886.0	1878.0	1878.0	1913.0	1913.0	1913.0	1892.0	1892.0	1914.0	1914.0	1914.0	1925.0	1925.0	1933.0	1933.0	1933.0	1947.0	1947.0	1933.0	1933.0	1933.0	1942.0	1942.0	1962.0	1962.0	1962.0	2006.0	2006.0	2006.0	2006.0	2006.0	2034.0	2034.0	2006.0	2006.0	2006.0	2037.0	2037.0	2069.0	2069.0	2069.0	2061.0	2061.0	2051.0	2051.0	2051.0	2058.0	2058.0	2089.0	2089.0	2089.0	2098.0	2098.0	2130.0	2130.0	2130.0	2140.0	2140.0	2163.0	2163.0	2163.0	2172.0	2172.0	2185.0	2185.0	2185.0	2183.0	2183.0	2178.0	2178.0	2178.0	2213.0	2213.0	2192.0	2192.0	2192.0	2238.0	2238.0	2234.0	2234.0	2234.0	2205.0	2205.0	2220.0	2220.0	2220.0	2231.0	2231.0	2249.0	2249.0	2249.0	2276.0	2276.0	2258.0	2258.0	2258.0	2250.0	2250.0	2276.0	2276.0	2276.0	2287.0	2287.0	2274.0	2274.0	2274.0	2276.0	2276.0	2280.0	2280.0	2280.0	2303.0	2303.0	2284.0	2284.0	2284.0	2302.0	2302.0	2310.0	2310.0	2310.0	2304.0	2304.0	2321.0	2321.0	2321.0	2334.0	2334.0	2331.0	2331.0	2331.0	2309.0	2309.0	2341.0	2341.0	2341.0	2340.0	2340.0	2319.0	2319.0	2319.0	2321.0	2321.0	2303.0	2303.0	2303.0	2335.0	2335.0	2319.0	2319.0	2319.0	2305.0	2305.0	2343.0	2343.0	2343.0	2305.0	2305.0	2336.0	2336.0	2336.0	2344.0	2344.0	2328.0	2328.0	2328.0	2317.0	2317.0	2320.0	2320.0	2320.0	2306.0	2306.0	2333.0	2333.0	2333.0	2357.0	2357.0	2326.0	2326.0	2326.0	2345.0	2345.0	2296.0	2296.0	2296.0	2306.0	2306.0	2315.0	2315.0	2301.0	2301.0	2301.0	2298.0	2298.0	2315.0	2315.0	2315.0	2333.0	2333.0	2324.0	2324.0	2324.0	2291.0	2291.0	2330.0	2330.0	2330.0	2297.0	2297.0	2313.0	2313.0	2313.0	2313.0	2313.0	2319.0	2319.0	2319.0	2280.0	2280.0	2318.0	2318.0	2318.0	2275.0	2275.0	2279.0	2279.0	2279.0	2272.0	2272.0	2289.0	2289.0	2289.0	2265.0	2265.0	2286.0	2286.0	2286.0	2299.0	2299.0	2278.0	2278.0	2278.0	2288.0	2288.0	2256.0	2256.0	2256.0	2274.0	2274.0	2265.0	2265.0	2265.0	2281.0	2281.0	2245.0	2245.0	2245.0	2250.0	2250.0	2263.0	2263.0	2263.0	2256.0	2256.0	2255.0	2255.0	2255.0	2230.0	2230.0	2223.0	2223.0	2223.0	2249.0	2249.0	2234.0	2234.0	2234.0	2225.0	2225.0	2231.0	2231.0	2231.0	2210.0	2210.0	2185.0	2185.0	2185.0	2189.0	2189.0	2206.0	2206.0	2206.0	2180.0	2180.0	2172.0	2172.0	2172.0	2208.0	2208.0	2190.0	2190.0	2190.0	2157.0	2157.0	2140.0	2140.0	2140.0	2184.0	2184.0	2157.0	2157.0	2157.0	2124.0	2124.0	2139.0	2139.0	2139.0	2128.0	2128.0	2152.0	2152.0	2152.0	2143.0	2143.0	2128.0	2128.0	2128.0	2111.0	2111.0	2108.0	2108.0	2108.0	2093.0	2093.0	2129.0	2129.0	2129.0	2099.0	2099.0	2098.0	2098.0	2098.0	2110.0	2110.0	2114.0	2114.0	2114.0	2076.0	2076.0	2069.0	2069.0	2069.0	2063.0	2063.0	2069.0	2069.0	2069.0	2082.0	2082.0	2059.0	2059.0	2059.0	2071.0	2071.0	2067.0	2067.0	2067.0	2078.0	2078.0	2048.0	2048.0	2048.0	2044.0	2044.0	2042.0	2042.0	2042.0	2053.0	2053.0	2058.0	2058.0	2058.0	2071.0	2071.0	2060.0	