1775.0	1775.0	1775.0	1790.0	1790.0	1782.0	1782.0	1782.0	1777.0	1777.0	1803.0	1803.0	1803.0	1819.0	1819.0	1743.0	1743.0	1743.0	1830.0	1830.0	1740.0	1740.0	1740.0	1750.0	1750.0	1754.0	1754.0	1754.0	1830.0	1830.0	1782.0	1782.0	1782.0	1771.0	1771.0	1812.0	1812.0	1812.0	1787.0	1787.0	1781.0	1781.0	1795.0	1795.0	1795.0	1758.0	1758.0	1791.0	1791.0	1791.0	1710.0	1710.0	1791.0	1791.0	1791.0	1784.0	1784.0	1754.0	1754.0	1754.0	1704.0	1704.0	1749.0	1749.0	1749.0	1767.0	1767.0	1735.0	1735.0	1735.0	1794.0	1794.0	1694.0	1694.0	1694.0	1769.0	1769.0	1792.0	1792.0	1792.0	1795.0	1795.0	1786.0	1786.0	1786.0	1765.0	1765.0	1784.0	1784.0	1784.0	1736.0	1736.0	1747.0	1747.0	1747.0	1691.0	1691.0	1681.0	1681.0	1681.0	1775.0	1775.0	1701.0	1701.0	1701.0	1687.0	1687.0	1757.0	1757.0	1757.0	1751.0	1751.0	1668.0	1668.0	1668.0	1676.0	1676.0	1760.0	1760.0	1760.0	1759.0	1759.0	1703.0	1703.0	1703.0	1688.0	1688.0	1705.0	1705.0	1705.0	1739.0	1739.0	1771.0	1771.0	1771.0	1721.0	1721.0	1677.0	1677.0	1677.0	1667.0	1667.0	1721.0	1721.0	1721.0	1689.0	1689.0	1674.0	1674.0	1674.0	1703.0	1703.0	1697.0	1697.0	1697.0	1666.0	1666.0	1681.0	1681.0	1681.0	1667.0	1667.0	1702.0	1702.0	1702.0	1769.0	1769.0	1689.0	1689.0	1689.0	1675.0	1675.0	1764.0	1764.0	1764.0	1759.0	1759.0	1682.0	1682.0	1682.0	1727.0	1727.0	1717.0	1717.0	1717.0	1711.0	1711.0	1735.0	1735.0	1735.0	1716.0	1716.0	1767.0	1767.0	1767.0	1755.0	1755.0	1674.0	1674.0	1674.0	1686.0	1686.0	1764.0	1764.0	1764.0	1678.0	1678.0	1676.0	1676.0	1676.0	1677.0	1677.0	1754.0	1754.0	1754.0	1691.0	1691.0	1687.0	1687.0	1687.0	1704.0	1704.0	1752.0	1752.0	1752.0	1663.0	1663.0	1758.0	1758.0	1758.0	1716.0	1716.0	1656.0	1656.0	1656.0	1658.0	1658.0	1750.0	1750.0	1750.0	1657.0	1657.0	1746.0	1746.0	1682.0	1682.0	1682.0	1670.0	1670.0	1663.0	1663.0	1663.0	1751.0	1751.0	1698.0	1698.0	1698.0	1752.0	1752.0	1744.0	1744.0	1744.0	1671.0	1671.0	1742.0	1742.0	1742.0	1767.0	1767.0	1768.0	1768.0	1768.0	1718.0	1718.0	1703.0	1703.0	1703.0	1704.0	1704.0	1822.0	1822.0	1822.0	1817.0	1817.0	1795.0	1795.0	1795.0	1871.0	1871.0	1785.0	1785.0	1785.0	1894.0	1894.0	1823.0	1823.0	1823.0	1890.0	1890.0	1931.0	1931.0	1931.0	1938.0	1938.0	1935.0	1935.0	1935.0	1985.0	1985.0	2073.0	2073.0	2073.0	2041.0	2041.0	2059.0	2059.0	2059.0	2117.0	2117.0	2172.0	2172.0	2172.0	2196.0	2196.0	2228.0	2228.0	2228.0	2179.0	2179.0	2213.0	2213.0	2213.0	2197.0	2197.0	2316.0	2316.0	2316.0	2306.0	2306.0	2332.0	2332.0	2332.0	2280.0	2280.0	2367.0	2367.0	2367.0	2307.0	2307.0	2339.0	2339.0	2339.0	2339.0	2339.0	2415.0	2415.0	2415.0	2458.0	2458.0	2474.0	2474.0	2474.0	2480.0	2480.0	2399.0	2399.0	2399.0	2410.0	2410.0	2430.0	2430.0	2430.0	2496.0	2496.0	2456.0	2456.0	2456.0	2451.0	2451.0	2513.0	2513.0	2513.0	2462.0	2462.0	2478.0	2478.0	2478.0	2513.0	2513.0	2468.0	2468.0	2468.0	2575.0	2575.0	2536.0	2536.0	2536.0	2566.0	2566.0	2571.0	2571.0	2571.0	2485.0	2485.0	2580.0	2580.0	2580.0	2585.0	2585.0	2490.0	2490.0	2490.0	2502.0	2502.0	2548.0	2548.0	2548.0	2555.0	2555.0	2565.0	2565.0	2565.0	2478.0	2478.0	2491.0	2491.0	2491.0	2524.0	2524.0	2469.0	2469.0	2469.0	2469.0	2469.0	2492.0	2492.0	2492.0	2460.0	2460.0	2507.0	2507.0	2507.0	2538.0	2538.0	2486.0	2486.0	2532.0	2532.0	2532.0	2507.0	2507.0	2465.0	2465.0	2465.0	2473.0	2473.0	2487.0	2487.0	2487.0	2503.0	2503.0	2501.0	2501.0	2501.0	2443.0	2443.0	2489.0	2489.0	2489.0	2418.0	2418.0	2387.0	2387.0	2387.0	2439.0	2439.0	2397.0	2397.0	2397.0	2365.0	2365.0	2390.0	2390.0	2390.0	2415.0	2415.0	2391.0	2391.0	2391.0	2408.0	2408.0	2408.0	2408.0	2408.0	2372.0	2372.0	2291.0	2291.0	2291.0	2370.0	2370.0	2315.0	2315.0	2315.0	2353.0	2353.0	2254.0	2254.0	2254.0	2304.0	2304.0	2220.0	2220.0	2220.0	2202.0	2202.0	2264.0	2264.0	2264.0	2278.0	2278.0	2203.0	2203.0	2203.0	2255.0	2255.0	2210.0	2210.0	2210.0	2180.0	2180.0	2203.0	2203.0	2203.0	2201.0	2201.0	2189.0	2189.0	2189.0	2147.0	2147.0	2104.0	2104.0	2104.0	2083.0	2083.0	2148.0	2148.0	2148.0	2060.0	2060.0	2084.0	2084.0	2084.0	2120.0	2120.0	2016.0	2016.0	2016.0	2087.0	2087.0	2003.0	2003.0	2003.0	2087.0	2087.0	2003.0	2003.0	2003.0	2072.0	2072.0	2048.0	2048.0	2048.0	1992.0	1992.0	2055.0	2055.0	2055.0	1991.0	1991.0	2017.0	2017.0	2017.0	2002.0	2002.0	1937.0	1937.0	1937.0	2020.0	2020.0	1936.0	1936.0	1936.0	1927.0	1927.0	1911.0	1911.0	1911.0	1915.0	1915.0	1910.0	1910.0	1910.0	2002.0	2002.0	1950.0	1950.0	1950.0	1962.0	1962.0	1935.0	1935.0	1935.0	1886.0	1886.0	1883.0	1883.0	1883.0	1976.0	1976.0	1975.0	1975.0	1975.0	1877.0	1877.0	1916.0	1916.0	1916.0	1962.0	1962.0	1946.0	1946.0	1946.0	1866.0	1866.0	1875.0	1875.0	1875.0	1942.0	1942.0	1846.0	1846.0	1846.0	1912.0	1912.0	1930.0	1930.0	1930.0	1841.0	1841.0	1935.0	1935.0	1835.0	1835.0	1835.0	1888.0	1888.0	1831.0	1831.0	1831.0	1863.0	1863.0	1821.0	1821.0	1821.0	1823.0	1823.0	1809.0	1809.0	1809.0	1899.0	1899.0	1811.0	1811.0	1811.0	1802.0	1802.0	1835.0	1835.0	1835.0	1804.0	1804.0	1874.0	1874.0	1874.0	1794.0	1794.0	1843.0	1843.0	1843.0	1877.0	1877.0	1873.0	1873.0	1873.0	1881.0	1881.0	1804.0	1804.0	1804.0	1862.0	1862.0	1869.0	1869.0	1869.0	1859.0	1859.0	1791.0	1791.0	1791.0	1801.0	1801.0	1771.0	1771.0	1771.0	1853.0	1853.0	1814.0	1814.0	1814.0	1851.0	1851.0	1810.0	1810.0	1810.0	1792.0	1792.0	1804.0	1804.0	1804.0	1829.0	1829.0	1839.0	1839.0	1839.0	1811.0	1811.0	1754.0	1754.0	1754.0	1836.0	1836.0	1839.0	1839.0	1839.0	1782.0	1782.0	1823.0	1823.0	1823.0	1833.0	1833.0	1775.0	1775.0	1775.0	1796.0	1796.0	1819.0	1819.0	1819.0	1777.0	1777.0	1774.0	1774.0	1774.0	1763.0	1763.0	1799.0	1799.0	1799.0	1780.0	1780.0	1722.0	1722.0	1722.0	1790.0	1790.0	1802.0	1802.0	1802.0	1772.0	1772.0	1749.0	1749.0	1749.0	1747.0	1747.0	1765.0	1765.0	1765.0	1738.0	1738.0	1766.0	1766.0	1766.0	1717.0	1717.0	1801.0	1801.0	1801.0	1800.0	1800.0	1707.0	1707.0	1707.0	1709.0	1709.0	1707.0	1707.0	1707.0	1723.0	1723.0	1702.0	1702.0	1702.0	1713.0	1713.0	1763.0	1763.0	1763.0	1762.0	1762.0	1778.0	1778.0	1778.0	1724.0	1724.0	1743.0	1743.0	1743.0	1759.0	1759.0	1740.0	1740.0	1740.0	1767.0	1767.0	1724.0	1724.0	1724.0	1772.0	1772.0	1710.0	1710.0	1710.0	1695.0	1695.0	1779.0	1779.0	1779.0	1772.0	1772.0	1760.0	1760.0	1742.0	1742.0	1742.0	1720.0	1720.0	1718.0	1718.0	1718.0	1701.0	1701.0	1772.0	1772.0	1772.0	1773.0	1773.0	1774.0	1774.0	1774.0	1729.0	1729.0	1691.0	1691.0	1691.0	1758.0	1758.0	1719.0	1719.0	1719.0	1739.0	1739.0	1764.0	1764.0	1764.0	1740.0	1740.0	1757.0	1757.0	1757.0	1712.0	1712.0	1714.0	1714.0	1714.0	1752.0	1752.0	1674.0	1674.0	1674.0	1682.0	1682.0	1765.0	1765.0	1765.0	1687.0	1687.0	1782.0	1782.0	1782.0	1695.0	1695.0	1784.0	1784.0	1784.0	1785.0	1785.0	1690.0	1690.0	1690.0	1687.0	1687.0	1758.0	1758.0	1758.0	1688.0	1688.0	1698.0	1698.0	1698.0	1785.0	1785.0	1732.0	1732.0	1732.0	1737.0	1737.0	1788.0	1788.0	1788.0	1744.0	1744.0	1711.0	1711.0	1711.0	1794.0	1794.0	1744.0	1744.0	1744.0	1705.0	1705.0	1719.0	1719.0	1719.0	1797.0	1797.0	1702.0	1702.0	1702.0	1704.0	1704.0	1749.0	1749.0	1749.0	1781.0	1781.0	1810.0	1810.0	1810.0	1822.0	1822.0	1820.0	1820.0	1820.0	1826.0	1826.0	1774.0	1774.0	1774.0	1788.0	1788.0	1804.0	1804.0	1804.0	1925.0	1925.0	1884.0	1884.0	1884.0	1960.0	1960.0	1950.0	1950.0	1950.0	2023.0	2023.0	1984.0	1984.0	1984.0	2070.0	2070.0	2020.0	2020.0	2020.0	2119.0	2119.0	2057.0	2057.0	2057.0	2177.0	2177.0	2201.0	2201.0	2201.0	2228.0	2228.0	2222.0	2222.0	2222.0	2187.0	2187.0	2208.0	2208.0	2208.0	2316.0	2316.0	2248.0	2248.0	2248.0	2338.0	2338.0	2295.0	2295.0	2295.0	2335.0	2335.0	2424.0	2424.0	2424.0	2432.0	2432.0	2456.0	2456.0	2456.0	2460.0	2460.0	2469.0	2469.0	2469.0	2401.0	2401.0	2413.0	2413.0	2425.0	2425.0	2425.0	2487.0	2487.0	2495.0	2495.0	2495.0	2522.0	2522.0	2519.0	2519.0	2519.0	2479.0	2479.0	2497.0	2497.0	2497.0	2489.0	2489.0	2592.0	2592.0	2592.0	2586.0	2586.0	2517.0	2517.0	2517.0	2614.0	2614.0	2614.0	2614.0	2614.0	2594.0	2594.0	2540.0	2540.0	2540.0	2531.0	2531.0	2612.0	2612.0	2612.0	2544.0	2544.0	2544.0	2544.0	2544.0	2615.0	2615.0	2633.0	2633.0	2633.0	2579.0	2579.0	2636.0	2636.0	2636.0	2552.0	2552.0	2564.0	2564.0	2564.0	2537.0	2537.0	2558.0	2558.0	2558.0	2624.0	2624.0	2587.0	2587.0	2587.0	2576.0	2576.0	2526.0	2526.0	2526.0	2538.0	2538.0	2585.0	2585.0	2585.0	2541.0	2541.0	2515.0	2515.0	2515.0	2530.0	2530.0	2499.0	2499.0	2499.0	2469.0	2469.0	2555.0	2555.0	2555.0	2506.0	2506.0	2444.0	2444.0	2444.0	2444.0	2444.0	2444.0	2444.0	2444.0	2521.0	2521.0	2441.0	2441.0	2441.0	2417.0	2417.0	2398.0	2398.0	2398.0	2392.0	2392.0	2430.0	2430.0	2430.0	2377.0	2377.0	2438.0	2438.0	2438.0	2348.0	2348.0	2372.0	2372.0	2372.0	2358.0	2358.0	2410.0	2410.0	2410.0	2401.0	2401.0	2307.0	2307.0	2307.0	2292.0	2292.0	2355.0	2355.0	2355.0	2261.0	2261.0	2290.0	2290.0	2290.0	2228.0	2228.0	2245.0	2245.0	2245.0	2258.0	2258.0	2221.0	2221.0	2221.0	2284.0	2284.0	2172.0	2172.0	2172.0	2241.0	2241.0	2232.0	2232.0	2232.0	2155.0	2155.0	2225.0	2225.0	2225.0	2126.0	2126.0	2202.0	2202.0	2202.0	2096.0	2096.0	2121.0	2121.0	2121.0	2152.0	2152.0	2075.0	2075.0	2075.0	2110.0	2110.0	2139.0	2139.0	2139.0	2063.0	2063.0	2121.0	2121.0	2121.0	2075.0	2075.0	2015.0	2015.0	2036.0	2036.0	2036.0	2010.0	2010.0	2059.0	2059.0	2059.0	2058.0	2058.0	2028.0	2028.0	2028.0	2028.0	2028.0	1986.0	1986.0	1986.0	2033.0	2033.0	1956.0	1956.0	1956.0	2029.0	2029.0	1973.0	1973.0	1973.0	2032.0	2032.0	1987.0	1987.0	1987.0	1977.0	1977.0	2027.0	2027.0	2027.0	1926.0	1926.0	1987.0	1987.0	1987.0	1993.0	1993.0	1985.0	1985.0	1985.0	1940.0	1940.0	1907.0	1907.0	1907.0	1909.0	1909.0	1985.0	1985.0	1985.0	1920.0	1920.0	1988.0	1988.0	1988.0	1981.0	1981.0	1886.0	1886.0	1886.0	1953.0	1953.0	1964.0	1964.0	1964.0	1936.0	1936.0	1887.0	1887.0	1887.0	1949.0	1949.0	1862.0	1862.0	1862.0	1887.0	1887.0	1935.0	1935.0	1935.0	1887.0	1887.0	1853.0	1853.0	1853.0	1896.0	1896.0	1887.0	1887.0	1887.0	1860.0	1860.0	1923.0	1923.0	1923.0	1849.0	1849.0	1930.0	1930.0	1930.0	1845.0	1845.0	1903.0	1903.0	1903.0	1891.0	1891.0	1888.0	1888.0	1888.0	1888.0	1888.0	1874.0	1874.0	1874.0	1813.0	1813.0	1844.0	1844.0	1844.0	1884.0	1884.0	1801.0	1801.0	1801.0	1791.0	1791.0	1805.0	1805.0	1805.0	1885.0	1885.0	1803.0	1803.0	1803.0	1867.0	1867.0	1841.0	1841.0	1841.0	1806.0	1806.0	1818.0	1818.0	1818.0	1778.0	1778.0	1782.0	1782.0	1782.0	1799.0	1799.0	1837.0	1837.0	1837.0	1821.0	1821.0	1760.0	1760.0	1760.0	1845.0	1845.0	1776.0	1776.0	1776.0	1831.0	1831.0	1744.0	1744.0	1744.0	1775.0	1775.0	1768.0	1768.0	1768.0	1763.0	1763.0	1794.0	1794.0	1794.0	1795.0	1795.0	1793.0	1793.0	1793.0	1783.0	1783.0	1804.0	1804.0	1804.0	1820.0	1820.0	1833.0	1833.0	1754.0	1754.0	1754.0	1821.0	1821.0	1818.0	1818.0	1818.0	1769.0	1769.0	1724.0	1724.0	1724.0	1815.0	1815.0	1735.0	1735.0	1735.0	1723.0	1723.0	1809.0	1809.0	1809.0	1768.0	1768.0	1811.0	1811.0	1811.0	1735.0	1735.0	1815.0	1815.0	1815.0	1716.0	1716.0	1808.0	1808.0	1808.0	1758.0	1758.0	1805.0	1805.0	1805.0	1745.0	1745.0	1732.0	1732.0	1732.0	1739.0	1739.0	1728.0	1728.0	1728.0	1734.0	1734.0	1705.0	1705.0	1705.0	1715.0	1715.0	1719.0	1719.0	1719.0	1732.0	1732.0	1781.0	1781.0	1781.0	1716.0	1716.0	1733.0	1733.0	1733.0	1816.0	1816.0	1755.0	1755.0	1755.0	1811.0	1811.0	1746.0	1746.0	1746.0	1809.0	1809.0	1740.0	1740.0	1740.0	1771.0	1771.0	1779.0	1779.0	1779.0	1765.0	1765.0	1802.0	1802.0	1802.0	1707.0	1707.0	1765.0	1765.0	1765.0	1708.0	1708.0	1787.0	1787.0	1787.0	1802.0	1802.0	1748.0	1748.0	1748.0	1758.0	1758.0	1719.0	1719.0	1719.0	1707.0	1707.0	1766.0	1766.0	1766.0	1728.0	1728.0	1791.0	1791.0	1791.0	1777.0	1777.0	1728.0	1728.0	1728.0	1763.0	1763.0	1716.0	1716.0	1716.0	1726.0	1726.0	1758.0	1758.0	1758.0	1794.0	1794.0	1791.0	1791.0	1791.0	1793.0	1793.0	1710.0	1710.0	1710.0	1703.0	1703.0	1724.0	1724.0	1724.0	1719.0	1719.0	1789.0	1789.0	1789.0	1729.0	1729.0	1723.0	1723.0	1723.0	1739.0	1739.0	1762.0	1762.0	1762.0	1787.0	1787.0	1796.0	1796.0	1796.0	1793.0	1793.0	1695.0	1695.0	1695.0	1762.0	1762.0	1740.0	1740.0	1740.0	1747.0	1747.0	1698.0	1698.0	1698.0	1721.0	1721.0	1736.0	1736.0	1736.0	1771.0	1771.0	1708.0	1708.0	1708.0	1781.0	1781.0	1760.0	1760.0	1820.0	1820.0	1820.0	1820.0	1820.0	1769.0	1769.0	1769.0	1780.0	1780.0	1775.0	1775.0	1775.0	1886.0	1886.0	1835.0	1835.0	1835.0	1916.0	1916.0	1855.0	1855.0	1855.0	1884.0	1884.0	1907.0	1907.0	1907.0	2015.0	2015.0	1969.0	1969.0	1969.0	1998.0	1998.0	2078.0	2078.0	2078.0	2043.0	2043.0	2140.0	2140.0	2140.0	2089.0	2089.0	2175.0	2175.0	2175.0	2227.0	2227.0	2174.0	2174.0	2174.0	2254.0	2254.0	2268.0	2268.0	2268.0	2296.0	2296.0	2245.0	2245.0	2245.0	2341.0	2341.0	2282.0	2282.0	2282.0	2361.0	2361.0	2415.0	2415.0	2415.0	2367.0	2367.0	2382.0	2382.0	2382.0	2451.0	2451.0	2435.0	2435.0	2435.0	2493.0	2493.0	2416.0	2416.0	2416.0	2497.0	2497.0	2452.0	2452.0	2452.0	2481.0	2481.0	2548.0	2548.0	2548.0	2490.0	2490.0	2574.0	2574.0	2574.0	2587.0	2587.0	2598.0	2598.0	2598.0	2610.0	2610.0	2520.0	2520.0	2520.0	2612.0	2612.0	2527.0	2527.0	2527.0	2538.0	2538.0	2629.0	2629.0	2629.0	2574.0	2574.0	2550.0	2550.0	2550.0	2617.0	2617.0	2581.0	2581.0	2581.0	2602.0	2602.0	2600.0	2600.0	2600.0	2646.0	2646.0	2586.0	2586.0	2586.0	2630.0	2630.0	2559.0	2559.0	2559.0	2563.0	2563.0	2562.0	2562.0	2562.0	2586.0	2586.0	2570.0	2570.0	2570.0	2637.0	2637.0	2600.0	2600.0	2600.0	2549.0	2549.0	2556.0	2556.0	2556.0	2543.0	2543.0	2555.0	2555.0	2555.0	2590.0	2590.0	2586.0	2586.0	2586.0	2605.0	2605.0	2536.0	2536.0	2536.0	2503.0	2503.0	2564.0	2564.0	2564.0	2526.0	2526.0	2537.0	2537.0	2537.0	2558.0	2558.0	2523.0	2523.0	2523.0	2561.0	2561.0	2531.0	2531.0	2466.0	2466.0	2466.0	2440.0	2440.0	2447.0	2447.0	2447.0	2495.0	2495.0	2429.0	2429.0	2429.0	2462.0	2462.0	2422.0	2422.0	2422.0	2420.0	2420.0	2401.0	2401.0	2401.0	2454.0	2454.0	2450.0	2450.0	2450.0	2331.0	2331.0	2394.0	2394.0	2394.0	2356.0	2356.0	2322.0	2322.0	2322.0	2359.0	2359.0	2274.0	2274.0	2274.0	2283.0	2283.0	2251.0	2251.0	2251.0	2241.0	2241.0	2319.0	2319.0	2319.0	2250.0	2250.0	2212.0	2212.0	2212.0	2192.0	2192.0	2184.0	2184.0	2184.0	2166.0	2166.0	2209.0	2209.0	2209.0	2223.0	2223.0	2160.0	2160.0	2160.0	2119.0	2119.0	2128.0	2128.0	2128.0	2100.0	2100.0	2162.0	2162.0	2162.0	2167.0	2167.0	2074.0	2074.0	2074.0	2127.0	2127.0	2051.0	2051.0	2051.0	2082.0	2082.0	2044.0	2044.0	2044.0	2107.0	2107.0	2088.0	2088.0	2088.0	2071.0	2071.0	2094.0	2094.0	2094.0	2024.0	2024.0	2029.0	2029.0	2029.0	2055.0	2055.0	2019.0	2019.0	2019.0	2017.0	2017.0	2050.0	2050.0	2050.0	2007.0	2007.0	1948.0	1948.0	1948.0	1975.0	1975.0	1944.0	1944.0	1944.0	1967.0	1967.0	1953.0	1953.0	1953.0	1967.0	1967.0	1983.0	1983.0	1983.0	1934.0	1934.0	1980.0	1980.0	1980.0	1930.0	1930.0	1908.0	1908.0	1908.0	1978.0	1978.0	2004.0	2004.0	2004.0	1893.0	1893.0	1974.0	1974.0	1974.0	1900.0	1900.0	1928.0	1928.0	1928.0	1966.0	1966.0	1868.0	1868.0	1868.0	1881.0	1881.0	1954.0	1954.0	1954.0	1942.0	1942.0	1882.0	1882.0	1882.0	1858.0	1858.0	1854.0	1854.0	1854.0	1937.0	1937.0	1852.0	1852.0	1852.0	1945.0	1945.0	1862.0	1862.0	1862.0	1941.0	1941.0	1843.0	1843.0	1847.0	1847.0	1847.0	1858.0	1858.0	1831.0	1831.0	1831.0	1920.0	1920.0	1828.0	1828.0	1828.0	1849.0	1849.0	1875.0	1875.0	1875.0	1899.0	1899.0	1888.0	1888.0	1888.0	