1764.0	1763.0	1763.0	1763.0	1673.0	1673.0	1724.0	1724.0	1724.0	1673.0	1673.0	1664.0	1664.0	1664.0	1683.0	1683.0	1757.0	1757.0	1757.0	1695.0	1695.0	1734.0	1734.0	1734.0	1755.0	1755.0	1749.0	1749.0	1749.0	1685.0	1685.0	1677.0	1677.0	1677.0	1661.0	1661.0	1661.0	1661.0	1661.0	1751.0	1751.0	1659.0	1659.0	1659.0	1757.0	1757.0	1661.0	1661.0	1661.0	1678.0	1678.0	1682.0	1682.0	1682.0	1673.0	1673.0	1703.0	1703.0	1703.0	1690.0	1690.0	1736.0	1736.0	1736.0	1680.0	1680.0	1715.0	1715.0	1692.0	1692.0	1692.0	1698.0	1698.0	1739.0	1739.0	1739.0	1753.0	1753.0	1744.0	1744.0	1744.0	1756.0	1756.0	1737.0	1737.0	1737.0	1747.0	1747.0	1671.0	1671.0	1671.0	1660.0	1660.0	1752.0	1752.0	1752.0	1751.0	1751.0	1748.0	1748.0	1748.0	1720.0	1720.0	1657.0	1657.0	1657.0	1676.0	1676.0	1754.0	1754.0	1754.0	1741.0	1741.0	1657.0	1657.0	1657.0	1663.0	1663.0	1691.0	1691.0	1691.0	1662.0	1662.0	1731.0	1731.0	1731.0	1675.0	1675.0	1660.0	1660.0	1660.0	1752.0	1752.0	1659.0	1659.0	1659.0	1688.0	1688.0	1706.0	1706.0	1706.0	1692.0	1692.0	1750.0	1750.0	1750.0	1731.0	1731.0	1754.0	1754.0	1754.0	1661.0	1661.0	1729.0	1729.0	1729.0	1663.0	1663.0	1688.0	1688.0	1688.0	1671.0	1671.0	1747.0	1747.0	1747.0	1765.0	1765.0	1755.0	1755.0	1755.0	1697.0	1697.0	1729.0	1729.0	1729.0	1689.0	1689.0	1733.0	1733.0	1733.0	1812.0	1812.0	1816.0	1816.0	1816.0	1743.0	1743.0	1766.0	1766.0	1766.0	1775.0	1775.0	1820.0	1820.0	1820.0	1826.0	1826.0	1876.0	1876.0	1876.0	1958.0	1958.0	1894.0	1894.0	1894.0	2019.0	2019.0	1990.0	1990.0	1990.0	2001.0	2001.0	2027.0	2027.0	2027.0	2110.0	2110.0	2121.0	2121.0	2121.0	2146.0	2146.0	2142.0	2142.0	2142.0	2175.0	2175.0	2246.0	2246.0	2246.0	2188.0	2188.0	2216.0	2216.0	2216.0	2278.0	2278.0	2299.0	2299.0	2299.0	2353.0	2353.0	2306.0	2306.0	2306.0	2347.0	2347.0	2371.0	2371.0	2371.0	2450.0	2450.0	2384.0	2384.0	2384.0	2402.0	2402.0	2447.0	2447.0	2447.0	2501.0	2501.0	2464.0	2464.0	2464.0	2438.0	2438.0	2454.0	2454.0	2519.0	2519.0	2519.0	2555.0	2555.0	2560.0	2560.0	2560.0	2496.0	2496.0	2537.0	2537.0	2537.0	2607.0	2607.0	2608.0	2608.0	2608.0	2612.0	2612.0	2521.0	2521.0	2521.0	2544.0	2544.0	2572.0	2572.0	2572.0	2648.0	2648.0	2551.0	2551.0	2551.0	2562.0	2562.0	2650.0	2650.0	2650.0	2545.0	2545.0	2614.0	2614.0	2614.0	2589.0	2589.0	2651.0	2651.0	2651.0	2583.0	2583.0	2648.0	2648.0	2648.0	2633.0	2633.0	2644.0	2644.0	2644.0	2579.0	2579.0	2584.0	2584.0	2584.0	2548.0	2548.0	2568.0	2568.0	2568.0	2544.0	2544.0	2573.0	2573.0	2573.0	2587.0	2587.0	2547.0	2547.0	2547.0	2534.0	2534.0	2531.0	2531.0	2531.0	2517.0	2517.0	2569.0	2569.0	2569.0	2506.0	2506.0	2505.0	2505.0	2505.0	2515.0	2515.0	2515.0	2515.0	2515.0	2507.0	2507.0	2483.0	2483.0	2483.0	2475.0	2475.0	2480.0	2480.0	2480.0	2440.0	2440.0	2530.0	2530.0	2530.0	2496.0	2496.0	2480.0	2480.0	2480.0	2412.0	2412.0	2432.0	2432.0	2432.0	2408.0	2408.0	2372.0	2372.0	2372.0	2448.0	2448.0	2425.0	2425.0	2425.0	2422.0	2422.0	2413.0	2413.0	2413.0	2362.0	2362.0	2400.0	2400.0	2400.0	2295.0	2295.0	2281.0	2281.0	2281.0	2320.0	2320.0	2348.0	2348.0	2348.0	2248.0	2248.0	2239.0	2239.0	2239.0	2272.0	2272.0	2207.0	2207.0	2207.0	2222.0	2222.0	2226.0	2226.0	2226.0	2172.0	2172.0	2159.0	2159.0	2159.0	2227.0	2227.0	2167.0	2167.0	2167.0	2199.0	2199.0	2098.0	2098.0	2098.0	2101.0	2101.0	2158.0	2158.0	2158.0	2084.0	2084.0	2158.0	2158.0	2158.0	2049.0	2049.0	2035.0	2035.0	2035.0	2100.0	2100.0	2029.0	2029.0	2029.0	2024.0	2024.0	2025.0	2025.0	2020.0	2020.0	2020.0	2065.0	2065.0	1974.0	1974.0	1974.0	2036.0	2036.0	2057.0	2057.0	2057.0	1980.0	1980.0	2020.0	2020.0	2020.0	1946.0	1946.0	1984.0	1984.0	1984.0	1994.0	1994.0	1939.0	1939.0	1939.0	1987.0	1987.0	2011.0	2011.0	2011.0	1916.0	1916.0	1908.0	1908.0	1908.0	1970.0	1970.0	1960.0	1960.0	1960.0	1947.0	1947.0	1983.0	1983.0	1983.0	1985.0	1985.0	1943.0	1943.0	1943.0	1972.0	1972.0	1955.0	1955.0	1955.0	1972.0	1972.0	1887.0	1887.0	1887.0	1943.0	1943.0	1919.0	1919.0	1919.0	1951.0	1951.0	1956.0	1956.0	1956.0	1874.0	1874.0	1917.0	1917.0	1917.0	1944.0	1944.0	1951.0	1951.0	1951.0	1883.0	1883.0	1860.0	1860.0	1860.0	1911.0	1911.0	1843.0	1843.0	1843.0	1833.0	1833.0	1899.0	1899.0	1899.0	1847.0	1847.0	1876.0	1876.0	1876.0	1893.0	1893.0	1920.0	1920.0	1920.0	1915.0	1915.0	1844.0	1844.0	1844.0	1860.0	1860.0	1877.0	1877.0	1877.0	1882.0	1882.0	1883.0	1883.0	1883.0	1801.0	1801.0	1798.0	1798.0	1798.0	1885.0	1885.0	1826.0	1826.0	1826.0	1884.0	1884.0	1869.0	1869.0	1869.0	1850.0	1850.0	1804.0	1804.0	1804.0	1785.0	1785.0	1792.0	1792.0	1792.0	1839.0	1839.0	1775.0	1775.0	1775.0	1837.0	1837.0	1858.0	1858.0	1858.0	1766.0	1766.0	1757.0	1757.0	1757.0	1843.0	1843.0	1825.0	1825.0	1825.0	1774.0	1774.0	1802.0	1802.0	1802.0	1818.0	1818.0	1744.0	1744.0	1744.0	1778.0	1778.0	1831.0	1831.0	1831.0	1762.0	1762.0	1751.0	1751.0	1751.0	1802.0	1802.0	1820.0	1820.0	1820.0	1780.0	1780.0	1813.0	1813.0	1813.0	1760.0	1760.0	1825.0	1825.0	1814.0	1814.0	1814.0	1722.0	1722.0	1734.0	1734.0	1734.0	1747.0	1747.0	1719.0	1719.0	1719.0	1718.0	1718.0	1728.0	1728.0	1728.0	1724.0	1724.0	1715.0	1715.0	1715.0	1755.0	1755.0	1710.0	1710.0	1710.0	1739.0	1739.0	1769.0	1769.0	1769.0	1735.0	1735.0	1707.0	1707.0	1707.0	1729.0	1729.0	1702.0	1702.0	1702.0	1720.0	1720.0	1779.0	1779.0	1779.0	1695.0	1695.0	1742.0	1742.0	1742.0	1766.0	1766.0	1747.0	1747.0	1747.0	1712.0	1712.0	1690.0	1690.0	1690.0	1736.0	1736.0	1793.0	1793.0	1793.0	1694.0	1694.0	1708.0	1708.0	1708.0	1772.0	1772.0	1718.0	1718.0	1718.0	1782.0	1782.0	1788.0	1788.0	1788.0	1720.0	1720.0	1785.0	1785.0	1785.0	1774.0	1774.0	1716.0	1716.0	1716.0	1742.0	1742.0	1720.0	1720.0	1720.0	1719.0	1719.0	1784.0	1784.0	1784.0	1761.0	1761.0	1681.0	1681.0	1681.0	1679.0	1679.0	1686.0	1686.0	1686.0	1692.0	1692.0	1675.0	1675.0	1675.0	1675.0	1675.0	1759.0	1759.0	1759.0	1703.0	1703.0	1717.0	1717.0	1717.0	1676.0	1676.0	1691.0	1691.0	1691.0	1759.0	1759.0	1689.0	1689.0	1689.0	1676.0	1676.0	1684.0	1684.0	1684.0	1687.0	1687.0	1721.0	1721.0	1721.0	1681.0	1681.0	1678.0	1678.0	1678.0	1742.0	1742.0	1685.0	1685.0	1685.0	1755.0	1755.0	1693.0	1693.0	1693.0	1718.0	1718.0	1673.0	1673.0	1673.0	1728.0	1728.0	1743.0	1743.0	1743.0	1689.0	1689.0	1712.0	1712.0	1712.0	1688.0	1688.0	1776.0	1776.0	1776.0	1742.0	1742.0	1760.0	1760.0	1760.0	1704.0	1704.0	1725.0	1725.0	1725.0	1707.0	1707.0	1728.0	1728.0	1728.0	1712.0	1712.0	1776.0	1776.0	1683.0	1683.0	1683.0	1766.0	1766.0	1759.0	1759.0	1759.0	1740.0	1740.0	1722.0	1722.0	1722.0	1683.0	1683.0	1698.0	1698.0	1698.0	1728.0	1728.0	1777.0	1777.0	1777.0	1721.0	1721.0	1727.0	1727.0	1727.0	1832.0	1832.0	1759.0	1759.0	1759.0	1866.0	1866.0	1815.0	1815.0	1815.0	1888.0	1888.0	1859.0	1859.0	1859.0	1928.0	1928.0	1928.0	1928.0	1928.0	1990.0	1990.0	1980.0	1980.0	1980.0	2042.0	2042.0	2042.0	2042.0	2042.0	2097.0	2097.0	2032.0	2032.0	2032.0	2043.0	2043.0	2171.0	2171.0	2171.0	2134.0	2134.0	2175.0	2175.0	2175.0	2240.0	2240.0	2179.0	2179.0	2179.0	2207.0	2207.0	2228.0	2228.0	2228.0	2249.0	2249.0	2346.0	2346.0	2346.0	2338.0	2338.0	2330.0	2330.0	2330.0	2340.0	2340.0	2392.0	2392.0	2392.0	2416.0	2416.0	2484.0	2484.0	2484.0	2422.0	2422.0	2443.0	2443.0	2443.0	2431.0	2431.0	2441.0	2441.0	2441.0	2508.0	2508.0	2555.0	2555.0	2555.0	2574.0	2574.0	2501.0	2501.0	2501.0	2528.0	2528.0	2530.0	2530.0	2530.0	2537.0	2537.0	2585.0	2585.0	2585.0	2534.0	2534.0	2542.0	2542.0	2542.0	2623.0	2623.0	2556.0	2556.0	2556.0	2618.0	2618.0	2535.0	2535.0	2535.0	2636.0	2636.0	2618.0	2618.0	2618.0	2620.0	2620.0	2595.0	2595.0	2595.0	2547.0	2547.0	2548.0	2548.0	2548.0	2550.0	2550.0	2582.0	2582.0	2582.0	2546.0	2546.0	2605.0	2605.0	2605.0	2549.0	2549.0	2567.0	2567.0	2567.0	2586.0	2586.0	2549.0	2549.0	2549.0	2557.0	2557.0	2544.0	2544.0	2544.0	2521.0	2521.0	2517.0	2517.0	2517.0	2511.0	2511.0	2506.0	2506.0	2506.0	2580.0	2580.0	2499.0	2499.0	2499.0	2503.0	2503.0	2497.0	2497.0	2495.0	2495.0	2495.0	2466.0	2466.0	2527.0	2527.0	2527.0	2497.0	2497.0	2452.0	2452.0	2452.0	2524.0	2524.0	2430.0	2430.0	2430.0	2459.0	2459.0	2410.0	2410.0	2410.0	2475.0	2475.0	2379.0	2379.0	2379.0	2412.0	2412.0	2452.0	2452.0	2452.0	2427.0	2427.0	2343.0	2343.0	2343.0	2404.0	2404.0	2372.0	2372.0	2372.0	2377.0	2377.0	2295.0	2295.0	2295.0	2324.0	2324.0	2287.0	2287.0	2287.0	2260.0	2260.0	2260.0	2260.0	2260.0	2235.0	2235.0	2265.0	2265.0	2265.0	2304.0	2304.0	2232.0	2232.0	2232.0	2193.0	2193.0	2256.0	2256.0	2256.0	2170.0	2170.0	2198.0	2198.0	2198.0	2158.0	2158.0	2135.0	2135.0	2135.0	2144.0	2144.0	2200.0	2200.0	2200.0	2181.0	2181.0	2083.0	2083.0	2083.0	2078.0	2078.0	2118.0	2118.0	2118.0	2057.0	2057.0	2082.0	2082.0	2082.0	2038.0	2038.0	2023.0	2023.0	2023.0	2107.0	2107.0	2049.0	2049.0	2049.0	1993.0	1993.0	1989.0	1989.0	1989.0	2071.0	2071.0	1977.0	1977.0	1977.0	1977.0	1977.0	2000.0	2000.0	2000.0	2048.0	2048.0	2017.0	2017.0	2017.0	2020.0	2020.0	1983.0	1983.0	1983.0	1970.0	1970.0	2005.0	2005.0	2005.0	2007.0	2007.0	1992.0	1992.0	1992.0	1997.0	1997.0	2012.0	2012.0	2012.0	1957.0	1957.0	1983.0	1983.0	1983.0	2004.0	2004.0	1950.0	1950.0	1950.0	1967.0	1967.0	1983.0	1983.0	1983.0	1897.0	1897.0	1883.0	1883.0	1883.0	1876.0	1876.0	1881.0	1881.0	1881.0	1964.0	1964.0	1877.0	1877.0	1877.0	1958.0	1958.0	1958.0	1958.0	1958.0	1932.0	1932.0	1922.0	1922.0	1922.0	1913.0	1913.0	1849.0	1849.0	1849.0	1940.0	1940.0	1848.0	1848.0	1932.0	1932.0	1932.0	1888.0	1888.0	1862.0	1862.0	1862.0	1862.0	1862.0	1921.0	1921.0	1921.0	1816.0	1816.0	1868.0	1868.0	1868.0	1814.0	1814.0	1817.0	1817.0	1817.0	1834.0	1834.0	1881.0	1881.0	1881.0	1851.0	1851.0	1868.0	1868.0	1868.0	1872.0	1872.0	1863.0	1863.0	1863.0	1788.0	1788.0	1784.0	1784.0	1784.0	1790.0	1790.0	1850.0	1850.0	1850.0	1872.0	1872.0	1791.0	1791.0	1791.0	1808.0	1808.0	1834.0	1834.0	1834.0	1789.0	1789.0	1768.0	1768.0	1768.0	1779.0	1779.0	1765.0	1765.0	1765.0	1767.0	1767.0	1764.0	1764.0	1764.0	1839.0	1839.0	1746.0	1746.0	1746.0	1835.0	1835.0	1777.0	1777.0	1777.0	1753.0	1753.0	1779.0	1779.0	1779.0	1802.0	1802.0	1751.0	1751.0	1751.0	1804.0	1804.0	1755.0	1755.0	1755.0	1788.0	1788.0	1785.0	1785.0	1785.0	1793.0	1793.0	1748.0	1748.0	1748.0	1710.0	1710.0	1706.0	1706.0	1706.0	1745.0	1745.0	1783.0	1783.0	1783.0	1712.0	1712.0	1716.0	1716.0	1716.0	1720.0	1720.0	1710.0	1710.0	1710.0	1793.0	1793.0	1800.0	1800.0	1800.0	1735.0	1735.0	1771.0	1771.0	1771.0	1748.0	1748.0	1721.0	1721.0	1721.0	1706.0	1706.0	1748.0	1748.0	1748.0	1703.0	1703.0	1698.0	1698.0	1698.0	1784.0	1784.0	1700.0	1700.0	1700.0	1765.0	1765.0	1730.0	1730.0	1730.0	1791.0	1791.0	1688.0	1688.0	1688.0	1702.0	1702.0	1721.0	1721.0	1721.0	1712.0	1712.0	1743.0	1743.0	1743.0	1695.0	1695.0	1780.0	1780.0	1780.0	1782.0	1782.0	1691.0	1691.0	1691.0	1740.0	1740.0	1744.0	1744.0	1744.0	1703.0	1703.0	1685.0	1685.0	1685.0	1693.0	1693.0	1710.0	1710.0	1710.0	1707.0	1707.0	1737.0	1737.0	1787.0	1787.0	1787.0	1786.0	1786.0	1689.0	1689.0	1689.0	1768.0	1768.0	1783.0	1783.0	1783.0	1768.0	1768.0	1713.0	1713.0	1713.0	1719.0	1719.0	1703.0	1703.0	1703.0	1760.0	1760.0	1690.0	1690.0	1690.0	1773.0	1773.0	1782.0	1782.0	1782.0	1779.0	1779.0	1707.0	1707.0	1707.0	1683.0	1683.0	1683.0	1683.0	1683.0	1736.0	1736.0	1761.0	1761.0	1761.0	1679.0	1679.0	1688.0	1688.0	1688.0	1770.0	1770.0	1673.0	1673.0	1673.0	1671.0	1671.0	1671.0	1671.0	1671.0	1763.0	1763.0	1775.0	1775.0	1775.0	1767.0	1767.0	1732.0	1732.0	1732.0	1757.0	1757.0	1723.0	1723.0	1723.0	1675.0	1675.0	1712.0	1712.0	1712.0	1693.0	1693.0	1675.0	1675.0	1675.0	1670.0	1670.0	1679.0	1679.0	1679.0	1675.0	1675.0	1729.0	1729.0	1729.0	1660.0	1660.0	1698.0	1698.0	1698.0	1688.0	1688.0	1708.0	1708.0	1708.0	1672.0	1672.0	1753.0	1753.0	1753.0	1739.0	1739.0	1673.0	1673.0	1673.0	1761.0	1761.0	1695.0	1695.0	1695.0	1708.0	1708.0	1718.0	1718.0	1718.0	1763.0	1763.0	1751.0	1751.0	1751.0	1775.0	1775.0	1735.0	1735.0	1735.0	1822.0	1822.0	1738.0	1738.0	1738.0	1803.0	1803.0	1771.0	1771.0	1771.0	1876.0	1876.0	1855.0	1855.0	1855.0	1857.0	1857.0	1878.0	1878.0	1878.0	1908.0	1908.0	1934.0	1934.0	1934.0	1980.0	1980.0	1967.0	1967.0	1967.0	2094.0	2094.0	2018.0	2018.0	2018.0	2050.0	2050.0	2167.0	2167.0	2167.0	2137.0	2137.0	2214.0	2214.0	2214.0	2219.0	2219.0	2203.0	2203.0	2203.0	2198.0	2198.0	2293.0	2293.0	2293.0	2332.0	2332.0	2303.0	2303.0	2303.0	2289.0	2289.0	2327.0	2327.0	2423.0	2423.0	2423.0	2345.0	2345.0	2366.0	2366.0	2366.0	2380.0	2380.0	2442.0	2442.0	2442.0	2486.0	2486.0	2511.0	2511.0	2511.0	2441.0	2441.0	2515.0	2515.0	2515.0	2501.0	2501.0	2493.0	2493.0	2493.0	2527.0	2527.0	2580.0	2580.0	2580.0	2500.0	2500.0	2537.0	2537.0	2537.0	2590.0	2590.0	2539.0	2539.0	2539.0	2601.0	2601.0	2531.0	2531.0	2531.0	2632.0	2632.0	2631.0	2631.0	2631.0	2603.0	2603.0	2615.0	2615.0	2615.0	2574.0	2574.0	2565.0	2565.0	2565.0	2556.0	2556.0	2579.0	2579.0	2579.0	2544.0	2544.0	2614.0	2614.0	2614.0	2560.0	2560.0	2639.0	2639.0	2639.0	2555.0	2555.0	2629.0	2629.0	2629.0	2627.0	2627.0	2619.0	2619.0	2619.0	2578.0	2578.0	2538.0	2538.0	2538.0	2612.0	2612.0	2560.0	2560.0	2560.0	2593.0	2593.0	2512.0	2512.0	2512.0	2586.0	2586.0	2592.0	2592.0	2592.0	2492.0	2492.0	2486.0	2486.0	2486.0	2569.0	2569.0	2515.0	2515.0	2515.0	2466.0	2466.0	2464.0	2464.0	2464.0	2542.0	2542.0	2458.0	2458.0	2458.0	2430.0	2430.0	2437.0	2437.0	2437.0	2449.0	2449.0	2403.0	2403.0	2403.0	2386.0	2386.0	2426.0	2426.0	2426.0	2463.0	2463.0	2462.0	2462.0	2462.0	2353.0	2353.0	2347.0	2347.0	2347.0	2390.0	2390.0	2356.0	2356.0	2356.0	2407.0	2407.0	2366.0	2366.0	2366.0	2299.0	2299.0	2322.0	2322.0	2322.0	2303.0	2303.0	2284.0	2284.0	2284.0	2323.0	2323.0	2324.0	2324.0	2324.0	2294.0	2294.0	2276.0	2276.0	2276.0	2247.0	2247.0	2218.0	2218.0	2218.0	2191.0	2191.0	2146.0	2146.0	2146.0	2139.0	2139.0	2183.0	2183.0	2183.0	2183.0	2183.0	2102.0	2102.0	2137.0	2137.0	2137.0	2155.0	2155.0	2145.0	2145.0	2145.0	2084.0	2084.0	2048.0	2048.0	2048.0	2050.0	2050.0	2114.0	2114.0	2114.0	2110.0	2110.0	2009.0	2009.0	2009.0	2058.0	2058.0	2046.0	2046.0	2046.0	2084.0	2084.0	2054.0	2054.0	2054.0	1973.0	1973.0	2051.0	2051.0	2051.0	2060.0	2060.0	2048.0	2048.0	2048.0	2027.0	2027.0	1970.0	1970.0	1970.0	2019.0	2019.0	1969.0	1969.0	1969.0	1960.0	1960.0	1933.0	1933.0	1933.0	2007.0	2007.0	2008.0	2008.0	2008.0	2011.0	2011.0	1968.0	1968.0	1968.0	1904.0	1904.0	1966.0	1966.0	1966.0	1892.0	1892.0	1888.0	1888.0	1888.0	1883.0	1883.0	1963.0	1963.0	1963.0	1879.0	1879.0	1955.0	1955.0	1955.0	1963.0	1963.0	1931.0	1931.0	1931.0	1864.0	1864.0	1956.0	1956.0	1956.0	1949.0	1949.0	1940.0	1940.0	1940.0	1849.0	1849.0	1887.0	1887.0	1887.0	1930.0	1930.0	1923.0	1923.0	1923.0	1882.0	1882.0	1862.0	1862.0	1862.0	1826.0	1826.0	1895.0	1895.0	1895.0	1835.0	1835.0	1896.0	1896.0	1896.0	1903.0	1903.0	1902.0	1902.0	1902.0	1873.0	1873.0	1882.0	1882.0	1882.0	1873.0	1873.0	1855.0	1855.0	1855.0	1788.0	1788.0	1858.0	1858.0	1858.0	1783.0	1783.0	1802.0	1802.0	1802.0	1853.0	1853.0	1833.0	1833.0	1833.0	1857.0	1857.0	1846.0	1846.0	1846.0	1789.0	1789.0	1776.0	1776.0	1776.0	1816.0	1816.0	1791.0	1791.0	1791.0	1792.0	1792.0	1813.0	1813.0	1813.0	1760.0	1760.0	1755.0	1755.0	1755.0	1776.0	1776.0	1838.0	1838.0	1838.0	1819.0	1819.0	1823.0	1823.0	1823.0	1750.0	1750.0	1736.0	1736.0	1736.0	1734.0	