2214.0	2218.0	2218.0	2236.0	2236.0	2236.0	2146.0	2146.0	2141.0	2141.0	2141.0	2199.0	2199.0	2186.0	2186.0	2186.0	2099.0	2099.0	2165.0	2165.0	2165.0	2151.0	2151.0	2061.0	2061.0	2061.0	2112.0	2112.0	2054.0	2054.0	2054.0	2090.0	2090.0	2083.0	2083.0	2083.0	2063.0	2063.0	2067.0	2067.0	2067.0	2010.0	2010.0	2042.0	2042.0	2042.0	2055.0	2055.0	2018.0	2018.0	2018.0	2032.0	2032.0	2021.0	2021.0	2021.0	2024.0	2024.0	1951.0	1951.0	1951.0	1955.0	1955.0	1996.0	1996.0	1996.0	1918.0	1918.0	1910.0	1910.0	1910.0	2003.0	2003.0	1946.0	1946.0	1946.0	1990.0	1990.0	1897.0	1897.0	1897.0	1964.0	1964.0	1964.0	1964.0	1964.0	1946.0	1946.0	1898.0	1898.0	1898.0	1874.0	1874.0	1961.0	1961.0	1961.0	1865.0	1865.0	1917.0	1917.0	1917.0	1857.0	1857.0	1857.0	1857.0	1857.0	1851.0	1851.0	1935.0	1935.0	1935.0	1846.0	1846.0	1879.0	1879.0	1879.0	1920.0	1920.0	1830.0	1830.0	1900.0	1900.0	1900.0	1833.0	1833.0	1886.0	1886.0	1886.0	1867.0	1867.0	1831.0	1831.0	1831.0	1826.0	1826.0	1863.0	1863.0	1863.0	1838.0	1838.0	1847.0	1847.0	1847.0	1817.0	1817.0	1880.0	1880.0	1880.0	1809.0	1809.0	1842.0	1842.0	1842.0	1857.0	1857.0	1854.0	1854.0	1854.0	1866.0	1866.0	1849.0	1849.0	1849.0	1877.0	1877.0	1877.0	1877.0	1877.0	1836.0	1836.0	1841.0	1841.0	1841.0	1779.0	1779.0	1852.0	1852.0	1852.0	1828.0	1828.0	1771.0	1771.0	1771.0	1849.0	1849.0	1777.0	1777.0	1777.0	1839.0	1839.0	1795.0	1795.0	1795.0	1827.0	1827.0	1823.0	1823.0	1823.0	1789.0	1789.0	1758.0	1758.0	1758.0	1788.0	1788.0	1735.0	1735.0	1735.0	1776.0	1776.0	1799.0	1799.0	1799.0	1724.0	1724.0	1742.0	1742.0	1742.0	1723.0	1723.0	1799.0	1799.0	1799.0	1809.0	1809.0	1743.0	1743.0	1743.0	1806.0	1806.0	1737.0	1737.0	1737.0	1714.0	1714.0	1786.0	1786.0	1786.0	1748.0	1748.0	1738.0	1738.0	1738.0	1761.0	1761.0	1790.0	1790.0	1790.0	1782.0	1782.0	1782.0	1782.0	1782.0	1764.0	1764.0	1794.0	1794.0	1794.0	1725.0	1725.0	1790.0	1790.0	1790.0	1782.0	1782.0	1781.0	1781.0	1781.0	1692.0	1692.0	1774.0	1774.0	1774.0	1768.0	1768.0	1757.0	1757.0	1757.0	1767.0	1767.0	1729.0	1729.0	1729.0	1719.0	1719.0	1743.0	1743.0	1743.0	1764.0	1764.0	1687.0	1687.0	1687.0	1722.0	1722.0	1689.0	1689.0	1689.0	1780.0	1780.0	1746.0	1746.0	1746.0	1684.0	1684.0	1761.0	1761.0	1761.0	1752.0	1752.0	1689.0	1689.0	1689.0	1758.0	1758.0	1681.0	1681.0	1681.0	1723.0	1723.0	1770.0	1770.0	1770.0	1775.0	1775.0	1689.0	1689.0	1687.0	1687.0	1687.0	1735.0	1735.0	1732.0	1732.0	1732.0	1781.0	1781.0	1773.0	1773.0	1773.0	1769.0	1769.0	1698.0	1698.0	1698.0	1680.0	1680.0	1684.0	1684.0	1684.0	1765.0	1765.0	1682.0	1682.0	1682.0	1738.0	1738.0	1732.0	1732.0	1732.0	1691.0	1691.0	1687.0	1687.0	1687.0	1734.0	1734.0	1683.0	1683.0	1683.0	1680.0	1680.0	1769.0	1769.0	1769.0	1713.0	1713.0	1761.0	1761.0	1761.0	1683.0	1683.0	1730.0	1730.0	1730.0	1763.0	1763.0	1737.0	1737.0	1737.0	1696.0	1696.0	1708.0	1708.0	1708.0	1760.0	1760.0	1684.0	1684.0	1684.0	1763.0	1763.0	1749.0	1749.0	1749.0	1759.0	1759.0	1691.0	1691.0	1691.0	1723.0	1723.0	1743.0	1743.0	1743.0	1726.0	1726.0	1756.0	1756.0	1756.0	1673.0	1673.0	1726.0	1726.0	1726.0	1729.0	1729.0	1721.0	1721.0	1721.0	1696.0	1696.0	1763.0	1763.0	1763.0	1742.0	1742.0	1681.0	1681.0	1681.0	1686.0	1686.0	1722.0	1722.0	1722.0	1757.0	1757.0	1722.0	1722.0	1722.0	1696.0	1696.0	1701.0	1701.0	1701.0	1749.0	1749.0	1703.0	1703.0	1703.0	1724.0	1724.0	1798.0	1798.0	1798.0	1753.0	1753.0	1826.0	1826.0	1826.0	1777.0	1777.0	1791.0	1791.0	1791.0	1831.0	1831.0	1886.0	1886.0	1886.0	1836.0	1836.0	1836.0	1836.0	1836.0	1921.0	1921.0	1927.0	1927.0	1927.0	1914.0	1914.0	1931.0	1931.0	1931.0	2025.0	2025.0	2011.0	2011.0	2011.0	2030.0	2030.0	2030.0	2030.0	2030.0	2051.0	2051.0	2167.0	2167.0	2167.0	2116.0	2116.0	2128.0	2128.0	2128.0	2212.0	2212.0	2206.0	2206.0	2206.0	2253.0	2253.0	2201.0	2201.0	2201.0	2220.0	2220.0	2281.0	2281.0	2263.0	2263.0	2263.0	2362.0	2362.0	2367.0	2367.0	2367.0	2329.0	2329.0	2317.0	2317.0	2317.0	2335.0	2335.0	2426.0	2426.0	2426.0	2343.0	2343.0	2366.0	2366.0	2366.0	2422.0	2422.0	2367.0	2367.0	2367.0	2380.0	2380.0	2459.0	2459.0	2459.0	2402.0	2402.0	2395.0	2395.0	2395.0	2406.0	2406.0	2446.0	2446.0	2446.0	2427.0	2427.0	2418.0	2418.0	2418.0	2493.0	2493.0	2499.0	2499.0	2499.0	2468.0	2468.0	2504.0	2504.0	2504.0	2443.0	2443.0	2419.0	2419.0	2419.0	2480.0	2480.0	2410.0	2410.0	2410.0	2483.0	2483.0	2437.0	2437.0	2437.0	2418.0	2418.0	2475.0	2475.0	2475.0	2467.0	2467.0	2464.0	2464.0	2464.0	2440.0	2440.0	2387.0	2387.0	2387.0	2472.0	2472.0	2393.0	2393.0	2393.0	2359.0	2359.0	2362.0	2362.0	2362.0	2357.0	2357.0	2415.0	2415.0	2415.0	2366.0	2366.0	2377.0	2377.0	2377.0	2392.0	2392.0	2326.0	2326.0	2326.0	2399.0	2399.0	2290.0	2290.0	2290.0	2312.0	2312.0	2296.0	2296.0	2296.0	2271.0	2271.0	2267.0	2267.0	2267.0	2324.0	2324.0	2331.0	2331.0	2331.0	2328.0	2328.0	2278.0	2278.0	2278.0	2204.0	2204.0	2213.0	2213.0	2213.0	2191.0	2191.0	2261.0	2261.0	2261.0	2184.0	2184.0	2240.0	2240.0	2240.0	2187.0	2187.0	2138.0	2138.0	2138.0	2209.0	2209.0	2108.0	2108.0	2108.0	2112.0	2112.0	2097.0	2097.0	2097.0	2120.0	2120.0	2154.0	2154.0	2154.0	2098.0	2098.0	2065.0	2065.0	2065.0	2099.0	2099.0	2083.0	2083.0	2083.0	2098.0	2098.0	2099.0	2099.0	2099.0	1995.0	1995.0	1992.0	1992.0	1992.0	1983.0	1983.0	1992.0	1992.0	1992.0	1996.0	1996.0	1968.0	1968.0	1968.0	2001.0	2001.0	1955.0	1955.0	2007.0	2007.0	2007.0	1969.0	1969.0	1980.0	1980.0	1980.0	1991.0	1991.0	1998.0	1998.0	1998.0	1922.0	1922.0	1912.0	1912.0	1912.0	2008.0	2008.0	1949.0	1949.0	1949.0	1919.0	1919.0	1978.0	1978.0	1978.0	1981.0	1981.0	1887.0	1887.0	1887.0	1915.0	1915.0	1887.0	1887.0	1887.0	1937.0	1937.0	1882.0	1882.0	1882.0	1948.0	1948.0	1968.0	1968.0	1968.0	1955.0	1955.0	1864.0	1864.0	1864.0	1860.0	1860.0	1891.0	1891.0	1891.0	1860.0	1860.0	1855.0	1855.0	1855.0	1913.0	1913.0	1859.0	1859.0	1859.0	1872.0	1872.0	1898.0	1898.0	1898.0	1837.0	1837.0	1926.0	1926.0	1926.0	1831.0	1831.0	1862.0	1862.0	1862.0	1883.0	1883.0	1878.0	1878.0	1878.0	1870.0	1870.0	1903.0	1903.0	1903.0	1813.0	1813.0	1874.0	1874.0	1874.0	1804.0	1804.0	1802.0	1802.0	1802.0	1799.0	1799.0	1802.0	1802.0	1802.0	1809.0	1809.0	1875.0	1875.0	1875.0	1889.0	1889.0	1802.0	1802.0	1802.0	1832.0	1832.0	1857.0	1857.0	1857.0	1852.0	1852.0	1867.0	1867.0	1867.0	1760.0	1760.0	1827.0	1827.0	1827.0	1847.0	1847.0	1776.0	1776.0	1776.0	1860.0	1860.0	1830.0	1830.0	1830.0	1786.0	1786.0	1762.0	1762.0	1762.0	1846.0	1846.0	1752.0	1752.0	1752.0	1831.0	1831.0	1746.0	1746.0	1746.0	1829.0	1829.0	1785.0	1785.0	1785.0	1790.0	1790.0	1752.0	1752.0	1752.0	1812.0	1812.0	1776.0	1776.0	1776.0	1825.0	1825.0	1823.0	1823.0	1823.0	1816.0	1816.0	1733.0	1733.0	1733.0	1758.0	1758.0	1721.0	1721.0	1721.0	1734.0	1734.0	1724.0	1724.0	1724.0	1769.0	1769.0	1801.0	1801.0	1801.0	1788.0	1788.0	1730.0	1730.0	1724.0	1724.0	1724.0	1755.0	1755.0	1816.0	1816.0	1816.0	1727.0	1727.0	1778.0	1778.0	1778.0	1751.0	1751.0	1742.0	1742.0	1742.0	1804.0	1804.0	1757.0	1757.0	1757.0	1731.0	1731.0	1730.0	1730.0	1730.0	1706.0	1706.0	1722.0	1722.0	1722.0	1705.0	1705.0	1712.0	1712.0	1712.0	1774.0	1774.0	1757.0	1757.0	1757.0	1717.0	1717.0	1734.0	1734.0	1734.0	1706.0	1706.0	1720.0	1720.0	1720.0	1793.0	1793.0	1771.0	1771.0	1771.0	1752.0	1752.0	1754.0	1754.0	1754.0	1724.0	1724.0	1787.0	1787.0	1787.0	1708.0	1708.0	1773.0	1773.0	1773.0	1778.0	1778.0	1711.0	1711.0	1711.0	1705.0	1705.0	1795.0	1795.0	1795.0	1783.0	1783.0	1704.0	1704.0	1704.0	1735.0	1735.0	1771.0	1771.0	1771.0	1779.0	1779.0	1802.0	1802.0	1802.0	1719.0	1719.0	1794.0	1794.0	1794.0	1790.0	1790.0	1778.0	1778.0	1778.0	1751.0	1751.0	1716.0	1716.0	1716.0	1800.0	1800.0	1774.0	1774.0	1774.0	1762.0	1762.0	1780.0	1780.0	1780.0	1727.0	1727.0	1792.0	1792.0	1792.0	1692.0	1692.0	1767.0	1767.0	1767.0	1716.0	1716.0	1692.0	1692.0	1692.0	1693.0	1693.0	1699.0	1699.0	1699.0	1779.0	1779.0	1784.0	1784.0	1784.0	1691.0	1691.0	1785.0	1785.0	1785.0	1779.0	1779.0	1774.0	1774.0	1774.0	1736.0	1736.0	1787.0	1787.0	1787.0	1691.0	1691.0	1701.0	1701.0	1701.0	1800.0	1800.0	1778.0	1778.0	1778.0	1707.0	1707.0	1703.0	1703.0	1703.0	1712.0	1712.0	1784.0	1784.0	1784.0	1731.0	1731.0	1747.0	1747.0	1747.0	1746.0	1746.0	1722.0	1722.0	1722.0	1799.0	1799.0	1822.0	1822.0	1822.0	1751.0	1751.0	1747.0	1747.0	1824.0	1824.0	1824.0	1835.0	1835.0	1811.0	1811.0	1811.0	1827.0	1827.0	1864.0	1864.0	1864.0	1869.0	1869.0	1829.0	1829.0	1829.0	1867.0	1867.0	1836.0	1836.0	1836.0	1926.0	1926.0	1960.0	1960.0	1960.0	1931.0	1931.0	1991.0	1991.0	1991.0	2039.0	2039.0	1969.0	1969.0	1969.0	1997.0	1997.0	2117.0	2117.0	2117.0	2129.0	2129.0	2129.0	2129.0	2129.0	2124.0	2124.0	2195.0	2195.0	2195.0	2211.0	2211.0	2240.0	2240.0	2240.0	2240.0	2240.0	2285.0	2285.0	2285.0	2264.0	2264.0	2324.0	2324.0	2324.0	2318.0	2318.0	2282.0	2282.0	2282.0	2373.0	2373.0	2298.0	2298.0	2298.0	2403.0	2403.0	2392.0	2392.0	2392.0	2338.0	2338.0	2364.0	2364.0	2364.0	2396.0	2396.0	2418.0	2418.0	2418.0	2425.0	2425.0	2447.0	2447.0	2447.0	2437.0	2437.0	2433.0	2433.0	2433.0	2402.0	2402.0	2503.0	2503.0	2503.0	2506.0	2506.0	2447.0	2447.0	2447.0	2510.0	2510.0	2515.0	2515.0	2515.0	2427.0	2427.0	2459.0	2459.0	2459.0	2506.0	2506.0	2496.0	2496.0	2496.0	2517.0	2517.0	2466.0	2466.0	2466.0	2492.0	2492.0	2507.0	2507.0	2507.0	2489.0	2489.0	2440.0	2440.0	2440.0	2432.0	2432.0	2417.0	2417.0	2417.0	2416.0	2416.0	2468.0	2468.0	2468.0	2495.0	2495.0	2479.0	2479.0	2479.0	2462.0	2462.0	2441.0	2441.0	2441.0	2462.0	2462.0	2445.0	2445.0	2445.0	2443.0	2443.0	2347.0	2347.0	2347.0	2421.0	2421.0	2359.0	2359.0	2359.0	2348.0	2348.0	2393.0	2393.0	2393.0	2351.0	2351.0	2306.0	2306.0	2306.0	2294.0	2294.0	2365.0	2365.0	2365.0	2357.0	2357.0	2283.0	2283.0	2283.0	2243.0	2243.0	2303.0	2303.0	2303.0	2226.0	2226.0	2300.0	2300.0	2214.0	2214.0	2214.0	2202.0	2202.0	2237.0	2237.0	2237.0	2286.0	2286.0	2185.0	2185.0	2185.0	2247.0	2247.0	2227.0	2227.0	2227.0	2240.0	2240.0	2196.0	2196.0	2196.0	2212.0	2212.0	2141.0	2141.0	2141.0	2113.0	2113.0	2157.0	2157.0	2157.0	2177.0	2177.0	2138.0	2138.0	2138.0	2104.0	2104.0	2086.0	2086.0	2086.0	2058.0	2058.0	2059.0	2059.0	2059.0	2089.0	2089.0	2035.0	2035.0	2035.0	2072.0	2072.0	2018.0	2018.0	2018.0	2040.0	2040.0	2009.0	2009.0	2009.0	2091.0	2091.0	2073.0	2073.0	2073.0	2083.0	2083.0	2000.0	2000.0	2000.0	2072.0	2072.0	2008.0	2008.0	2008.0	2059.0	2059.0	1971.0	1971.0	1971.0	2049.0	2049.0	1999.0	1999.0	1999.0	1957.0	1957.0	1947.0	1947.0	1947.0	2006.0	2006.0	2032.0	2032.0	2032.0	1935.0	1935.0	2007.0	2007.0	2007.0	2005.0	2005.0	1951.0	1951.0	1951.0	1922.0	1922.0	1931.0	1931.0	1931.0	1979.0	1979.0	1909.0	1909.0	1909.0	1997.0	1997.0	1974.0	1974.0	1974.0	1889.0	1889.0	1966.0	1966.0	1966.0	1931.0	1931.0	1868.0	1868.0	1868.0	1869.0	1869.0	1923.0	1923.0	1923.0	1891.0	1891.0	1915.0	1915.0	1915.0	1855.0	1855.0	1951.0	1951.0	1951.0	1936.0	1936.0	1951.0	1951.0	1951.0	1888.0	1888.0	1918.0	1918.0	1918.0	1873.0	1873.0	1850.0	1850.0	1850.0	1832.0	1832.0	1851.0	1851.0	1851.0	1917.0	1917.0	1826.0	1826.0	1826.0	1882.0	1882.0	1910.0	1910.0	1910.0	1881.0	1881.0	1844.0	1844.0	1844.0	1856.0	1856.0	1814.0	1814.0	1814.0	1895.0	1895.0	1901.0	1901.0	1901.0	1879.0	1879.0	1802.0	1802.0	1802.0	1887.0	1887.0	1808.0	1808.0	1818.0	1818.0	1818.0	1881.0	1881.0	1794.0	1794.0	1794.0	1871.0	1871.0	1868.0	1868.0	1868.0	1873.0	1873.0	1794.0	1794.0	1794.0	1809.0	1809.0	1786.0	1786.0	1786.0	1825.0	1825.0	1798.0	1798.0	1798.0	1862.0	1862.0	1802.0	1802.0	1802.0	1810.0	1810.0	1865.0	1865.0	1865.0	1800.0	1800.0	1849.0	1849.0	1849.0	1831.0	1831.0	1824.0	1824.0	1824.0	1750.0	1750.0	1841.0	1841.0	1841.0	1813.0	1813.0	1750.0	1750.0	1750.0	1805.0	1805.0	1746.0	1746.0	1746.0	1755.0	1755.0	1831.0	1831.0	1831.0	1751.0	1751.0	1747.0	1747.0	1747.0	1815.0	1815.0	1825.0	1825.0	1825.0	1748.0	1748.0	1767.0	1767.0	1767.0	1778.0	1778.0	1835.0	1835.0	1835.0	1838.0	1838.0	1839.0	1839.0	1839.0	1834.0	1834.0	1742.0	1742.0	1742.0	1763.0	1763.0	1770.0	1770.0	1770.0	1792.0	1792.0	1769.0	1769.0	1769.0	1829.0	1829.0	1769.0	1769.0	1769.0	1817.0	1817.0	1792.0	1792.0	1792.0	1792.0	1792.0	1718.0	1718.0	1718.0	1727.0	1727.0	1740.0	1740.0	1740.0	1731.0	1731.0	1722.0	1722.0	1722.0	1760.0	1760.0	1722.0	1722.0	1722.0	1715.0	1715.0	1740.0	1740.0	1740.0	1751.0	1751.0	1734.0	1734.0	1734.0	1734.0	1734.0	1727.0	1727.0	1727.0	1770.0	1770.0	1782.0	1782.0	1782.0	1812.0	1812.0	1715.0	1715.0	1715.0	1805.0	1805.0	1726.0	1726.0	1726.0	1807.0	1807.0	1710.0	1710.0	1710.0	1711.0	1711.0	1749.0	1749.0	1749.0	1720.0	1720.0	1708.0	1708.0	1708.0	1770.0	1770.0	1702.0	1702.0	1702.0	1732.0	1732.0	1708.0	1708.0	1708.0	1705.0	1705.0	1701.0	1701.0	1701.0	1795.0	1795.0	1703.0	1703.0	1709.0	1709.0	1709.0	1755.0	1755.0	1747.0	1747.0	1747.0	1747.0	1747.0	1786.0	1786.0	1786.0	1763.0	1763.0	1723.0	1723.0	1723.0	1719.0	1719.0	1710.0	1710.0	1710.0	1762.0	1762.0	1765.0	1765.0	1765.0	1750.0	1750.0	1796.0	1796.0	1796.0	1751.0	1751.0	1717.0	1717.0	1717.0	1759.0	1759.0	1775.0	1775.0	1775.0	1704.0	1704.0	1704.0	1704.0	1704.0	1807.0	1807.0	1764.0	1764.0	1764.0	1730.0	1730.0	1714.0	1714.0	1714.0	1746.0	1746.0	1718.0	1718.0	1718.0	1770.0	1770.0	1808.0	1808.0	1808.0	1759.0	1759.0	1764.0	1764.0	1764.0	1804.0	1804.0	1835.0	1835.0	1835.0	1853.0	1853.0	1851.0	1851.0	1851.0	1836.0	1836.0	1898.0	1898.0	1898.0	1845.0	1845.0	1863.0	1863.0	1863.0	1947.0	1947.0	2000.0	2000.0	2000.0	1942.0	1942.0	1966.0	1966.0	1966.0	2002.0	2002.0	2092.0	2092.0	2092.0	2109.0	2109.0	2119.0	2119.0	2119.0	2093.0	2093.0	2187.0	2187.0	2187.0	2179.0	2179.0	2169.0	2169.0	2169.0	2235.0	2235.0	2243.0	2243.0	2243.0	2216.0	2216.0	2318.0	2318.0	2318.0	2358.0	2358.0	2332.0	2332.0	2332.0	2325.0	2325.0	2337.0	2337.0	2337.0	2354.0	2354.0	2353.0	2353.0	2353.0	2364.0	2364.0	2446.0	2446.0	2446.0	2393.0	2393.0	2423.0	2423.0	2423.0	2516.0	2516.0	2481.0	2481.0	2481.0	2436.0	2436.0	2462.0	2462.0	2462.0	2536.0	2536.0	2459.0	2459.0	2459.0	2503.0	2503.0	2560.0	2560.0	2560.0	2496.0	2496.0	2557.0	2557.0	2557.0	2578.0	2578.0	2508.0	2508.0	2508.0	2577.0	2577.0	2516.0	2516.0	2516.0	2562.0	2562.0	2508.0	2508.0	2508.0	2555.0	2555.0	2600.0	2600.0	2600.0	2553.0	2553.0	2517.0	2517.0	2570.0	2570.0	2570.0	2517.0	2517.0	2606.0	2606.0	2606.0	2608.0	2608.0	2572.0	2572.0	2572.0	2587.0	2587.0	2568.0	2568.0	2568.0	2509.0	2509.0	2549.0	2549.0	2549.0	2502.0	2502.0	2491.0	2491.0	2491.0	2515.0	2515.0	2512.0	2512.0	2512.0	2516.0	2516.0	2567.0	2567.0	2567.0	2546.0	2546.0	2508.0	2508.0	2508.0	2461.0	2461.0	2434.0	2434.0	2434.0	2460.0	2460.0	2473.0	2473.0	2473.0	2469.0	2469.0	2427.0	2427.0	2427.0	2455.0	2455.0	2397.0	2397.0	2397.0	2477.0	2477.0	2460.0	2460.0	2460.0	2397.0	2397.0	2355.0	2355.0	2355.0	2401.0	2401.0	2421.0	2421.0	2421.0	2378.0	2378.0	2397.0	2397.0	2397.0	2346.0	2346.0	2389.0	2389.0	2389.0	2314.0	2314.0	2286.0	2286.0	2286.0	2359.0	2359.0	2261.0	2261.0	2261.0	2244.0	2244.0	2251.0	2251.0	2251.0	2317.0	2317.0	2245.0	2245.0	2245.0	2281.0	2281.0	2200.0	2200.0	2200.0	2170.0	2170.0	2197.0	2197.0	2197.0	2178.0	2178.0	2221.0	2221.0	2221.0	2125.0	2125.0	2209.0	2209.0	2209.0	2147.0	2147.0	2100.0	2100.0	2100.0	2155.0	2155.0	2087.0	2087.0	2087.0	2164.0	2164.0	2100.0	2100.0	