1727.0	1727.0	1691.0	1691.0	1652.0	1652.0	1652.0	1619.0	1619.0	1603.0	1603.0	1603.0	1556.0	1556.0	1546.0	1546.0	1546.0	1569.0	1569.0	1544.0	1544.0	1544.0	1547.0	1547.0	1524.0	1524.0	1524.0	1507.0	1507.0	1572.0	1572.0	1572.0	1539.0	1539.0	1538.0	1538.0	1538.0	1520.0	1520.0	1533.0	1533.0	1533.0	1515.0	1515.0	1554.0	1554.0	1554.0	1548.0	1548.0	1528.0	1528.0	1528.0	1546.0	1546.0	1568.0	1568.0	1534.0	1534.0	1534.0	1568.0	1568.0	1556.0	1556.0	1556.0	1558.0	1558.0	1545.0	1545.0	1545.0	1550.0	1550.0	1581.0	1581.0	1581.0	1544.0	1544.0	1578.0	1578.0	1578.0	1585.0	1585.0	1583.0	1583.0	1583.0	1581.0	1581.0	1560.0	1560.0	1560.0	1561.0	1561.0	1582.0	1582.0	1582.0	1594.0	1594.0	1569.0	1569.0	1569.0	1586.0	1586.0	1606.0	1606.0	1606.0	1598.0	1598.0	1577.0	1577.0	1577.0	1581.0	1581.0	1611.0	1611.0	1611.0	1600.0	1600.0	1614.0	1614.0	1614.0	1608.0	1608.0	1587.0	1587.0	1587.0	1580.0	1580.0	1622.0	1622.0	1622.0	1599.0	1599.0	1618.0	1618.0	1618.0	1634.0	1634.0	1590.0	1590.0	1590.0	1619.0	1619.0	1634.0	1634.0	1634.0	1624.0	1624.0	1619.0	1619.0	1619.0	1616.0	1616.0	1616.0	1616.0	1616.0	1615.0	1615.0	1608.0	1608.0	1608.0	1612.0	1612.0	1619.0	1619.0	1619.0	1635.0	1635.0	1629.0	1629.0	1629.0	1638.0	1638.0	1668.0	1668.0	1668.0	1645.0	1645.0	1639.0	1639.0	1639.0	1669.0	1669.0	1654.0	1654.0	1654.0	1651.0	1651.0	1656.0	1656.0	1656.0	1639.0	1639.0	1671.0	1671.0	1671.0	1655.0	1655.0	1648.0	1648.0	1648.0	1646.0	1646.0	1634.0	1634.0	1634.0	1663.0	1663.0	1666.0	1666.0	1666.0	1640.0	1640.0	1675.0	1675.0	1675.0	1686.0	1686.0	1668.0	1668.0	1668.0	1684.0	1684.0	1651.0	1651.0	1651.0	1670.0	1670.0	1679.0	1679.0	1679.0	1661.0	1661.0	1669.0	1669.0	1669.0	1669.0	1669.0	1688.0	1688.0	1688.0	1689.0	1689.0	1707.0	1707.0	1707.0	1710.0	1710.0	1719.0	1719.0	1719.0	1708.0	1708.0	1676.0	1676.0	1676.0	1709.0	1709.0	1712.0	1712.0	1731.0	1731.0	1731.0	1710.0	1710.0	1692.0	1692.0	1692.0	1698.0	1698.0	1696.0	1696.0	1696.0	1736.0	1736.0	1732.0	1732.0	1732.0	1690.0	1690.0	1708.0	1708.0	1708.0	1713.0	1713.0	1718.0	1718.0	1718.0	1734.0	1734.0	1717.0	1717.0	1717.0	1701.0	1701.0	1735.0	1735.0	1735.0	1728.0	1728.0	1745.0	1745.0	1745.0	1717.0	1717.0	1751.0	1751.0	1751.0	1723.0	1723.0	1739.0	1739.0	1739.0	1768.0	1768.0	1748.0	1748.0	1748.0	1760.0	1760.0	1771.0	1771.0	1771.0	1756.0	1756.0	1711.0	1711.0	1711.0	1728.0	1728.0	1720.0	1720.0	1720.0	1735.0	1735.0	1741.0	1741.0	1741.0	1785.0	1785.0	1766.0	1766.0	1766.0	1771.0	1771.0	1751.0	1751.0	1751.0	1747.0	1747.0	1767.0	1767.0	1767.0	1782.0	1782.0	1745.0	1745.0	1745.0	1742.0	1742.0	1733.0	1733.0	1733.0	1754.0	1754.0	1746.0	1746.0	1746.0	1771.0	1771.0	1749.0	1749.0	1749.0	1778.0	1778.0	1769.0	1769.0	1769.0	1760.0	1760.0	1774.0	1774.0	1774.0	1767.0	1767.0	1768.0	1768.0	1768.0	1761.0	1761.0	1750.0	1750.0	1750.0	1780.0	1780.0	1785.0	1785.0	1785.0	1765.0	1765.0	1762.0	1762.0	1762.0	1767.0	1767.0	1767.0	1767.0	1767.0	1767.0	1767.0	1775.0	1775.0	1775.0	1787.0	1787.0	1804.0	1804.0	1804.0	1775.0	1775.0	1781.0	1781.0	1781.0	1783.0	1783.0	1782.0	1782.0	1782.0	1815.0	1815.0	1819.0	1819.0	1819.0	1788.0	1788.0	1839.0	1839.0	1839.0	1803.0	1803.0	1841.0	1841.0	1841.0	1838.0	1838.0	1815.0	1815.0	1815.0	1868.0	1868.0	1845.0	1845.0	1845.0	1900.0	1900.0	1888.0	1888.0	1888.0	1891.0	1891.0	1947.0	1947.0	1947.0	1922.0	1922.0	1955.0	1955.0	1970.0	1970.0	1970.0	1954.0	1954.0	1980.0	1980.0	1980.0	2006.0	2006.0	2039.0	2039.0	2039.0	2026.0	2026.0	2057.0	2057.0	2057.0	2041.0	2041.0	2075.0	2075.0	2075.0	2092.0	2092.0	2089.0	2089.0	2089.0	2126.0	2126.0	2097.0	2097.0	2097.0	2114.0	2114.0	2121.0	2121.0	2121.0	2121.0	2121.0	2143.0	2143.0	2143.0	2156.0	2156.0	2157.0	2157.0	2157.0	2167.0	2167.0	2190.0	2190.0	2190.0	2191.0	2191.0	2168.0	2168.0	2168.0	2185.0	2185.0	2174.0	2174.0	2174.0	2176.0	2176.0	2192.0	2192.0	2192.0	2190.0	2190.0	2198.0	2198.0	2198.0	2202.0	2202.0	2206.0	2206.0	2206.0	2219.0	2219.0	2233.0	2233.0	2233.0	2191.0	2191.0	2216.0	2216.0	2216.0	2214.0	2214.0	2199.0	2199.0	2199.0	2208.0	2208.0	2205.0	2205.0	2205.0	2206.0	2206.0	2200.0	2200.0	2200.0	2226.0	2226.0	2207.0	2207.0	2207.0	2203.0	2203.0	2212.0	2212.0	2212.0	2201.0	2201.0	2219.0	2219.0	2219.0	2195.0	2195.0	2209.0	2209.0	2209.0	2202.0	2202.0	2217.0	2217.0	2217.0	2199.0	2199.0	2222.0	2222.0	2222.0	2198.0	2198.0	2178.0	2178.0	2178.0	2198.0	2198.0	2183.0	2183.0	2183.0	2179.0	2179.0	2191.0	2191.0	2191.0	2191.0	2191.0	2215.0	2215.0	2215.0	2173.0	2173.0	2172.0	2172.0	2172.0	2163.0	2163.0	2193.0	2193.0	2193.0	2175.0	2175.0	2195.0	2195.0	2195.0	2182.0	2182.0	2200.0	2200.0	2200.0	2155.0	2155.0	2151.0	2151.0	2151.0	2176.0	2176.0	2188.0	2188.0	2188.0	2146.0	2146.0	2178.0	2178.0	2178.0	2186.0	2186.0	2163.0	2163.0	2163.0	2175.0	2175.0	2151.0	2151.0	2151.0	2151.0	2151.0	2161.0	2161.0	2131.0	2131.0	2131.0	2132.0	2132.0	2151.0	2151.0	2151.0	2160.0	2160.0	2120.0	2120.0	2120.0	2137.0	2137.0	2134.0	2134.0	2134.0	2129.0	2129.0	2120.0	2120.0	2120.0	2138.0	2138.0	2096.0	2096.0	2096.0	2123.0	2123.0	2081.0	2081.0	2081.0	2120.0	2120.0	2115.0	2115.0	2115.0	2112.0	2112.0	2089.0	2089.0	2089.0	2082.0	2082.0	2087.0	2087.0	2087.0	2077.0	2077.0	2074.0	2074.0	2074.0	2061.0	2061.0	2035.0	2035.0	2035.0	2061.0	2061.0	2031.0	2031.0	2031.0	2032.0	2032.0	2048.0	2048.0	2048.0	2035.0	2035.0	2004.0	2004.0	2004.0	2053.0	2053.0	2040.0	2040.0	2040.0	1985.0	1985.0	2018.0	2018.0	2018.0	1986.0	1986.0	1993.0	1993.0	1993.0	2013.0	2013.0	1999.0	1999.0	1999.0	1977.0	1977.0	1982.0	1982.0	1982.0	2009.0	2009.0	1976.0	1976.0	1976.0	2002.0	2002.0	1970.0	1970.0	1970.0	1999.0	1999.0	1977.0	1977.0	1977.0	1997.0	1997.0	1967.0	1967.0	1967.0	1997.0	1997.0	1956.0	1956.0	1956.0	1967.0	1967.0	2005.0	2005.0	2005.0	1971.0	1971.0	1978.0	1978.0	1978.0	1986.0	1986.0	1989.0	1989.0	1989.0	1963.0	1963.0	1999.0	1999.0	1999.0	1987.0	1987.0	1993.0	1993.0	1993.0	1976.0	1976.0	2002.0	2002.0	2002.0	1991.0	1991.0	1995.0	1995.0	1995.0	1980.0	1980.0	1996.0	1996.0	1996.0	1981.0	1981.0	1969.0	1969.0	1969.0	1992.0	1992.0	1983.0	1983.0	1983.0	1974.0	1974.0	1996.0	1996.0	1996.0	1968.0	1968.0	1977.0	1977.0	1977.0	1984.0	1984.0	1996.0	1996.0	1996.0	1964.0	1964.0	1965.0	1965.0	1965.0	1962.0	1962.0	1983.0	1983.0	1983.0	1976.0	1976.0	1971.0	1971.0	1979.0	1979.0	1979.0	1992.0	1992.0	1953.0	1953.0	1953.0	1973.0	1973.0	1937.0	1937.0	1937.0	1969.0	1969.0	1973.0	1973.0	1973.0	1972.0	1972.0	1981.0	1981.0	1981.0	1962.0	1962.0	1942.0	1942.0	1942.0	1965.0	1965.0	1956.0	1956.0	1956.0	1955.0	1955.0	1966.0	1966.0	1966.0	1939.0	1939.0	1944.0	1944.0	1944.0	1939.0	1939.0	1939.0	1939.0	1939.0	1933.0	1933.0	1953.0	1953.0	1953.0	1941.0	1941.0	1947.0	1947.0	1947.0	1944.0	1944.0	1935.0	1935.0	1935.0	1907.0	1907.0	1931.0	1931.0	1931.0	1934.0	1934.0	1947.0	1947.0	1947.0	1909.0	1909.0	1940.0	1940.0	1940.0	1934.0	1934.0	1929.0	1929.0	1929.0	1931.0	1931.0	1927.0	1927.0	1927.0	1932.0	1932.0	1898.0	1898.0	1898.0	1914.0	1914.0	1915.0	1915.0	1915.0	1931.0	1931.0	1916.0	1916.0	1916.0	1892.0	1892.0	1889.0	1889.0	1889.0	1903.0	1903.0	1908.0	1908.0	1908.0	1912.0	1912.0	1894.0	1894.0	1894.0	1907.0	1907.0	1905.0	1905.0	1905.0	1905.0	1905.0	1895.0	1895.0	1895.0	1887.0	1887.0	1889.0	1889.0	1889.0	1879.0	1879.0	1910.0	1910.0	1910.0	1871.0	1871.0	1879.0	1879.0	1879.0	1893.0	1893.0	1887.0	1887.0	1887.0	1885.0	1885.0	1879.0	1879.0	1879.0	1874.0	1874.0	1868.0	1868.0	1868.0	1870.0	1870.0	1880.0	1880.0	1880.0	1877.0	1877.0	1889.0	1889.0	1889.0	1887.0	1887.0	1866.0	1866.0	1866.0	1900.0	1900.0	1891.0	1891.0	1891.0	1876.0	1876.0	1888.0	1888.0	1888.0	1865.0	1865.0	1859.0	1859.0	1859.0	1875.0	1875.0	1904.0	1904.0	1904.0	1891.0	1891.0	1862.0	1862.0	1862.0	1877.0	1877.0	1870.0	1870.0	1870.0	1897.0	1897.0	1899.0	1899.0	1895.0	1895.0	1895.0	1860.0	1860.0	1902.0	1902.0	1902.0	1895.0	1895.0	1890.0	1890.0	1890.0	1888.0	1888.0	1857.0	1857.0	1857.0	1862.0	1862.0	1897.0	1897.0	1897.0	1855.0	1855.0	1870.0	1870.0	1870.0	1875.0	1875.0	1887.0	1887.0	1887.0	1857.0	1857.0	1875.0	1875.0	1875.0	1894.0	1894.0	1900.0	1900.0	1900.0	1871.0	1871.0	1880.0	1880.0	1880.0	1859.0	1859.0	1868.0	1868.0	1868.0	1863.0	1863.0	1878.0	1878.0	1878.0	1856.0	1856.0	1865.0	1865.0	1865.0	1895.0	1895.0	1900.0	1900.0	1900.0	1904.0	1904.0	1887.0	1887.0	1887.0	1873.0	1873.0	1881.0	1881.0	1881.0	1869.0	1869.0	1897.0	1897.0	1897.0	1895.0	1895.0	1897.0	1897.0	1897.0	1862.0	1862.0	1871.0	1871.0	1871.0	1885.0	1885.0	1894.0	1894.0	1894.0	1855.0	1855.0	1883.0	1883.0	1883.0	1888.0	1888.0	1869.0	1869.0	1869.0	1900.0	1900.0	1857.0	1857.0	1857.0	1858.0	1858.0	1899.0	1899.0	1899.0	1867.0	1867.0	1857.0	1857.0	1857.0	1881.0	1881.0	1882.0	1882.0	1882.0	1867.0	1867.0	1861.0	1861.0	1861.0	1872.0	1872.0	1872.0	1872.0	1872.0	1864.0	1864.0	1891.0	1891.0	1891.0	1854.0	1854.0	1886.0	1886.0	1886.0	1870.0	1870.0	1861.0	1861.0	1861.0	1853.0	1853.0	1864.0	1864.0	1864.0	1854.0	1854.0	1906.0	1906.0	1906.0	1862.0	1862.0	1876.0	1876.0	1876.0	1841.0	1841.0	1875.0	1875.0	1875.0	1872.0	1872.0	1895.0	1895.0	1895.0	1885.0	1885.0	1892.0	1892.0	1892.0	1865.0	1865.0	1881.0	1881.0	1881.0	1865.0	1865.0	1864.0	1864.0	1864.0	1885.0	1885.0	1863.0	1863.0	1863.0	1861.0	1861.0	1873.0	1873.0	1863.0	1863.0	1863.0	1875.0	1875.0	1858.0	1858.0	1858.0	1863.0	1863.0	1868.0	1868.0	1868.0	1859.0	1859.0	1854.0	1854.0	1854.0	1884.0	1884.0	1841.0	1841.0	1841.0	1839.0	1839.0	1852.0	1852.0	1852.0	1847.0	1847.0	1871.0	1871.0	1871.0	1883.0	1883.0	1863.0	1863.0	1863.0	1883.0	1883.0	1880.0	1880.0	1880.0	1874.0	1874.0	1854.0	1854.0	1854.0	1874.0	1874.0	1883.0	1883.0	1883.0	1895.0	1895.0	1919.0	1919.0	1919.0	1897.0	1897.0	1910.0	1910.0	1910.0	1952.0	1952.0	1925.0	1925.0	1925.0	1949.0	1949.0	1972.0	1972.0	1972.0	1975.0	1975.0	1999.0	1999.0	1999.0	2032.0	2032.0	2026.0	2026.0	2026.0	2046.0	2046.0	2039.0	2039.0	2039.0	2026.0	2026.0	2080.0	2080.0	2080.0	2099.0	2099.0	2118.0	2118.0	2118.0	2103.0	2103.0	2091.0	2091.0	2091.0	2135.0	2135.0	2111.0	2111.0	2111.0	2127.0	2127.0	2166.0	2166.0	2166.0	2171.0	2171.0	2159.0	2159.0	2159.0	2182.0	2182.0	2168.0	2168.0	2168.0	2202.0	2202.0	2206.0	2206.0	2206.0	2199.0	2199.0	2197.0	2197.0	2197.0	2225.0	2225.0	2214.0	2214.0	2214.0	2223.0	2223.0	2237.0	2237.0	2237.0	2216.0	2216.0	2217.0	2217.0	2217.0	2228.0	2228.0	2229.0	2229.0	2229.0	2232.0	2232.0	2240.0	2240.0	2240.0	2232.0	2232.0	2241.0	2241.0	2241.0	2250.0	2250.0	2232.0	2232.0	2232.0	2259.0	2259.0	2259.0	2259.0	2259.0	2230.0	2230.0	2239.0	2239.0	2239.0	2244.0	2244.0	2257.0	2257.0	2257.0	2255.0	2255.0	2230.0	2230.0	2230.0	2235.0	2235.0	2240.0	2240.0	2240.0	2217.0	2217.0	2230.0	2230.0	2230.0	2224.0	2224.0	2238.0	2238.0	2217.0	2217.0	2217.0	2215.0	2215.0	2210.0	2210.0	2210.0	2234.0	2234.0	2213.0	2213.0	2213.0	2205.0	2205.0	2218.0	2218.0	2218.0	2219.0	2219.0	2220.0	2220.0	2220.0	2201.0	2201.0	2194.0	2194.0	2194.0	2239.0	2239.0	2210.0	2210.0	2210.0	2195.0	2195.0	2215.0	2215.0	2215.0	2198.0	2198.0	2193.0	2193.0	2193.0	2208.0	2208.0	2208.0	2208.0	2208.0	2173.0	2173.0	2184.0	2184.0	2184.0	2196.0	2196.0	2176.0	2176.0	2176.0	2199.0	2199.0	2201.0	2201.0	2201.0	2172.0	2172.0	2162.0	2162.0	2162.0	2165.0	2165.0	2178.0	2178.0	2178.0	2179.0	2179.0	2154.0	2154.0	2154.0	2149.0	2149.0	2143.0	2143.0	2143.0	2183.0	2183.0	2156.0	2156.0	2156.0	2144.0	2144.0	2166.0	2166.0	2166.0	2161.0	2161.0	2147.0	2147.0	2147.0	2131.0	2131.0	2144.0	2144.0	2144.0	2138.0	2138.0	2109.0	2109.0	2109.0	2114.0	2114.0	2107.0	2107.0	2107.0	2113.0	2113.0	2108.0	2108.0	2108.0	2116.0	2116.0	2091.0	2091.0	2091.0	2076.0	2076.0	2079.0	2079.0	2079.0	2080.0	2080.0	2079.0	2079.0	2079.0	2076.0	2076.0	2056.0	2056.0	2056.0	2063.0	2063.0	2052.0	2052.0	2052.0	2023.0	2023.0	2036.0	2036.0	2036.0	2047.0	2047.0	2064.0	2064.0	2064.0	2050.0	2050.0	2054.0	2054.0	2054.0	2025.0	2025.0	2027.0	2027.0	2027.0	2047.0	2047.0	2040.0	2040.0	2040.0	2019.0	2019.0	2032.0	2032.0	2032.0	2023.0	2023.0	2029.0	2029.0	2029.0	2008.0	2008.0	2020.0	2020.0	2020.0	2022.0	2022.0	1993.0	1993.0	1993.0	1996.0	1996.0	2016.0	2016.0	2016.0	2014.0	2014.0	2022.0	2022.0	2022.0	2013.0	2013.0	2024.0	2024.0	2024.0	2015.0	2015.0	2009.0	2009.0	2019.0	2019.0	2019.0	2004.0	2004.0	1995.0	1995.0	1995.0	2015.0	2015.0	2006.0	2006.0	2006.0	1990.0	1990.0	2005.0	2005.0	2005.0	2018.0	2018.0	2011.0	2011.0	2011.0	2034.0	2034.0	2001.0	2001.0	2001.0	2015.0	2015.0	2006.0	2006.0	2006.0	2033.0	2033.0	2007.0	2007.0	2007.0	2019.0	2019.0	1991.0	1991.0	1991.0	2006.0	2006.0	2001.0	2001.0	2001.0	2010.0	2010.0	2024.0	2024.0	2024.0	2005.0	2005.0	1991.0	1991.0	1991.0	2011.0	2011.0	1973.0	1973.0	1973.0	2007.0	2007.0	1986.0	1986.0	1986.0	2002.0	2002.0	1994.0	1994.0	1994.0	2008.0	2008.0	1989.0	1989.0	1989.0	1998.0	1998.0	1973.0	1973.0	1973.0	1983.0	1983.0	2007.0	2007.0	2007.0	2000.0	2000.0	1960.0	1960.0	1960.0	1956.0	1956.0	1958.0	1958.0	1958.0	1970.0	1970.0	1999.0	1999.0	1999.0	1997.0	1997.0	1995.0	1995.0	1995.0	1953.0	1953.0	1970.0	1970.0	1970.0	1970.0	1970.0	1958.0	1958.0	1958.0	1976.0	1976.0	1958.0	1958.0	1958.0	1938.0	1938.0	1984.0	1984.0	1984.0	1979.0	1979.0	1963.0	1963.0	1963.0	1970.0	1970.0	1965.0	1965.0	1965.0	1967.0	1967.0	1974.0	1974.0	1974.0	1945.0	1945.0	1956.0	1956.0	1956.0	1930.0	1930.0	1936.0	1936.0	1936.0	1948.0	1948.0	1958.0	1958.0	1958.0	1927.0	1927.0	1948.0	1948.0	1948.0	1912.0	1912.0	1955.0	1955.0	1955.0	1924.0	1924.0	1918.0	1918.0	1918.0	1914.0	1914.0	1903.0	1903.0	1903.0	1929.0	1929.0	1903.0	1903.0	1903.0	1913.0	1913.0	1910.0	1910.0	1910.0	1937.0	1937.0	1916.0	1916.0	1916.0	1927.0	1927.0	1936.0	1936.0	1936.0	1896.0	1896.0	1908.0	1908.0	1894.0	1894.0	1894.0	1893.0	1893.0	1930.0	1930.0	1930.0	1897.0	1897.0	1904.0	1904.0	1904.0	1927.0	1927.0	1893.0	1893.0	1893.0	1920.0	1920.0	1885.0	1885.0	1885.0	1910.0	1910.0	1874.0	1874.0	1874.0	1919.0	1919.0	1920.0	1920.0	1920.0	1895.0	1895.0	1868.0	1868.0	1868.0	1899.0	1899.0	1898.0	1898.0	1898.0	1895.0	1895.0	1877.0	1877.0	1877.0	1879.0	1879.0	1886.0	1886.0	1886.0	1885.0	1885.0	1907.0	1907.0	1907.0	1914.0	1914.0	1906.0	1906.0	1906.0	1895.0	1895.0	1886.0	1886.0	1886.0	1903.0	1903.0	1871.0	1871.0	1871.0	1902.0	1902.0	1883.0	1883.0	1883.0	1905.0	1905.0	1866.0	1866.0	1866.0	1873.0	1873.0	1913.0	1913.0	1913.0	1896.0	1896.0	1884.0	1884.0	1884.0	1866.0	1866.0	1877.0	1877.0	1877.0	1893.0	1893.0	1877.0	1877.0	1877.0	1902.0	1902.0	1873.0	1873.0	1873.0	1891.0	1891.0	1867.0	1867.0	1867.0	1903.0	1903.0	1907.0	1907.0	1907.0	1862.0	1862.0	1871.0	1871.0	1871.0	1907.0	1907.0	1891.0	1891.0	1891.0	1872.0	1872.0	1870.0	1870.0	1870.0	1879.0	1879.0	1863.0	1863.0	1863.0	1864.0	1864.0	1896.0	1896.0	1896.0	1882.0	1882.0	1879.0	1879.0	1879.0	1885.0	1885.0	1868.0	1868.0	1868.0	1886.0	1886.0	1871.0	1871.0	1871.0	1889.0	1889.0	1874.0	1874.0	1874.0	1878.0	1878.0	1864.0	1864.0	1864.0	1890.0	1890.0	1884.0	1884.0	1884.0	1877.0	1877.0	1901.0	1901.0	1901.0	1861.0	1861.0	1887.0	1887.0	1887.0	1897.0	1897.0	1870.0	1870.0	1870.0	1894.0	1894.0	1893.0	1893.0	1893.0	1887.0	1887.0	1890.0	1890.0	1890.0	1888.0	1888.0	1892.0	1892.0	1892.0	1882.0	1882.0	1888.0	1888.0	1869.0	1869.0	1869.0	1861.0	