1743.0	1724.0	1724.0	1724.0	1757.0	1757.0	1770.0	1770.0	1770.0	1754.0	1754.0	1728.0	1728.0	1728.0	1746.0	1746.0	1758.0	1758.0	1758.0	1751.0	1751.0	1763.0	1763.0	1763.0	1726.0	1726.0	1751.0	1751.0	1764.0	1764.0	1764.0	1740.0	1740.0	1743.0	1743.0	1743.0	1751.0	1751.0	1744.0	1744.0	1744.0	1723.0	1723.0	1770.0	1770.0	1770.0	1741.0	1741.0	1762.0	1762.0	1762.0	1782.0	1782.0	1763.0	1763.0	1763.0	1798.0	1798.0	1761.0	1761.0	1761.0	1789.0	1789.0	1801.0	1801.0	1801.0	1784.0	1784.0	1834.0	1834.0	1834.0	1833.0	1833.0	1833.0	1833.0	1833.0	1865.0	1865.0	1899.0	1899.0	1899.0	1925.0	1925.0	1968.0	1968.0	1968.0	1958.0	1958.0	1968.0	1968.0	1968.0	1991.0	1991.0	2015.0	2015.0	2015.0	2057.0	2057.0	2090.0	2090.0	2090.0	2088.0	2088.0	2123.0	2123.0	2123.0	2146.0	2146.0	2191.0	2191.0	2191.0	2194.0	2194.0	2221.0	2221.0	2221.0	2231.0	2231.0	2249.0	2249.0	2249.0	2300.0	2300.0	2294.0	2294.0	2294.0	2329.0	2329.0	2313.0	2313.0	2313.0	2334.0	2334.0	2361.0	2361.0	2361.0	2367.0	2367.0	2403.0	2403.0	2403.0	2412.0	2412.0	2419.0	2419.0	2419.0	2404.0	2404.0	2401.0	2401.0	2401.0	2411.0	2411.0	2443.0	2443.0	2443.0	2433.0	2433.0	2452.0	2452.0	2452.0	2464.0	2464.0	2437.0	2437.0	2437.0	2451.0	2451.0	2437.0	2437.0	2437.0	2457.0	2457.0	2459.0	2459.0	2459.0	2424.0	2424.0	2450.0	2450.0	2450.0	2460.0	2460.0	2456.0	2456.0	2456.0	2458.0	2458.0	2439.0	2439.0	2439.0	2432.0	2432.0	2467.0	2467.0	2467.0	2468.0	2468.0	2442.0	2442.0	2442.0	2427.0	2427.0	2422.0	2422.0	2422.0	2434.0	2434.0	2459.0	2459.0	2459.0	2431.0	2431.0	2455.0	2455.0	2455.0	2431.0	2431.0	2435.0	2435.0	2435.0	2409.0	2409.0	2422.0	2422.0	2422.0	2399.0	2399.0	2418.0	2418.0	2418.0	2440.0	2440.0	2422.0	2422.0	2399.0	2399.0	2399.0	2418.0	2418.0	2437.0	2437.0	2437.0	2384.0	2384.0	2412.0	2412.0	2412.0	2388.0	2388.0	2378.0	2378.0	2378.0	2395.0	2395.0	2377.0	2377.0	2377.0	2374.0	2374.0	2395.0	2395.0	2395.0	2374.0	2374.0	2371.0	2371.0	2371.0	2357.0	2357.0	2355.0	2355.0	2355.0	2364.0	2364.0	2345.0	2345.0	2345.0	2371.0	2371.0	2322.0	2322.0	2322.0	2335.0	2335.0	2351.0	2351.0	2351.0	2321.0	2321.0	2336.0	2336.0	2336.0	2318.0	2318.0	2317.0	2317.0	2317.0	2322.0	2322.0	2296.0	2296.0	2296.0	2284.0	2284.0	2286.0	2286.0	2286.0	2270.0	2270.0	2281.0	2281.0	2281.0	2272.0	2272.0	2259.0	2259.0	2259.0	2288.0	2288.0	2238.0	2238.0	2238.0	2234.0	2234.0	2244.0	2244.0	2244.0	2222.0	2222.0	2224.0	2224.0	2224.0	2171.0	2171.0	2220.0	2220.0	2220.0	2171.0	2171.0	2210.0	2210.0	2210.0	2165.0	2165.0	2177.0	2177.0	2177.0	2122.0	2122.0	2134.0	2134.0	2134.0	2122.0	2122.0	2136.0	2136.0	2136.0	2114.0	2114.0	2084.0	2084.0	2084.0	2101.0	2101.0	2087.0	2087.0	2087.0	2061.0	2061.0	2054.0	2054.0	2054.0	2086.0	2086.0	2051.0	2051.0	2051.0	2037.0	2037.0	2076.0	2076.0	2076.0	2046.0	2046.0	2033.0	2033.0	2033.0	2073.0	2073.0	2015.0	2015.0	2015.0	2018.0	2018.0	1997.0	1997.0	1997.0	2026.0	2026.0	2000.0	2000.0	2000.0	1998.0	1998.0	2001.0	2001.0	2001.0	2014.0	2014.0	2016.0	2016.0	2016.0	1995.0	1995.0	1996.0	1996.0	1996.0	2011.0	2011.0	2018.0	2018.0	2018.0	2023.0	2023.0	1979.0	1979.0	1979.0	1985.0	1985.0	2028.0	2028.0	2028.0	2020.0	2020.0	1991.0	1991.0	2011.0	2011.0	2011.0	2017.0	2017.0	1997.0	1997.0	1997.0	1989.0	1989.0	2014.0	2014.0	2014.0	1976.0	1976.0	1977.0	1977.0	1977.0	1970.0	1970.0	1998.0	1998.0	1998.0	1953.0	1953.0	1980.0	1980.0	1980.0	1945.0	1945.0	1963.0	1963.0	1963.0	1974.0	1974.0	1927.0	1927.0	1927.0	1942.0	1942.0	1951.0	1951.0	1951.0	1949.0	1949.0	1954.0	1954.0	1954.0	1937.0	1937.0	1915.0	1915.0	1915.0	1928.0	1928.0	1933.0	1933.0	1933.0	1953.0	1953.0	1947.0	1947.0	1947.0	1929.0	1929.0	1918.0	1918.0	1918.0	1923.0	1923.0	1927.0	1927.0	1927.0	1923.0	1923.0	1913.0	1913.0	1913.0	1939.0	1939.0	1916.0	1916.0	1916.0	1908.0	1908.0	1899.0	1899.0	1899.0	1903.0	1903.0	1937.0	1937.0	1937.0	1902.0	1902.0	1902.0	1902.0	1902.0	1887.0	1887.0	1913.0	1913.0	1913.0	1897.0	1897.0	1911.0	1911.0	1911.0	1867.0	1867.0	1871.0	1871.0	1871.0	1876.0	1876.0	1886.0	1886.0	1886.0	1872.0	1872.0	1855.0	1855.0	1855.0	1861.0	1861.0	1879.0	1879.0	1879.0	1880.0	1880.0	1863.0	1863.0	1863.0	1843.0	1843.0	1877.0	1877.0	1877.0	1882.0	1882.0	1835.0	1835.0	1835.0	1837.0	1837.0	1834.0	1834.0	1834.0	1847.0	1847.0	1832.0	1832.0	1832.0	1838.0	1838.0	1823.0	1823.0	1823.0	1817.0	1817.0	1847.0	1847.0	1847.0	1825.0	1825.0	1849.0	1849.0	1849.0	1816.0	1816.0	1845.0	1845.0	1845.0	1836.0	1836.0	1847.0	1847.0	1847.0	1820.0	1820.0	1811.0	1811.0	1811.0	1812.0	1812.0	1839.0	1839.0	1839.0	1789.0	1789.0	1836.0	1836.0	1836.0	1794.0	1794.0	1785.0	1785.0	1785.0	1832.0	1832.0	1789.0	1789.0	1803.0	1803.0	1803.0	1809.0	1809.0	1818.0	1818.0	1818.0	1762.0	1762.0	1796.0	1796.0	1796.0	1784.0	1784.0	1796.0	1796.0	1796.0	1768.0	1768.0	1794.0	1794.0	1794.0	1768.0	1768.0	1749.0	1749.0	1749.0	1788.0	1788.0	1795.0	1795.0	1795.0	1762.0	1762.0	1772.0	1772.0	1772.0	1771.0	1771.0	1782.0	1782.0	1782.0	1793.0	1793.0	1793.0	1793.0	1793.0	1774.0	1774.0	1777.0	1777.0	1777.0	1807.0	1807.0	1756.0	1756.0	1756.0	1769.0	1769.0	1790.0	1790.0	1790.0	1764.0	1764.0	1792.0	1792.0	1792.0	1755.0	1755.0	1784.0	1784.0	1784.0	1755.0	1755.0	1759.0	1759.0	1759.0	1784.0	1784.0	1783.0	1783.0	1783.0	1750.0	1750.0	1763.0	1763.0	1763.0	1791.0	1791.0	1779.0	1779.0	1779.0	1797.0	1797.0	1782.0	1782.0	1782.0	1758.0	1758.0	1744.0	1744.0	1744.0	1747.0	1747.0	1768.0	1768.0	1768.0	1746.0	1746.0	1778.0	1778.0	1778.0	1766.0	1766.0	1790.0	1790.0	1790.0	1787.0	1787.0	1790.0	1790.0	1790.0	1773.0	1773.0	1763.0	1763.0	1763.0	1742.0	1742.0	1797.0	1797.0	1797.0	1758.0	1758.0	1783.0	1783.0	1783.0	1791.0	1791.0	1736.0	1736.0	1736.0	1772.0	1772.0	1767.0	1767.0	1767.0	1786.0	1786.0	1787.0	1787.0	1787.0	1752.0	1752.0	1770.0	1770.0	1770.0	1748.0	1748.0	1781.0	1781.0	1781.0	1762.0	1762.0	1763.0	1763.0	1763.0	1759.0	1759.0	1737.0	1737.0	1737.0	1740.0	1740.0	1773.0	1773.0	1773.0	1754.0	1754.0	1780.0	1780.0	1780.0	1780.0	1780.0	1745.0	1745.0	1745.0	1750.0	1750.0	1767.0	1767.0	1767.0	1761.0	1761.0	1756.0	1756.0	1756.0	1736.0	1736.0	1780.0	1780.0	1780.0	1747.0	1747.0	1731.0	1731.0	1771.0	1771.0	1771.0	1774.0	1774.0	1755.0	1755.0	1755.0	1723.0	1723.0	1736.0	1736.0	1736.0	1724.0	1724.0	1752.0	1752.0	1752.0	1762.0	1762.0	1739.0	1739.0	1739.0	1764.0	1764.0	1734.0	1734.0	1734.0	1749.0	1749.0	1751.0	1751.0	1751.0	1719.0	1719.0	1736.0	1736.0	1736.0	1765.0	1765.0	1753.0	1753.0	1753.0	1779.0	1779.0	1777.0	1777.0	1777.0	1776.0	1776.0	1806.0	1806.0	1806.0	1782.0	1782.0	1833.0	1833.0	1833.0	1832.0	1832.0	1851.0	1851.0	1851.0	1829.0	1829.0	1889.0	1889.0	1889.0	1871.0	1871.0	1906.0	1906.0	1906.0	1935.0	1935.0	1967.0	1967.0	1967.0	1971.0	1971.0	2008.0	2008.0	2008.0	1996.0	1996.0	2023.0	2023.0	2023.0	2042.0	2042.0	2065.0	2065.0	2065.0	2125.0	2125.0	2126.0	2126.0	2126.0	2130.0	2130.0	2169.0	2169.0	2169.0	2203.0	2203.0	2182.0	2182.0	2182.0	2206.0	2206.0	2222.0	2222.0	2222.0	2263.0	2263.0	2277.0	2277.0	2277.0	2295.0	2295.0	2302.0	2302.0	2302.0	2330.0	2330.0	2354.0	2354.0	2354.0	2330.0	2330.0	2358.0	2358.0	2358.0	2391.0	2391.0	2384.0	2384.0	2384.0	2396.0	2396.0	2377.0	2377.0	2377.0	2387.0	2387.0	2381.0	2381.0	2381.0	2419.0	2419.0	2382.0	2382.0	2382.0	2399.0	2399.0	2389.0	2389.0	2389.0	2410.0	2410.0	2392.0	2392.0	2392.0	2415.0	2415.0	2432.0	2432.0	2432.0	2404.0	2404.0	2431.0	2431.0	2431.0	2421.0	2421.0	2438.0	2438.0	2438.0	2430.0	2430.0	2412.0	2412.0	2412.0	2401.0	2401.0	2414.0	2414.0	2414.0	2408.0	2408.0	2394.0	2394.0	2394.0	2391.0	2391.0	2420.0	2420.0	2420.0	2383.0	2383.0	2383.0	2383.0	2391.0	2391.0	2391.0	2400.0	2400.0	2397.0	2397.0	2397.0	2363.0	2363.0	2387.0	2387.0	2387.0	2387.0	2387.0	2387.0	2387.0	2387.0	2385.0	2385.0	2383.0	2383.0	2383.0	2362.0	2362.0	2373.0	2373.0	2373.0	2350.0	2350.0	2376.0	2376.0	2376.0	2361.0	2361.0	2360.0	2360.0	2360.0	2339.0	2339.0	2349.0	2349.0	2349.0	2368.0	2368.0	2335.0	2335.0	2335.0	2332.0	2332.0	2315.0	2315.0	2315.0	2328.0	2328.0	2328.0	2328.0	2328.0	2307.0	2307.0	2344.0	2344.0	2344.0	2327.0	2327.0	2325.0	2325.0	2325.0	2287.0	2287.0	2300.0	2300.0	2300.0	2327.0	2327.0	2295.0	2295.0	2295.0	2272.0	2272.0	2284.0	2284.0	2284.0	2275.0	2275.0	2273.0	2273.0	2273.0	2256.0	2256.0	2260.0	2260.0	2260.0	2270.0	2270.0	2245.0	2245.0	2245.0	2247.0	2247.0	2216.0	2216.0	2216.0	2238.0	2238.0	2214.0	2214.0	2214.0	2203.0	2203.0	2237.0	2237.0	2237.0	2208.0	2208.0	2210.0	2210.0	2210.0	2192.0	2192.0	2176.0	2176.0	2176.0	2164.0	2164.0	2139.0	2139.0	2139.0	2152.0	2152.0	2126.0	2126.0	2126.0	2121.0	2121.0	2137.0	2137.0	2137.0	2084.0	2084.0	2103.0	2103.0	2103.0	2079.0	2079.0	2075.0	2075.0	2075.0	2048.0	2048.0	2038.0	2038.0	2038.0	2039.0	2039.0	2029.0	2029.0	2029.0	2019.0	2019.0	2026.0	2026.0	2026.0	2052.0	2052.0	2030.0	2030.0	2030.0	2016.0	2016.0	2023.0	2023.0	2023.0	1984.0	1984.0	1990.0	1990.0	1990.0	1980.0	1980.0	2008.0	2008.0	2008.0	2010.0	2010.0	1977.0	1977.0	1977.0	1980.0	1980.0	2001.0	2001.0	2001.0	1974.0	1974.0	2008.0	2008.0	2008.0	1983.0	1983.0	1987.0	1987.0	1987.0	1987.0	1987.0	1959.0	1959.0	1975.0	1975.0	1975.0	1951.0	1951.0	1960.0	1960.0	1960.0	1962.0	1962.0	1979.0	1979.0	1979.0	1977.0	1977.0	1959.0	1959.0	1959.0	1955.0	1955.0	1947.0	1947.0	1947.0	1932.0	1932.0	1931.0	1931.0	1931.0	1927.0	1927.0	1964.0	1964.0	1964.0	1933.0	1933.0	1918.0	1918.0	1918.0	1975.0	1975.0	1941.0	1941.0	1941.0	1939.0	1939.0	1940.0	1940.0	1940.0	1931.0	1931.0	1918.0	1918.0	1918.0	1904.0	1904.0	1943.0	1943.0	1943.0	1933.0	1933.0	1923.0	1923.0	1923.0	1934.0	1934.0	1943.0	1943.0	1943.0	1947.0	1947.0	1904.0	1904.0	1904.0	1920.0	1920.0	1915.0	1915.0	1915.0	1900.0	1900.0	1894.0	1894.0	1894.0	1890.0	1890.0	1905.0	1905.0	1905.0	1900.0	1900.0	1918.0	1918.0	1918.0	1878.0	1878.0	1915.0	1915.0	1915.0	1908.0	1908.0	1910.0	1910.0	1910.0	1910.0	1910.0	1890.0	1890.0	1890.0	1864.0	1864.0	1904.0	1904.0	1904.0	1881.0	1881.0	1895.0	1895.0	1895.0	1885.0	1885.0	1858.0	1858.0	1858.0	1845.0	1845.0	1872.0	1872.0	1872.0	1863.0	1863.0	1850.0	1850.0	1850.0	1833.0	1833.0	1819.0	1819.0	1819.0	1833.0	1833.0	1825.0	1825.0	1825.0	1875.0	1875.0	1864.0	1864.0	1864.0	1850.0	1850.0	1847.0	1847.0	1847.0	1811.0	1811.0	1856.0	1856.0	1856.0	1816.0	1816.0	1822.0	1822.0	1822.0	1835.0	1835.0	1822.0	1822.0	1822.0	1828.0	1828.0	1834.0	1834.0	1834.0	1837.0	1837.0	1815.0	1815.0	1815.0	1812.0	1812.0	1801.0	1801.0	1801.0	1827.0	1827.0	1798.0	1798.0	1798.0	1823.0	1823.0	1822.0	1822.0	1822.0	1802.0	1802.0	1810.0	1810.0	1810.0	1812.0	1812.0	1806.0	1806.0	1808.0	1808.0	1808.0	1780.0	1780.0	1797.0	1797.0	1797.0	1801.0	1801.0	1767.0	1767.0	1767.0	1802.0	1802.0	1774.0	1774.0	1774.0	1815.0	1815.0	1783.0	1783.0	1783.0	1807.0	1807.0	1745.0	1745.0	1745.0	1787.0	1787.0	1762.0	1762.0	1762.0	1758.0	1758.0	1767.0	1767.0	1767.0	1763.0	1763.0	1753.0	1753.0	1753.0	1770.0	1770.0	1745.0	1745.0	1745.0	1775.0	1775.0	1759.0	1759.0	1759.0	1762.0	1762.0	1764.0	1764.0	1764.0	1740.0	1740.0	1751.0	1751.0	1751.0	1784.0	1784.0	1766.0	1766.0	1766.0	1739.0	1739.0	1759.0	1759.0	1759.0	1762.0	1762.0	1760.0	1760.0	1760.0	1753.0	1753.0	1760.0	1760.0	1760.0	1738.0	1738.0	1766.0	1766.0	1766.0	1746.0	1746.0	1758.0	1758.0	1758.0	1745.0	1745.0	1763.0	1763.0	1763.0	1758.0	1758.0	1768.0	1768.0	1768.0	1770.0	1770.0	1738.0	1738.0	1738.0	1768.0	1768.0	1728.0	1728.0	1728.0	1753.0	1753.0	1726.0	1726.0	1726.0	1746.0	1746.0	1732.0	1732.0	1732.0	1764.0	1764.0	1761.0	1761.0	1761.0	1734.0	1734.0	1731.0	1731.0	1731.0	1753.0	1753.0	1737.0	1737.0	1737.0	1757.0	1757.0	1740.0	1740.0	1740.0	1720.0	1720.0	1734.0	1734.0	1734.0	1726.0	1726.0	1734.0	1734.0	1734.0	1755.0	1755.0	1772.0	1772.0	1772.0	1736.0	1736.0	1735.0	1735.0	1735.0	1745.0	1745.0	1783.0	1783.0	1783.0	1765.0	1765.0	1783.0	1783.0	1783.0	1735.0	1735.0	1728.0	1728.0	1728.0	1752.0	1752.0	1758.0	1758.0	1758.0	1795.0	1795.0	1763.0	1763.0	1763.0	1739.0	1739.0	1743.0	1743.0	1743.0	1742.0	1742.0	1747.0	1747.0	1747.0	1747.0	1747.0	1780.0	1780.0	1729.0	1729.0	1729.0	1752.0	1752.0	1749.0	1749.0	1749.0	1768.0	1768.0	1746.0	1746.0	1746.0	1775.0	1775.0	1732.0	1732.0	1732.0	1727.0	1727.0	1764.0	1764.0	1764.0	1749.0	1749.0	1774.0	1774.0	1774.0	1743.0	1743.0	1723.0	1723.0	1723.0	1732.0	1732.0	1734.0	1734.0	1734.0	1751.0	1751.0	1771.0	1771.0	1771.0	1752.0	1752.0	1752.0	1752.0	1752.0	1723.0	1723.0	1719.0	1719.0	1719.0	1748.0	1748.0	1716.0	1716.0	1716.0	1752.0	1752.0	1750.0	1750.0	1750.0	1756.0	1756.0	1755.0	1755.0	1755.0	1758.0	1758.0	1756.0	1756.0	1756.0	1726.0	1726.0	1727.0	1727.0	1727.0	1774.0	1774.0	1742.0	1742.0	1742.0	1735.0	1735.0	1750.0	1750.0	1750.0	1777.0	1777.0	1760.0	1760.0	1760.0	1755.0	1755.0	1774.0	1774.0	1774.0	1802.0	1802.0	1786.0	1786.0	1786.0	1852.0	1852.0	1847.0	1847.0	1847.0	1871.0	1871.0	1873.0	1873.0	1873.0	1914.0	1914.0	1878.0	1878.0	1878.0	1948.0	1948.0	1973.0	1973.0	1973.0	1968.0	1968.0	2021.0	2021.0	2021.0	2018.0	2018.0	2033.0	2033.0	2033.0	2043.0	2043.0	2074.0	2074.0	2074.0	2127.0	2127.0	2156.0	2156.0	2156.0	2179.0	2179.0	2155.0	2155.0	2155.0	2194.0	2194.0	2242.0	2242.0	2242.0	2242.0	2242.0	2302.0	2302.0	2302.0	2315.0	2315.0	2313.0	2313.0	2313.0	2307.0	2307.0	2314.0	2314.0	2314.0	2357.0	2357.0	2364.0	2364.0	2364.0	2356.0	2356.0	2394.0	2394.0	2394.0	2413.0	2413.0	2394.0	2394.0	2394.0	2438.0	2438.0	2414.0	2414.0	2414.0	2441.0	2441.0	2422.0	2422.0	2422.0	2448.0	2448.0	2456.0	2456.0	2456.0	2427.0	2427.0	2443.0	2443.0	2443.0	2426.0	2426.0	2483.0	2483.0	2455.0	2455.0	2455.0	2440.0	2440.0	2468.0	2468.0	2468.0	2437.0	2437.0	2440.0	2440.0	2440.0	2463.0	2463.0	2447.0	2447.0	2447.0	2446.0	2446.0	2462.0	2462.0	2462.0	2471.0	2471.0	2457.0	2457.0	2457.0	2476.0	2476.0	2448.0	2448.0	2448.0	2466.0	2466.0	2427.0	2427.0	2427.0	2427.0	2427.0	2448.0	2448.0	2448.0	2461.0	2461.0	2445.0	2445.0	2445.0	2424.0	2424.0	2417.0	2417.0	2417.0	2411.0	2411.0	2418.0	2418.0	2418.0	2428.0	2428.0	2409.0	2409.0	2409.0	2423.0	2423.0	2420.0	2420.0	2420.0	2404.0	2404.0	2426.0	2426.0	2426.0	2378.0	2378.0	2406.0	2406.0	2406.0	2399.0	2399.0	2394.0	2394.0	2394.0	2375.0	2375.0	2405.0	2405.0	2405.0	2382.0	2382.0	2357.0	2357.0	2357.0	2372.0	2372.0	2355.0	2355.0	2355.0	2353.0	2353.0	2344.0	2344.0	2344.0	2347.0	2347.0	2375.0	2375.0	2375.0	2376.0	2376.0	2328.0	2328.0	2328.0	2332.0	2332.0	2332.0	2332.0	2332.0	2357.0	2357.0	2342.0	2342.0	2342.0	2351.0	2351.0	2324.0	2324.0	2324.0	2295.0	2295.0	2298.0	2298.0	2298.0	2331.0	2331.0	2289.0	2289.0	2289.0	2277.0	2277.0	2283.0	2283.0	2283.0	2268.0	2268.0	2262.0	2262.0	2262.0	2254.0	2254.0	2238.0	2238.0	2238.0	2245.0	2245.0	2245.0	2245.0	2245.0	2223.0	2223.0	2235.0	2235.0	2235.0	2236.0	2236.0	2181.0	2181.0	2181.0	2168.0	2168.0	2165.0	2165.0	2165.0	2159.0	2159.0	2132.0	2132.0	2132.0	2151.0	2151.0	2152.0	2152.0	2152.0	2124.0	2124.0	2112.0	2112.0	2112.0	2116.0	2116.0	2111.0	2111.0	2111.0	2090.0	2090.0	2097.0	2097.0	2097.0	2050.0	2050.0	2059.0	2059.0	2070.0	2070.0	2070.0	2048.0	2048.0	2062.0	2062.0	2062.0	2049.0	2049.0	2039.0	2039.0	2039.0	2040.0	2040.0	2001.0	2001.0	2001.0	2026.0	2026.0	2032.0	2032.0	2032.0	2037.0	2037.0	2042.0	2042.0	2042.0	2035.0	2035.0	2002.0	2002.0	