1844.0	1844.0	1846.0	1846.0	1846.0	1856.0	1856.0	1843.0	1843.0	1843.0	1828.0	1828.0	1821.0	1821.0	1821.0	1857.0	1857.0	1845.0	1845.0	1845.0	1783.0	1783.0	1847.0	1847.0	1847.0	1790.0	1790.0	1779.0	1779.0	1779.0	1818.0	1818.0	1776.0	1776.0	1776.0	1834.0	1834.0	1772.0	1772.0	1772.0	1768.0	1768.0	1805.0	1805.0	1805.0	1766.0	1766.0	1772.0	1772.0	1772.0	1767.0	1767.0	1778.0	1778.0	1778.0	1801.0	1801.0	1793.0	1793.0	1793.0	1759.0	1759.0	1812.0	1812.0	1812.0	1778.0	1778.0	1809.0	1809.0	1809.0	1759.0	1759.0	1765.0	1765.0	1765.0	1778.0	1778.0	1790.0	1790.0	1790.0	1765.0	1765.0	1823.0	1823.0	1823.0	1791.0	1791.0	1748.0	1748.0	1748.0	1770.0	1770.0	1753.0	1753.0	1753.0	1770.0	1770.0	1773.0	1773.0	1773.0	1809.0	1809.0	1809.0	1809.0	1809.0	1792.0	1792.0	1789.0	1789.0	1789.0	1787.0	1787.0	1815.0	1815.0	1815.0	1801.0	1801.0	1746.0	1746.0	1746.0	1776.0	1776.0	1807.0	1807.0	1807.0	1748.0	1748.0	1811.0	1811.0	1811.0	1752.0	1752.0	1745.0	1745.0	1745.0	1744.0	1744.0	1811.0	1811.0	1811.0	1770.0	1770.0	1760.0	1760.0	1760.0	1753.0	1753.0	1753.0	1753.0	1753.0	1759.0	1759.0	1796.0	1796.0	1796.0	1760.0	1760.0	1751.0	1751.0	1751.0	1782.0	1782.0	1787.0	1787.0	1787.0	1748.0	1748.0	1783.0	1783.0	1783.0	1745.0	1745.0	1764.0	1764.0	1764.0	1815.0	1815.0	1815.0	1815.0	1815.0	1746.0	1746.0	1819.0	1819.0	1819.0	1811.0	1811.0	1777.0	1777.0	1777.0	1795.0	1795.0	1815.0	1815.0	1815.0	1799.0	1799.0	1795.0	1795.0	1795.0	1800.0	1800.0	1816.0	1816.0	1822.0	1822.0	1822.0	1831.0	1831.0	1825.0	1825.0	1825.0	1756.0	1756.0	1764.0	1764.0	1764.0	1817.0	1817.0	1799.0	1799.0	1799.0	1786.0	1786.0	1792.0	1792.0	1792.0	1822.0	1822.0	1813.0	1813.0	1813.0	1826.0	1826.0	1834.0	1834.0	1834.0	1815.0	1815.0	1811.0	1811.0	1811.0	1828.0	1828.0	1837.0	1837.0	1837.0	1794.0	1794.0	1794.0	1794.0	1794.0	1806.0	1806.0	1806.0	1806.0	1806.0	1852.0	1852.0	1828.0	1828.0	1828.0	1807.0	1807.0	1803.0	1803.0	1803.0	1873.0	1873.0	1827.0	1827.0	1827.0	1882.0	1882.0	1837.0	1837.0	1837.0	1838.0	1838.0	1923.0	1923.0	1923.0	1905.0	1905.0	1947.0	1947.0	1947.0	1921.0	1921.0	1917.0	1917.0	1917.0	1921.0	1921.0	1959.0	1959.0	1959.0	1981.0	1981.0	2019.0	2019.0	2019.0	2098.0	2098.0	2051.0	2051.0	2051.0	2134.0	2134.0	2093.0	2093.0	2093.0	2114.0	2114.0	2131.0	2131.0	2131.0	2195.0	2195.0	2184.0	2184.0	2184.0	2252.0	2252.0	2231.0	2231.0	2231.0	2263.0	2263.0	2319.0	2319.0	2319.0	2333.0	2333.0	2343.0	2343.0	2343.0	2315.0	2315.0	2383.0	2383.0	2383.0	2360.0	2360.0	2357.0	2357.0	2357.0	2410.0	2410.0	2417.0	2417.0	2417.0	2384.0	2384.0	2408.0	2408.0	2408.0	2454.0	2454.0	2482.0	2482.0	2482.0	2441.0	2441.0	2479.0	2479.0	2479.0	2447.0	2447.0	2492.0	2492.0	2492.0	2467.0	2467.0	2516.0	2516.0	2516.0	2495.0	2495.0	2479.0	2479.0	2479.0	2541.0	2541.0	2489.0	2489.0	2489.0	2490.0	2490.0	2542.0	2542.0	2542.0	2497.0	2497.0	2514.0	2514.0	2514.0	2562.0	2562.0	2549.0	2549.0	2549.0	2556.0	2556.0	2582.0	2582.0	2582.0	2575.0	2575.0	2561.0	2561.0	2533.0	2533.0	2533.0	2579.0	2579.0	2572.0	2572.0	2572.0	2581.0	2581.0	2560.0	2560.0	2560.0	2558.0	2558.0	2537.0	2537.0	2537.0	2569.0	2569.0	2535.0	2535.0	2535.0	2528.0	2528.0	2548.0	2548.0	2548.0	2576.0	2576.0	2555.0	2555.0	2555.0	2544.0	2544.0	2560.0	2560.0	2560.0	2506.0	2506.0	2497.0	2497.0	2497.0	2522.0	2522.0	2520.0	2520.0	2520.0	2539.0	2539.0	2500.0	2500.0	2500.0	2551.0	2551.0	2548.0	2548.0	2548.0	2501.0	2501.0	2473.0	2473.0	2473.0	2510.0	2510.0	2474.0	2474.0	2474.0	2451.0	2451.0	2530.0	2530.0	2530.0	2512.0	2512.0	2502.0	2502.0	2502.0	2475.0	2475.0	2453.0	2453.0	2453.0	2469.0	2469.0	2450.0	2450.0	2450.0	2451.0	2451.0	2445.0	2445.0	2445.0	2415.0	2415.0	2451.0	2451.0	2451.0	2383.0	2383.0	2391.0	2391.0	2391.0	2377.0	2377.0	2399.0	2399.0	2399.0	2379.0	2379.0	2347.0	2347.0	2347.0	2384.0	2384.0	2353.0	2353.0	2353.0	2309.0	2309.0	2310.0	2310.0	2310.0	2288.0	2288.0	2295.0	2295.0	2295.0	2320.0	2320.0	2274.0	2274.0	2274.0	2247.0	2247.0	2271.0	2271.0	2271.0	2237.0	2237.0	2209.0	2209.0	2209.0	2227.0	2227.0	2187.0	2187.0	2187.0	2168.0	2168.0	2183.0	2183.0	2183.0	2176.0	2176.0	2155.0	2155.0	2155.0	2145.0	2145.0	2140.0	2140.0	2140.0	2162.0	2162.0	2141.0	2141.0	2141.0	2125.0	2125.0	2087.0	2087.0	2087.0	2140.0	2140.0	2055.0	2055.0	2055.0	2109.0	2109.0	2051.0	2051.0	2051.0	2089.0	2089.0	2027.0	2027.0	2027.0	2024.0	2024.0	2036.0	2036.0	2036.0	2004.0	2004.0	2028.0	2028.0	2028.0	1996.0	1996.0	2011.0	2011.0	1987.0	1987.0	1987.0	2035.0	2035.0	2020.0	2020.0	2020.0	1995.0	1995.0	2033.0	2033.0	2033.0	2016.0	2016.0	1962.0	1962.0	1962.0	2014.0	2014.0	2022.0	2022.0	2022.0	1989.0	1989.0	1996.0	1996.0	1996.0	1996.0	1996.0	2001.0	2001.0	2001.0	1941.0	1941.0	1968.0	1968.0	1968.0	1934.0	1934.0	1932.0	1932.0	1932.0	1972.0	1972.0	1955.0	1955.0	1955.0	1932.0	1932.0	1912.0	1912.0	1912.0	1941.0	1941.0	1979.0	1979.0	1979.0	1923.0	1923.0	1906.0	1906.0	1906.0	1898.0	1898.0	1951.0	1951.0	1951.0	1963.0	1963.0	1921.0	1921.0	1921.0	1954.0	1954.0	1933.0	1933.0	1933.0	1889.0	1889.0	1949.0	1949.0	1949.0	1928.0	1928.0	1892.0	1892.0	1892.0	1876.0	1876.0	1901.0	1901.0	1901.0	1896.0	1896.0	1921.0	1921.0	1921.0	1922.0	1922.0	1925.0	1925.0	1925.0	1914.0	1914.0	1914.0	1914.0	1914.0	1848.0	1848.0	1863.0	1863.0	1863.0	1847.0	1847.0	1870.0	1870.0	1870.0	1850.0	1850.0	1907.0	1907.0	1907.0	1834.0	1834.0	1907.0	1907.0	1907.0	1850.0	1850.0	1903.0	1903.0	1903.0	1835.0	1835.0	1861.0	1861.0	1861.0	1838.0	1838.0	1882.0	1882.0	1882.0	1872.0	1872.0	1825.0	1825.0	1825.0	1815.0	1815.0	1812.0	1812.0	1812.0	1821.0	1821.0	1851.0	1851.0	1851.0	1809.0	1809.0	1845.0	1845.0	1845.0	1865.0	1865.0	1868.0	1868.0	1868.0	1799.0	1799.0	1795.0	1795.0	1795.0	1854.0	1854.0	1823.0	1823.0	1823.0	1806.0	1806.0	1801.0	1801.0	1801.0	1823.0	1823.0	1827.0	1827.0	1827.0	1846.0	1846.0	1819.0	1819.0	1819.0	1779.0	1779.0	1788.0	1788.0	1788.0	1795.0	1795.0	1833.0	1833.0	1833.0	1774.0	1774.0	1819.0	1819.0	1843.0	1843.0	1843.0	1823.0	1823.0	1836.0	1836.0	1836.0	1810.0	1810.0	1824.0	1824.0	1824.0	1816.0	1816.0	1775.0	1775.0	1775.0	1757.0	1757.0	1779.0	1779.0	1779.0	1826.0	1826.0	1750.0	1750.0	1750.0	1757.0	1757.0	1755.0	1755.0	1755.0	1755.0	1755.0	1808.0	1808.0	1808.0	1754.0	1754.0	1754.0	1754.0	1754.0	1762.0	1762.0	1752.0	1752.0	1752.0	1746.0	1746.0	1786.0	1786.0	1786.0	1790.0	1790.0	1759.0	1759.0	1759.0	1804.0	1804.0	1786.0	1786.0	1786.0	1748.0	1748.0	1751.0	1751.0	1751.0	1784.0	1784.0	1775.0	1775.0	1775.0	1752.0	1752.0	1808.0	1808.0	1808.0	1746.0	1746.0	1801.0	1801.0	1801.0	1781.0	1781.0	1753.0	1753.0	1753.0	1804.0	1804.0	1751.0	1751.0	1751.0	1759.0	1759.0	1803.0	1803.0	1803.0	1814.0	1814.0	1748.0	1748.0	1748.0	1807.0	1807.0	1770.0	1770.0	1770.0	1796.0	1796.0	1815.0	1815.0	1815.0	1784.0	1784.0	1760.0	1760.0	1760.0	1779.0	1779.0	1788.0	1788.0	1788.0	1778.0	1778.0	1796.0	1796.0	1796.0	1822.0	1822.0	1768.0	1768.0	1768.0	1800.0	1800.0	1763.0	1763.0	1763.0	1775.0	1775.0	1762.0	1762.0	1762.0	1772.0	1772.0	1775.0	1775.0	1775.0	1758.0	1758.0	1822.0	1822.0	1822.0	1797.0	1797.0	1765.0	1765.0	1765.0	1804.0	1804.0	1822.0	1822.0	1822.0	1763.0	1763.0	1766.0	1766.0	1766.0	1772.0	1772.0	1815.0	1815.0	1815.0	1817.0	1817.0	1799.0	1799.0	1799.0	1810.0	1810.0	1782.0	1782.0	1782.0	1813.0	1813.0	1776.0	1776.0	1776.0	1778.0	1778.0	1809.0	1809.0	1809.0	1780.0	1780.0	1843.0	1843.0	1843.0	1831.0	1831.0	1838.0	1838.0	1769.0	1769.0	1769.0	1805.0	1805.0	1842.0	1842.0	1842.0	1826.0	1826.0	1796.0	1796.0	1796.0	1826.0	1826.0	1833.0	1833.0	1833.0	1819.0	1819.0	1858.0	1858.0	1858.0	1786.0	1786.0	1820.0	1820.0	1820.0	1854.0	1854.0	1846.0	1846.0	1846.0	1841.0	1841.0	1867.0	1867.0	1867.0	1826.0	1826.0	1818.0	1818.0	1818.0	1815.0	1815.0	1839.0	1839.0	1839.0	1827.0	1827.0	1850.0	1850.0	1850.0	1845.0	1845.0	1918.0	1918.0	1918.0	1884.0	1884.0	1955.0	1955.0	1955.0	1924.0	1924.0	1966.0	1966.0	1966.0	1947.0	1947.0	2006.0	2006.0	2006.0	1973.0	1973.0	2032.0	2032.0	2032.0	2036.0	2036.0	2055.0	2055.0	2055.0	2094.0	2094.0	2085.0	2085.0	2085.0	2103.0	2103.0	2182.0	2182.0	2182.0	2151.0	2151.0	2178.0	2178.0	2178.0	2230.0	2230.0	2216.0	2216.0	2216.0	2250.0	2250.0	2307.0	2307.0	2307.0	2338.0	2338.0	2283.0	2283.0	2283.0	2310.0	2310.0	2319.0	2319.0	2319.0	2380.0	2380.0	2397.0	2397.0	2397.0	2411.0	2411.0	2376.0	2376.0	2376.0	2432.0	2432.0	2406.0	2406.0	2406.0	2477.0	2477.0	2427.0	2427.0	2427.0	2425.0	2425.0	2479.0	2479.0	2479.0	2468.0	2468.0	2456.0	2456.0	2456.0	2488.0	2488.0	2522.0	2522.0	2522.0	2529.0	2529.0	2476.0	2476.0	2476.0	2529.0	2529.0	2488.0	2488.0	2488.0	2513.0	2513.0	2543.0	2543.0	2543.0	2490.0	2490.0	2546.0	2546.0	2546.0	2508.0	2508.0	2515.0	2515.0	2515.0	2560.0	2560.0	2520.0	2520.0	2520.0	2503.0	2503.0	2507.0	2507.0	2507.0	2501.0	2501.0	2544.0	2544.0	2544.0	2519.0	2519.0	2496.0	2496.0	2496.0	2512.0	2512.0	2553.0	2553.0	2565.0	2565.0	2565.0	2555.0	2555.0	2546.0	2546.0	2546.0	2566.0	2566.0	2500.0	2500.0	2500.0	2494.0	2494.0	2547.0	2547.0	2547.0	2507.0	2507.0	2542.0	2542.0	2542.0	2531.0	2531.0	2499.0	2499.0	2499.0	2500.0	2500.0	2511.0	2511.0	2511.0	2534.0	2534.0	2472.0	2472.0	2472.0	2527.0	2527.0	2481.0	2481.0	2481.0	2483.0	2483.0	2456.0	2456.0	2456.0	2489.0	2489.0	2482.0	2482.0	2482.0	2471.0	2471.0	2462.0	2462.0	2462.0	2482.0	2482.0	2444.0	2444.0	2444.0	2470.0	2470.0	2490.0	2490.0	2490.0	2445.0	2445.0	2441.0	2441.0	2441.0	2434.0	2434.0	2464.0	2464.0	2464.0	2394.0	2394.0	2384.0	2384.0	2384.0	2396.0	2396.0	2394.0	2394.0	2394.0	2424.0	2424.0	2395.0	2395.0	2395.0	2416.0	2416.0	2386.0	2386.0	2386.0	2339.0	2339.0	2377.0	2377.0	2377.0	2328.0	2328.0	2303.0	2303.0	2303.0	2324.0	2324.0	2316.0	2316.0	2316.0	2303.0	2303.0	2321.0	2321.0	2321.0	2308.0	2308.0	2258.0	2258.0	2258.0	2247.0	2247.0	2235.0	2235.0	2235.0	2252.0	2252.0	2190.0	2190.0	2190.0	2231.0	2231.0	2221.0	2221.0	2221.0	2226.0	2226.0	2143.0	2143.0	2143.0	2195.0	2195.0	2147.0	2147.0	2147.0	2181.0	2181.0	2133.0	2133.0	2133.0	2088.0	2088.0	2121.0	2121.0	2121.0	2125.0	2125.0	2133.0	2133.0	2133.0	2070.0	2070.0	2062.0	2062.0	2062.0	2036.0	2036.0	2028.0	2028.0	2028.0	2048.0	2048.0	2053.0	2053.0	2053.0	2072.0	2072.0	2049.0	2049.0	2049.0	2045.0	2045.0	2038.0	2038.0	2038.0	2021.0	2021.0	2001.0	2001.0	2001.0	1998.0	1998.0	1971.0	1971.0	1971.0	1993.0	1993.0	2015.0	2015.0	2015.0	1961.0	1961.0	1996.0	1996.0	1947.0	1947.0	1947.0	1980.0	1980.0	1941.0	1941.0	1941.0	1943.0	1943.0	1960.0	1960.0	1960.0	1963.0	1963.0	1948.0	1948.0	1948.0	1945.0	1945.0	1920.0	1920.0	1920.0	1937.0	1937.0	1903.0	1903.0	1903.0	1944.0	1944.0	1908.0	1908.0	1908.0	1901.0	1901.0	1947.0	1947.0	1947.0	1917.0	1917.0	1921.0	1921.0	1921.0	1892.0	1892.0	1950.0	1950.0	1950.0	1904.0	1904.0	1891.0	1891.0	1891.0	1945.0	1945.0	1917.0	1917.0	1917.0	1876.0	1876.0	1935.0	1935.0	1935.0	1933.0	1933.0	1879.0	1879.0	1879.0	1888.0	1888.0	1927.0	1927.0	1927.0	1867.0	1867.0	1876.0	1876.0	1876.0	1905.0	1905.0	1861.0	1861.0	1861.0	1872.0	1872.0	1857.0	1857.0	1857.0	1901.0	1901.0	1919.0	1919.0	1919.0	1890.0	1890.0	1859.0	1859.0	1859.0	1855.0	1855.0	1850.0	1850.0	1850.0	1885.0	1885.0	1906.0	1906.0	1906.0	1910.0	1910.0	1838.0	1838.0	1838.0	1878.0	1878.0	1836.0	1836.0	1836.0	1824.0	1824.0	1854.0	1854.0	1854.0	1857.0	1857.0	1876.0	1876.0	1876.0	1874.0	1874.0	1885.0	1885.0	1885.0	1843.0	1843.0	1856.0	1856.0	1856.0	1842.0	1842.0	1875.0	1875.0	1875.0	1849.0	1849.0	1844.0	1844.0	1844.0	1839.0	1839.0	1807.0	1807.0	1807.0	1852.0	1852.0	1839.0	1839.0	1839.0	1847.0	1847.0	1860.0	1860.0	1860.0	1798.0	1798.0	1795.0	1795.0	1795.0	1841.0	1841.0	1805.0	1805.0	1805.0	1812.0	1812.0	1851.0	1851.0	1851.0	1777.0	1777.0	1780.0	1780.0	1780.0	1840.0	1840.0	1793.0	1793.0	1793.0	1792.0	1792.0	1814.0	1814.0	1814.0	1795.0	1795.0	1790.0	1790.0	1790.0	1800.0	1800.0	1848.0	1848.0	1759.0	1759.0	1759.0	1830.0	1830.0	1773.0	1773.0	1773.0	1807.0	1807.0	1767.0	1767.0	1767.0	1760.0	1760.0	1758.0	1758.0	1758.0	1809.0	1809.0	1817.0	1817.0	1817.0	1825.0	1825.0	1772.0	1772.0	1772.0	1814.0	1814.0	1792.0	1792.0	1792.0	1774.0	1774.0	1751.0	1751.0	1751.0	1757.0	1757.0	1785.0	1785.0	1785.0	1773.0	1773.0	1772.0	1772.0	1772.0	1817.0	1817.0	1788.0	1788.0	1788.0	1745.0	1745.0	1766.0	1766.0	1766.0	1752.0	1752.0	1754.0	1754.0	1754.0	1748.0	1748.0	1777.0	1777.0	1777.0	1782.0	1782.0	1770.0	1770.0	1770.0	1810.0	1810.0	1780.0	1780.0	1780.0	1802.0	1802.0	1755.0	1755.0	1755.0	1777.0	1777.0	1773.0	1773.0	1773.0	1739.0	1739.0	1751.0	1751.0	1751.0	1766.0	1766.0	1741.0	1741.0	1741.0	1799.0	1799.0	1782.0	1782.0	1782.0	1809.0	1809.0	1768.0	1768.0	1768.0	1771.0	1771.0	1745.0	1745.0	1745.0	1756.0	1756.0	1805.0	1805.0	1805.0	1810.0	1810.0	1815.0	1815.0	1815.0	1808.0	1808.0	1785.0	1785.0	1785.0	1784.0	1784.0	1761.0	1761.0	1761.0	1751.0	1751.0	1741.0	1741.0	1741.0	1821.0	1821.0	1812.0	1812.0	1812.0	1793.0	1793.0	1764.0	1764.0	1764.0	1797.0	1797.0	1766.0	1766.0	1766.0	1793.0	1793.0	1773.0	1773.0	1773.0	1750.0	1750.0	1795.0	1795.0	1795.0	1811.0	1811.0	1810.0	1810.0	1810.0	1747.0	1747.0	1790.0	1790.0	1790.0	1771.0	1771.0	1756.0	1756.0	1756.0	1826.0	1826.0	1773.0	1773.0	1773.0	1815.0	1815.0	1755.0	1755.0	1755.0	1799.0	1799.0	1799.0	1799.0	1799.0	1770.0	1770.0	1823.0	1823.0	1823.0	1829.0	1829.0	1813.0	1813.0	1767.0	1767.0	1767.0	1772.0	1772.0	1835.0	1835.0	1835.0	1771.0	1771.0	1771.0	1771.0	1771.0	1812.0	1812.0	1845.0	1845.0	1845.0	1785.0	1785.0	1811.0	1811.0	1811.0	1794.0	1794.0	1839.0	1839.0	1839.0	1841.0	1841.0	1805.0	1805.0	1805.0	1843.0	1843.0	1827.0	1827.0	1827.0	1796.0	1796.0	1848.0	1848.0	1848.0	1822.0	1822.0	1822.0	1822.0	1822.0	1828.0	1828.0	1833.0	1833.0	1833.0	1825.0	1825.0	1835.0	1835.0	1835.0	1848.0	1848.0	1910.0	1910.0	1910.0	1896.0	1896.0	1881.0	1881.0	1881.0	1961.0	1961.0	1974.0	1974.0	1974.0	1971.0	1971.0	1981.0	1981.0	1981.0	1969.0	1969.0	1992.0	1992.0	1992.0	2055.0	2055.0	2098.0	2098.0	2098.0	2060.0	2060.0	2126.0	2126.0	2126.0	2150.0	2150.0	2182.0	2182.0	2182.0	2151.0	2151.0	2207.0	2207.0	2207.0	2232.0	2232.0	2200.0	2200.0	2200.0	2265.0	2265.0	2279.0	2279.0	2279.0	2260.0	2260.0	2283.0	2283.0	2283.0	2303.0	2303.0	2330.0	2330.0	2330.0	2376.0	2376.0	2372.0	2372.0	2372.0	2393.0	2393.0	2371.0	2371.0	2371.0	2419.0	2419.0	2383.0	2383.0	2383.0	2423.0	2423.0	2470.0	2470.0	2470.0	2423.0	2423.0	2486.0	2486.0	2486.0	2480.0	2480.0	2471.0	2471.0	2471.0	2461.0	2461.0	2508.0	2508.0	2508.0	2464.0	2464.0	2502.0	2502.0	2502.0	2509.0	2509.0	2523.0	2523.0	2523.0	2491.0	2491.0	2521.0	2521.0	2521.0	2531.0	2531.0	2488.0	2488.0	2488.0	2515.0	2515.0	2487.0	2487.0	2487.0	2545.0	2545.0	2502.0	2502.0	2502.0	2523.0	2523.0	2510.0	2510.0	2510.0	2553.0	2553.0	2496.0	2496.0	2496.0	2537.0	2537.0	2504.0	2504.0	2504.0	2536.0	2536.0	2495.0	2495.0	2535.0	2535.0	2535.0	2483.0	2483.0	2548.0	2548.0	2548.0	2530.0	2530.0	2520.0	2520.0	2520.0	2484.0	2484.0	2496.0	2496.0	2496.0	2499.0	2499.0	2488.0	2488.0	2488.0	2499.0	2499.0	2480.0	2480.0	2480.0	2477.0	2477.0	2512.0	2512.0	2512.0	2524.0	2524.0	2515.0	2515.0	2515.0	2449.0	2449.0	2465.0	2465.0	2465.0	2443.0	2443.0	2436.0	2436.0	2436.0	2439.0	2439.0	2458.0	2458.0	2458.0	2492.0	2492.0	2465.0	2465.0	2465.0	