2014.0	2006.0	2006.0	2006.0	2026.0	2026.0	2035.0	2035.0	2035.0	1983.0	1983.0	2021.0	2021.0	2021.0	1982.0	1982.0	2023.0	2023.0	2023.0	2018.0	2018.0	2025.0	2025.0	2025.0	1983.0	1983.0	2006.0	2006.0	2006.0	1983.0	1983.0	2000.0	2000.0	2000.0	1999.0	1999.0	1976.0	1976.0	1976.0	2015.0	2015.0	1978.0	1978.0	1978.0	2004.0	2004.0	1979.0	1979.0	1979.0	1993.0	1993.0	2012.0	2012.0	2007.0	2007.0	2007.0	1991.0	1991.0	1976.0	1976.0	1976.0	1982.0	1982.0	1966.0	1966.0	1966.0	1984.0	1984.0	1960.0	1960.0	1960.0	1987.0	1987.0	1964.0	1964.0	1964.0	1990.0	1990.0	1966.0	1966.0	1966.0	1962.0	1962.0	1985.0	1985.0	1985.0	1961.0	1961.0	1982.0	1982.0	1982.0	1959.0	1959.0	1976.0	1976.0	1976.0	1947.0	1947.0	1948.0	1948.0	1948.0	1962.0	1962.0	1972.0	1972.0	1972.0	1959.0	1959.0	1977.0	1977.0	1977.0	1982.0	1982.0	1975.0	1975.0	1975.0	1982.0	1982.0	1963.0	1963.0	1963.0	1946.0	1946.0	1974.0	1974.0	1974.0	1945.0	1945.0	1940.0	1940.0	1940.0	1929.0	1929.0	1945.0	1945.0	1945.0	1947.0	1947.0	1948.0	1948.0	1948.0	1916.0	1916.0	1949.0	1949.0	1949.0	1936.0	1936.0	1939.0	1939.0	1939.0	1972.0	1972.0	1924.0	1924.0	1924.0	1941.0	1941.0	1920.0	1920.0	1920.0	1943.0	1943.0	1947.0	1947.0	1947.0	1930.0	1930.0	1924.0	1924.0	1924.0	1924.0	1924.0	1902.0	1902.0	1902.0	1941.0	1941.0	1908.0	1908.0	1908.0	1948.0	1948.0	1938.0	1938.0	1938.0	1917.0	1917.0	1949.0	1949.0	1949.0	1934.0	1934.0	1935.0	1935.0	1935.0	1918.0	1918.0	1922.0	1922.0	1922.0	1922.0	1922.0	1916.0	1916.0	1916.0	1914.0	1914.0	1910.0	1910.0	1910.0	1931.0	1931.0	1909.0	1909.0	1909.0	1961.0	1961.0	1922.0	1922.0	1922.0	1913.0	1913.0	1919.0	1919.0	1919.0	1911.0	1911.0	1937.0	1937.0	1937.0	1932.0	1932.0	1924.0	1924.0	1924.0	1894.0	1894.0	1938.0	1938.0	1938.0	1916.0	1916.0	1932.0	1932.0	1932.0	1895.0	1895.0	1899.0	1899.0	1899.0	1914.0	1914.0	1908.0	1908.0	1908.0	1921.0	1921.0	1918.0	1918.0	1924.0	1924.0	1924.0	1912.0	1912.0	1904.0	1904.0	1904.0	1943.0	1943.0	1931.0	1931.0	1931.0	1915.0	1915.0	1906.0	1906.0	1906.0	1925.0	1925.0	1911.0	1911.0	1911.0	1934.0	1934.0	1928.0	1928.0	1928.0	1930.0	1930.0	1903.0	1903.0	1903.0	1897.0	1897.0	1921.0	1921.0	1921.0	1925.0	1925.0	1933.0	1933.0	1933.0	1938.0	1938.0	1936.0	1936.0	1936.0	1915.0	1915.0	1939.0	1939.0	1939.0	1909.0	1909.0	1935.0	1935.0	1935.0	1883.0	1883.0	1913.0	1913.0	1913.0	1911.0	1911.0	1904.0	1904.0	1904.0	1941.0	1941.0	1913.0	1913.0	1913.0	1912.0	1912.0	1933.0	1933.0	1933.0	1926.0	1926.0	1905.0	1905.0	1905.0	1912.0	1912.0	1924.0	1924.0	1924.0	1934.0	1934.0	1908.0	1908.0	1908.0	1909.0	1909.0	1931.0	1931.0	1931.0	1913.0	1913.0	1904.0	1904.0	1904.0	1896.0	1896.0	1921.0	1921.0	1921.0	1921.0	1921.0	1905.0	1905.0	1905.0	1942.0	1942.0	1908.0	1908.0	1908.0	1897.0	1897.0	1949.0	1949.0	1949.0	1926.0	1926.0	1916.0	1916.0	1916.0	1937.0	1937.0	1949.0	1949.0	1949.0	1927.0	1927.0	1908.0	1908.0	1908.0	1907.0	1907.0	1932.0	1932.0	1932.0	1948.0	1948.0	1931.0	1931.0	1931.0	1912.0	1912.0	1931.0	1931.0	1931.0	1932.0	1932.0	1923.0	1923.0	1923.0	1963.0	1963.0	1935.0	1935.0	1935.0	1920.0	1920.0	1914.0	1914.0	1914.0	1965.0	1965.0	1937.0	1937.0	1937.0	1914.0	1914.0	1922.0	1922.0	1922.0	1937.0	1937.0	1964.0	1964.0	1964.0	1939.0	1939.0	1944.0	1944.0	1944.0	1961.0	1961.0	1946.0	1946.0	1946.0	1980.0	1980.0	1967.0	1967.0	1967.0	1959.0	1959.0	1967.0	1967.0	1991.0	1991.0	1991.0	2010.0	2010.0	2013.0	2013.0	2013.0	1998.0	1998.0	2031.0	2031.0	2031.0	2043.0	2043.0	2042.0	2042.0	2042.0	2058.0	2058.0	2071.0	2071.0	2071.0	2108.0	2108.0	2104.0	2104.0	2104.0	2140.0	2140.0	2115.0	2115.0	2115.0	2164.0	2164.0	2151.0	2151.0	2151.0	2165.0	2165.0	2170.0	2170.0	2170.0	2172.0	2172.0	2217.0	2217.0	2217.0	2245.0	2245.0	2231.0	2231.0	2231.0	2243.0	2243.0	2239.0	2239.0	2239.0	2257.0	2257.0	2287.0	2287.0	2287.0	2286.0	2286.0	2268.0	2268.0	2268.0	2266.0	2266.0	2324.0	2324.0	2324.0	2284.0	2284.0	2307.0	2307.0	2307.0	2288.0	2288.0	2339.0	2339.0	2339.0	2329.0	2329.0	2334.0	2334.0	2334.0	2337.0	2337.0	2328.0	2328.0	2328.0	2332.0	2332.0	2318.0	2318.0	2318.0	2338.0	2338.0	2358.0	2358.0	2358.0	2333.0	2333.0	2356.0	2356.0	2356.0	2318.0	2318.0	2328.0	2328.0	2328.0	2332.0	2332.0	2324.0	2324.0	2324.0	2318.0	2318.0	2328.0	2328.0	2328.0	2333.0	2333.0	2356.0	2356.0	2356.0	2344.0	2344.0	2338.0	2338.0	2338.0	2355.0	2355.0	2335.0	2335.0	2335.0	2326.0	2326.0	2351.0	2351.0	2351.0	2353.0	2353.0	2336.0	2336.0	2336.0	2332.0	2332.0	2329.0	2329.0	2329.0	2322.0	2322.0	2308.0	2308.0	2308.0	2328.0	2328.0	2327.0	2327.0	2327.0	2356.0	2356.0	2327.0	2327.0	2327.0	2318.0	2318.0	2340.0	2340.0	2340.0	2336.0	2336.0	2299.0	2299.0	2299.0	2321.0	2321.0	2298.0	2298.0	2298.0	2317.0	2317.0	2304.0	2304.0	2304.0	2312.0	2312.0	2314.0	2314.0	2314.0	2287.0	2287.0	2273.0	2273.0	2273.0	2321.0	2321.0	2286.0	2286.0	2309.0	2309.0	2309.0	2301.0	2301.0	2299.0	2299.0	2299.0	2291.0	2291.0	2300.0	2300.0	2300.0	2272.0	2272.0	2262.0	2262.0	2262.0	2294.0	2294.0	2274.0	2274.0	2274.0	2244.0	2244.0	2274.0	2274.0	2274.0	2279.0	2279.0	2242.0	2242.0	2242.0	2240.0	2240.0	2243.0	2243.0	2243.0	2258.0	2258.0	2229.0	2229.0	2229.0	2240.0	2240.0	2240.0	2240.0	2240.0	2198.0	2198.0	2205.0	2205.0	2205.0	2215.0	2215.0	2208.0	2208.0	2208.0	2189.0	2189.0	2178.0	2178.0	2178.0	2171.0	2171.0	2191.0	2191.0	2191.0	2160.0	2160.0	2166.0	2166.0	2166.0	2168.0	2168.0	2134.0	2134.0	2134.0	2138.0	2138.0	2131.0	2131.0	2131.0	2126.0	2126.0	2121.0	2121.0	2121.0	2115.0	2115.0	2126.0	2126.0	2126.0	2115.0	2115.0	2085.0	2085.0	2085.0	2112.0	2112.0	2100.0	2100.0	2100.0	2103.0	2103.0	2103.0	2103.0	2103.0	2067.0	2067.0	2091.0	2091.0	2091.0	2065.0	2065.0	2063.0	2063.0	2063.0	2045.0	2045.0	2054.0	2054.0	2054.0	2070.0	2070.0	2031.0	2031.0	2031.0	2071.0	2071.0	2058.0	2058.0	2058.0	2033.0	2033.0	2013.0	2013.0	2013.0	2048.0	2048.0	2039.0	2039.0	2039.0	2018.0	2018.0	2033.0	2033.0	2033.0	2025.0	2025.0	2033.0	2033.0	2033.0	2039.0	2039.0	2016.0	2016.0	2016.0	2025.0	2025.0	2015.0	2015.0	2015.0	2007.0	2007.0	2001.0	2001.0	2001.0	2017.0	2017.0	2046.0	2046.0	2046.0	1997.0	1997.0	2020.0	2020.0	2020.0	2019.0	2019.0	1997.0	1997.0	1997.0	2023.0	2023.0	1986.0	1986.0	1986.0	1975.0	1975.0	2018.0	2018.0	2018.0	1981.0	1981.0	1988.0	1988.0	1988.0	2008.0	2008.0	2011.0	2011.0	2011.0	2012.0	2012.0	1975.0	1975.0	2003.0	2003.0	2003.0	1996.0	1996.0	1969.0	1969.0	1969.0	2005.0	2005.0	1987.0	1987.0	1987.0	1983.0	1983.0	1977.0	1977.0	1977.0	1983.0	1983.0	2007.0	2007.0	2007.0	2006.0	2006.0	1972.0	1972.0	1972.0	1969.0	1969.0	1989.0	1989.0	1989.0	1958.0	1958.0	1950.0	1950.0	1950.0	1955.0	1955.0	1955.0	1955.0	1955.0	1957.0	1957.0	1956.0	1956.0	1956.0	1952.0	1952.0	1967.0	1967.0	1967.0	1963.0	1963.0	1968.0	1968.0	1968.0	1939.0	1939.0	1960.0	1960.0	1960.0	1976.0	1976.0	1981.0	1981.0	1981.0	1966.0	1966.0	1953.0	1953.0	1953.0	1978.0	1978.0	1948.0	1948.0	1948.0	1946.0	1946.0	1954.0	1954.0	1954.0	1954.0	1954.0	1966.0	1966.0	1966.0	1980.0	1980.0	1938.0	1938.0	1938.0	1947.0	1947.0	1938.0	1938.0	1938.0	1953.0	1953.0	1963.0	1963.0	1963.0	1925.0	1925.0	1936.0	1936.0	1936.0	1955.0	1955.0	1937.0	1937.0	1937.0	1927.0	1927.0	1938.0	1938.0	1938.0	1928.0	1928.0	1941.0	1941.0	1941.0	1964.0	1964.0	1954.0	1954.0	1954.0	1935.0	1935.0	1951.0	1951.0	1951.0	1929.0	1929.0	1921.0	1921.0	1921.0	1938.0	1938.0	1918.0	1918.0	1918.0	1938.0	1938.0	1954.0	1954.0	1954.0	1920.0	1920.0	1926.0	1926.0	1926.0	1910.0	1910.0	1905.0	1905.0	1905.0	1947.0	1947.0	1913.0	1913.0	1913.0	1905.0	1905.0	1921.0	1921.0	1921.0	1914.0	1914.0	1952.0	1952.0	1952.0	1912.0	1912.0	1939.0	1939.0	1939.0	1913.0	1913.0	1946.0	1946.0	1946.0	1913.0	1913.0	1931.0	1931.0	1931.0	1908.0	1908.0	1920.0	1920.0	1920.0	1936.0	1936.0	1929.0	1929.0	1929.0	1907.0	1907.0	1919.0	1919.0	1892.0	1892.0	1892.0	1943.0	1943.0	1923.0	1923.0	1923.0	1931.0	1931.0	1920.0	1920.0	1920.0	1916.0	1916.0	1901.0	1901.0	1901.0	1919.0	1919.0	1926.0	1926.0	1926.0	1934.0	1934.0	1933.0	1933.0	1933.0	1904.0	1904.0	1915.0	1915.0	1915.0	1932.0	1932.0	1901.0	1901.0	1901.0	1890.0	1890.0	1927.0	1927.0	1927.0	1911.0	1911.0	1926.0	1926.0	1926.0	1919.0	1919.0	1899.0	1899.0	1899.0	1919.0	1919.0	1923.0	1923.0	1923.0	1908.0	1908.0	1901.0	1901.0	1901.0	1911.0	1911.0	1922.0	1922.0	1922.0	1908.0	1908.0	1916.0	1916.0	1916.0	1899.0	1899.0	1936.0	1936.0	1936.0	1894.0	1894.0	1927.0	1927.0	1927.0	1919.0	1919.0	1909.0	1909.0	1909.0	1901.0	1901.0	1918.0	1918.0	1918.0	1918.0	1918.0	1896.0	1896.0	1896.0	1925.0	1925.0	1919.0	1919.0	1919.0	1911.0	1911.0	1941.0	1941.0	1941.0	1933.0	1933.0	1927.0	1927.0	1927.0	1889.0	1889.0	1938.0	1938.0	1938.0	1911.0	1911.0	1895.0	1895.0	1895.0	1895.0	1895.0	1904.0	1904.0	1904.0	1919.0	1919.0	1943.0	1943.0	1943.0	1911.0	1911.0	1945.0	1945.0	1945.0	1945.0	1945.0	1917.0	1917.0	1917.0	1938.0	1938.0	1941.0	1941.0	1941.0	1918.0	1918.0	1935.0	1935.0	1935.0	1919.0	1919.0	1896.0	1896.0	1896.0	1932.0	1932.0	1937.0	1937.0	1937.0	1950.0	1950.0	1910.0	1910.0	1910.0	1961.0	1961.0	1957.0	1957.0	1957.0	1945.0	1945.0	1916.0	1916.0	1916.0	1938.0	1938.0	1915.0	1915.0	1915.0	1950.0	1950.0	1939.0	1939.0	1939.0	1907.0	1907.0	1947.0	1947.0	1947.0	1919.0	1919.0	1948.0	1948.0	1948.0	1963.0	1963.0	1939.0	1939.0	1942.0	1942.0	1942.0	1932.0	1932.0	1951.0	1951.0	1951.0	1963.0	1963.0	1974.0	1974.0	1974.0	1965.0	1965.0	1974.0	1974.0	1974.0	1996.0	1996.0	1990.0	1990.0	1990.0	2025.0	2025.0	2022.0	2022.0	2022.0	2032.0	2032.0	2012.0	2012.0	2012.0	2056.0	2056.0	2070.0	2070.0	2070.0	2118.0	2118.0	2055.0	2055.0	2055.0	2109.0	2109.0	2109.0	2109.0	2109.0	2119.0	2119.0	2124.0	2124.0	2124.0	2160.0	2160.0	2185.0	2185.0	2185.0	2179.0	2179.0	2208.0	2208.0	2208.0	2188.0	2188.0	2207.0	2207.0	2207.0	2217.0	2217.0	2250.0	2250.0	2250.0	2230.0	2230.0	2235.0	2235.0	2235.0	2253.0	2253.0	2260.0	2260.0	2260.0	2277.0	2277.0	2286.0	2286.0	2286.0	2302.0	2302.0	2291.0	2291.0	2291.0	2305.0	2305.0	2297.0	2297.0	2297.0	2298.0	2298.0	2329.0	2329.0	2329.0	2323.0	2323.0	2321.0	2321.0	2321.0	2308.0	2308.0	2314.0	2314.0	2314.0	2309.0	2309.0	2344.0	2344.0	2344.0	2346.0	2346.0	2337.0	2337.0	2337.0	2335.0	2335.0	2331.0	2331.0	2331.0	2343.0	2343.0	2319.0	2319.0	2319.0	2353.0	2353.0	2332.0	2332.0	2332.0	2346.0	2346.0	2343.0	2343.0	2343.0	2334.0	2334.0	2351.0	2351.0	2351.0	2345.0	2345.0	2323.0	2323.0	2323.0	2323.0	2323.0	2322.0	2322.0	2322.0	2345.0	2345.0	2327.0	2327.0	2327.0	2338.0	2338.0	2315.0	2315.0	2315.0	2319.0	2319.0	2318.0	2318.0	2318.0	2320.0	2320.0	2321.0	2321.0	2321.0	2321.0	2321.0	2340.0	2340.0	2340.0	2297.0	2297.0	2285.0	2285.0	2285.0	2327.0	2327.0	2304.0	2304.0	2304.0	2302.0	2302.0	2326.0	2326.0	2326.0	2312.0	2312.0	2315.0	2315.0	2315.0	2304.0	2304.0	2306.0	2306.0	2270.0	2270.0	2270.0	2277.0	2277.0	2280.0	2280.0	2280.0	2302.0	2302.0	2314.0	2314.0	2314.0	2296.0	2296.0	2264.0	2264.0	2264.0	2292.0	2292.0	2260.0	2260.0	2260.0	2272.0	2272.0	2264.0	2264.0	2264.0	2245.0	2245.0	2291.0	2291.0	2291.0	2246.0	2246.0	2250.0	2250.0	2250.0	2258.0	2258.0	2251.0	2251.0	2251.0	2231.0	2231.0	2241.0	2241.0	2241.0	2211.0	2211.0	2215.0	2215.0	2215.0	2217.0	2217.0	2224.0	2224.0	2224.0	2198.0	2198.0	2199.0	2199.0	2199.0	2209.0	2209.0	2179.0	2179.0	2179.0	2189.0	2189.0	2186.0	2186.0	2186.0	2199.0	2199.0	2170.0	2170.0	2170.0	2156.0	2156.0	2151.0	2151.0	2151.0	2172.0	2172.0	2126.0	2126.0	2126.0	2147.0	2147.0	2116.0	2116.0	2116.0	2131.0	2131.0	2117.0	2117.0	2117.0	2126.0	2126.0	2125.0	2125.0	2125.0	2111.0	2111.0	2087.0	2087.0	2087.0	2112.0	2112.0	2073.0	2073.0	2073.0	2072.0	2072.0	2053.0	2053.0	2053.0	2051.0	2051.0	2092.0	2092.0	2092.0	2051.0	2051.0	2094.0	2094.0	2094.0	2071.0	2071.0	2046.0	2046.0	2046.0	2059.0	2059.0	2038.0	2038.0	2038.0	2036.0	2036.0	2033.0	2033.0	2033.0	2044.0	2044.0	2061.0	2061.0	2061.0	2018.0	2018.0	2028.0	2028.0	2028.0	2040.0	2040.0	2025.0	2025.0	2025.0	2031.0	2031.0	2035.0	2035.0	2035.0	2023.0	2023.0	2020.0	2020.0	2020.0	2018.0	2018.0	2038.0	2038.0	2038.0	1992.0	1992.0	2014.0	2014.0	2014.0	1985.0	1985.0	2007.0	2007.0	2007.0	1992.0	1992.0	2017.0	2017.0	2017.0	1996.0	1996.0	1991.0	1991.0	1991.0	1961.0	1961.0	1991.0	1991.0	1991.0	2009.0	2009.0	1998.0	1998.0	2001.0	2001.0	2001.0	1990.0	1990.0	1968.0	1968.0	1968.0	1966.0	1966.0	1964.0	1964.0	1964.0	1970.0	1970.0	1992.0	1992.0	1992.0	1975.0	1975.0	2011.0	2011.0	2011.0	1993.0	1993.0	1968.0	1968.0	1968.0	2007.0	2007.0	1965.0	1965.0	1965.0	1971.0	1971.0	1963.0	1963.0	1963.0	1965.0	1965.0	1963.0	1963.0	1963.0	1963.0	1963.0	1959.0	1959.0	1959.0	1951.0	1951.0	1991.0	1991.0	1991.0	2002.0	2002.0	1967.0	1967.0	1967.0	1965.0	1965.0	1999.0	1999.0	1999.0	1980.0	1980.0	1967.0	1967.0	1967.0	1985.0	1985.0	1968.0	1968.0	1968.0	1962.0	1962.0	1942.0	1942.0	1942.0	1950.0	1950.0	1975.0	1975.0	1975.0	1968.0	1968.0	1949.0	1949.0	1949.0	1963.0	1963.0	1969.0	1969.0	1969.0	1966.0	1966.0	1934.0	1934.0	1934.0	1952.0	1952.0	1966.0	1966.0	1966.0	1951.0	1951.0	1972.0	1972.0	1972.0	1943.0	1943.0	1937.0	1937.0	1937.0	1968.0	1968.0	1935.0	1935.0	1935.0	1960.0	1960.0	1949.0	1949.0	1949.0	1951.0	1951.0	1961.0	1961.0	1961.0	1954.0	1954.0	1939.0	1939.0	1939.0	1921.0	1921.0	1922.0	1922.0	1922.0	1908.0	1908.0	1918.0	1918.0	1918.0	1915.0	1915.0	1946.0	1946.0	1946.0	1923.0	1923.0	1911.0	1911.0	1911.0	1906.0	1906.0	1924.0	1924.0	1924.0	1936.0	1936.0	1914.0	1914.0	1914.0	1916.0	1916.0	1926.0	1926.0	1926.0	1922.0	1922.0	1918.0	1918.0	1918.0	1920.0	1920.0	1921.0	1921.0	1921.0	1927.0	1927.0	1915.0	1915.0	1915.0	1940.0	1940.0	1906.0	1906.0	1906.0	1900.0	1900.0	1915.0	1915.0	1915.0	1936.0	1936.0	1900.0	1900.0	1900.0	1913.0	1913.0	1922.0	1922.0	1922.0	1905.0	1905.0	1903.0	1903.0	1922.0	1922.0	1922.0	1934.0	1934.0	1904.0	1904.0	1904.0	1904.0	1904.0	1917.0	1917.0	1917.0	1893.0	1893.0	1928.0	1928.0	1928.0	1910.0	1910.0	1884.0	1884.0	1884.0	1911.0	1911.0	1893.0	1893.0	1893.0	1927.0	1927.0	1901.0	1901.0	1901.0	1907.0	1907.0	1902.0	1902.0	1902.0	1897.0	1897.0	1901.0	1901.0	1901.0	1887.0	1887.0	1884.0	1884.0	1884.0	1911.0	1911.0	1896.0	1896.0	1896.0	1886.0	1886.0	1889.0	1889.0	1889.0	1911.0	1911.0	1892.0	1892.0	1892.0	1915.0	1915.0	1913.0	1913.0	1913.0	1916.0	1916.0	1901.0	1901.0	1901.0	1927.0	1927.0	1911.0	1911.0	1911.0	1895.0	1895.0	1934.0	1934.0	1934.0	1899.0	1899.0	1927.0	1927.0	1927.0	1912.0	1912.0	1889.0	1889.0	1889.0	1908.0	1908.0	1883.0	1883.0	1883.0	1920.0	1920.0	1901.0	1901.0	1901.0	1911.0	1911.0	1907.0	1907.0	1907.0	1895.0	1895.0	1902.0	1902.0	1902.0	1927.0	1927.0	1905.0	1905.0	1905.0	1942.0	1942.0	1907.0	1907.0	1907.0	1929.0	1929.0	1890.0	1890.0	1890.0	1905.0	1905.0	1917.0	1917.0	1917.0	1893.0	1893.0	1899.0	1899.0	1899.0	1903.0	1903.0	1929.0	1929.0	1929.0	1915.0	1915.0	1912.0	1912.0	1912.0	1923.0	1923.0	1935.0	1935.0	1935.0	1900.0	1900.0	1923.0	1923.0	1923.0	1932.0	1932.0	1904.0	1904.0	1904.0	1908.0	1908.0	1925.0	1925.0	1925.0	1913.0	1913.0	1931.0	1931.0	1931.0	1904.0	1904.0	1951.0	1951.0	1951.0	1912.0	1912.0	1920.0	1920.0	1920.0	1951.0	1951.0	1904.0	1904.0	1904.0	1906.0	1906.0	1916.0	1916.0	1916.0	1947.0	1947.0	1910.0	1910.0	1910.0	1926.0	1926.0	1940.0	1940.0	1920.0	1920.0	1920.0	1932.0	1932.0	1936.0	1936.0	