2504.0	2504.0	2484.0	2484.0	2484.0	2459.0	2459.0	2450.0	2450.0	2450.0	2430.0	2430.0	2437.0	2437.0	2437.0	2424.0	2424.0	2438.0	2438.0	2438.0	2415.0	2415.0	2400.0	2400.0	2400.0	2396.0	2396.0	2409.0	2409.0	2409.0	2412.0	2412.0	2406.0	2406.0	2377.0	2377.0	2377.0	2345.0	2345.0	2376.0	2376.0	2376.0	2365.0	2365.0	2352.0	2352.0	2352.0	2311.0	2311.0	2326.0	2326.0	2326.0	2320.0	2320.0	2273.0	2273.0	2273.0	2296.0	2296.0	2293.0	2293.0	2293.0	2285.0	2285.0	2267.0	2267.0	2267.0	2237.0	2237.0	2248.0	2248.0	2248.0	2208.0	2208.0	2189.0	2189.0	2189.0	2182.0	2182.0	2185.0	2185.0	2185.0	2195.0	2195.0	2187.0	2187.0	2187.0	2184.0	2184.0	2136.0	2136.0	2136.0	2140.0	2140.0	2146.0	2146.0	2146.0	2147.0	2147.0	2100.0	2100.0	2100.0	2121.0	2121.0	2141.0	2141.0	2141.0	2103.0	2103.0	2100.0	2100.0	2100.0	2094.0	2094.0	2058.0	2058.0	2058.0	2075.0	2075.0	2055.0	2055.0	2055.0	2091.0	2091.0	2050.0	2050.0	2050.0	2026.0	2026.0	2067.0	2067.0	2067.0	2043.0	2043.0	2012.0	2012.0	2012.0	2037.0	2037.0	2047.0	2047.0	2047.0	2010.0	2010.0	2025.0	2025.0	2025.0	2043.0	2043.0	2031.0	2031.0	2031.0	2000.0	2000.0	1982.0	1982.0	1982.0	1979.0	1979.0	2022.0	2022.0	2022.0	2015.0	2015.0	1978.0	1978.0	1978.0	1976.0	1976.0	1961.0	1961.0	1961.0	1944.0	1944.0	1973.0	1973.0	1973.0	1962.0	1962.0	1971.0	1971.0	1971.0	1944.0	1944.0	1955.0	1955.0	1955.0	1967.0	1967.0	1932.0	1932.0	1932.0	1935.0	1935.0	1962.0	1962.0	1962.0	1959.0	1959.0	1904.0	1904.0	1904.0	1947.0	1947.0	1906.0	1906.0	1906.0	1928.0	1928.0	1916.0	1916.0	1916.0	1896.0	1896.0	1883.0	1883.0	1883.0	1908.0	1908.0	1901.0	1901.0	1901.0	1922.0	1922.0	1883.0	1883.0	1883.0	1888.0	1888.0	1859.0	1859.0	1859.0	1850.0	1850.0	1870.0	1870.0	1894.0	1894.0	1894.0	1874.0	1874.0	1852.0	1852.0	1852.0	1877.0	1877.0	1864.0	1864.0	1864.0	1856.0	1856.0	1850.0	1850.0	1850.0	1863.0	1863.0	1849.0	1849.0	1849.0	1859.0	1859.0	1852.0	1852.0	1852.0	1823.0	1823.0	1832.0	1832.0	1832.0	1808.0	1808.0	1848.0	1848.0	1848.0	1831.0	1831.0	1804.0	1804.0	1804.0	1805.0	1805.0	1798.0	1798.0	1798.0	1806.0	1806.0	1775.0	1775.0	1775.0	1798.0	1798.0	1779.0	1779.0	1779.0	1816.0	1816.0	1787.0	1787.0	1787.0	1789.0	1789.0	1764.0	1764.0	1764.0	1798.0	1798.0	1800.0	1800.0	1800.0	1793.0	1793.0	1792.0	1792.0	1792.0	1776.0	1776.0	1770.0	1770.0	1770.0	1756.0	1756.0	1748.0	1748.0	1748.0	1739.0	1739.0	1730.0	1730.0	1730.0	1774.0	1774.0	1740.0	1740.0	1740.0	1755.0	1755.0	1727.0	1727.0	1727.0	1770.0	1770.0	1762.0	1762.0	1762.0	1778.0	1778.0	1765.0	1765.0	1765.0	1767.0	1767.0	1718.0	1718.0	1718.0	1738.0	1738.0	1743.0	1743.0	1743.0	1766.0	1766.0	1751.0	1751.0	1751.0	1743.0	1743.0	1726.0	1726.0	1726.0	1748.0	1748.0	1760.0	1760.0	1760.0	1749.0	1749.0	1703.0	1703.0	1703.0	1709.0	1709.0	1693.0	1693.0	1693.0	1743.0	1743.0	1723.0	1723.0	1723.0	1689.0	1689.0	1690.0	1690.0	1690.0	1725.0	1725.0	1683.0	1683.0	1683.0	1696.0	1696.0	1722.0	1722.0	1722.0	1683.0	1683.0	1690.0	1690.0	1690.0	1702.0	1702.0	1692.0	1692.0	1692.0	1683.0	1683.0	1719.0	1719.0	1719.0	1688.0	1688.0	1701.0	1701.0	1701.0	1721.0	1721.0	1683.0	1683.0	1683.0	1685.0	1685.0	1706.0	1706.0	1706.0	1662.0	1662.0	1662.0	1662.0	1701.0	1701.0	1701.0	1681.0	1681.0	1657.0	1657.0	1657.0	1701.0	1701.0	1708.0	1708.0	1708.0	1689.0	1689.0	1697.0	1697.0	1697.0	1647.0	1647.0	1686.0	1686.0	1686.0	1644.0	1644.0	1640.0	1640.0	1640.0	1647.0	1647.0	1684.0	1684.0	1684.0	1637.0	1637.0	1640.0	1640.0	1640.0	1654.0	1654.0	1670.0	1670.0	1670.0	1682.0	1682.0	1682.0	1682.0	1682.0	1644.0	1644.0	1634.0	1634.0	1634.0	1665.0	1665.0	1631.0	1631.0	1631.0	1632.0	1632.0	1641.0	1641.0	1641.0	1656.0	1656.0	1641.0	1641.0	1641.0	1696.0	1696.0	1684.0	1684.0	1684.0	1681.0	1681.0	1697.0	1697.0	1697.0	1685.0	1685.0	1684.0	1684.0	1684.0	1729.0	1729.0	1722.0	1722.0	1722.0	1740.0	1740.0	1761.0	1761.0	1761.0	1752.0	1752.0	1796.0	1796.0	1796.0	1833.0	1833.0	1862.0	1862.0	1862.0	1844.0	1844.0	1883.0	1883.0	1883.0	1888.0	1888.0	1932.0	1932.0	1932.0	1936.0	1936.0	2015.0	2015.0	2015.0	2043.0	2043.0	2049.0	2049.0	2049.0	2064.0	2064.0	2070.0	2070.0	2070.0	2126.0	2126.0	2127.0	2127.0	2127.0	2145.0	2145.0	2198.0	2198.0	2198.0	2197.0	2197.0	2204.0	2204.0	2204.0	2225.0	2225.0	2255.0	2255.0	2255.0	2291.0	2291.0	2285.0	2285.0	2285.0	2317.0	2317.0	2335.0	2335.0	2335.0	2324.0	2324.0	2336.0	2336.0	2336.0	2378.0	2378.0	2406.0	2406.0	2406.0	2412.0	2412.0	2382.0	2382.0	2382.0	2443.0	2443.0	2460.0	2460.0	2460.0	2477.0	2477.0	2443.0	2443.0	2443.0	2457.0	2457.0	2496.0	2496.0	2496.0	2493.0	2493.0	2476.0	2476.0	2476.0	2490.0	2490.0	2516.0	2516.0	2516.0	2473.0	2473.0	2523.0	2523.0	2523.0	2500.0	2500.0	2527.0	2527.0	2524.0	2524.0	2524.0	2518.0	2518.0	2529.0	2529.0	2529.0	2500.0	2500.0	2506.0	2506.0	2506.0	2511.0	2511.0	2518.0	2518.0	2518.0	2535.0	2535.0	2542.0	2542.0	2542.0	2523.0	2523.0	2520.0	2520.0	2520.0	2560.0	2560.0	2567.0	2567.0	2567.0	2530.0	2530.0	2542.0	2542.0	2542.0	2544.0	2544.0	2547.0	2547.0	2547.0	2513.0	2513.0	2535.0	2535.0	2535.0	2547.0	2547.0	2535.0	2535.0	2535.0	2526.0	2526.0	2519.0	2519.0	2519.0	2532.0	2532.0	2499.0	2499.0	2499.0	2516.0	2516.0	2522.0	2522.0	2522.0	2511.0	2511.0	2503.0	2503.0	2503.0	2513.0	2513.0	2486.0	2486.0	2486.0	2478.0	2478.0	2487.0	2487.0	2487.0	2473.0	2473.0	2445.0	2445.0	2445.0	2453.0	2453.0	2451.0	2451.0	2451.0	2475.0	2475.0	2419.0	2419.0	2419.0	2447.0	2447.0	2419.0	2419.0	2419.0	2398.0	2398.0	2421.0	2421.0	2421.0	2422.0	2422.0	2397.0	2397.0	2397.0	2361.0	2361.0	2396.0	2396.0	2396.0	2341.0	2341.0	2350.0	2350.0	2350.0	2357.0	2357.0	2326.0	2326.0	2326.0	2312.0	2312.0	2274.0	2274.0	2274.0	2304.0	2304.0	2267.0	2267.0	2267.0	2288.0	2288.0	2243.0	2243.0	2243.0	2258.0	2258.0	2229.0	2229.0	2229.0	2202.0	2202.0	2204.0	2204.0	2204.0	2230.0	2230.0	2214.0	2214.0	2214.0	2186.0	2186.0	2194.0	2194.0	2194.0	2194.0	2194.0	2178.0	2178.0	2178.0	2175.0	2175.0	2116.0	2116.0	2116.0	2124.0	2124.0	2114.0	2114.0	2114.0	2103.0	2103.0	2136.0	2136.0	2136.0	2105.0	2105.0	2090.0	2090.0	2090.0	2074.0	2074.0	2077.0	2077.0	2077.0	2081.0	2081.0	2060.0	2060.0	2060.0	2102.0	2102.0	2072.0	2072.0	2093.0	2093.0	2093.0	2042.0	2042.0	2033.0	2033.0	2033.0	2071.0	2071.0	2025.0	2025.0	2025.0	2027.0	2027.0	2043.0	2043.0	2043.0	2058.0	2058.0	2032.0	2032.0	2032.0	2041.0	2041.0	2007.0	2007.0	2007.0	2008.0	2008.0	2041.0	2041.0	2041.0	1987.0	1987.0	2004.0	2004.0	2004.0	2027.0	2027.0	1981.0	1981.0	1981.0	1990.0	1990.0	1971.0	1971.0	1971.0	2015.0	2015.0	1965.0	1965.0	1965.0	1996.0	1996.0	1957.0	1957.0	1957.0	1975.0	1975.0	1994.0	1994.0	1994.0	1934.0	1934.0	1941.0	1941.0	1941.0	1943.0	1943.0	1973.0	1973.0	1973.0	1945.0	1945.0	1911.0	1911.0	1911.0	1957.0	1957.0	1945.0	1945.0	1945.0	1896.0	1896.0	1906.0	1906.0	1906.0	1919.0	1919.0	1933.0	1933.0	1933.0	1935.0	1935.0	1889.0	1889.0	1889.0	1877.0	1877.0	1920.0	1920.0	1920.0	1925.0	1925.0	1912.0	1912.0	1912.0	1896.0	1896.0	1910.0	1910.0	1910.0	1898.0	1898.0	1854.0	1854.0	1854.0	1886.0	1886.0	1850.0	1850.0	1850.0	1852.0	1852.0	1873.0	1873.0	1873.0	1888.0	1888.0	1844.0	1844.0	1844.0	1875.0	1875.0	1875.0	1875.0	1875.0	1835.0	1835.0	1829.0	1829.0	1829.0	1854.0	1854.0	1821.0	1821.0	1821.0	1824.0	1824.0	1819.0	1819.0	1819.0	1818.0	1818.0	1806.0	1806.0	1806.0	1798.0	1798.0	1833.0	1833.0	1833.0	1807.0	1807.0	1807.0	1807.0	1807.0	1823.0	1823.0	1803.0	1803.0	1803.0	1819.0	1819.0	1812.0	1812.0	1812.0	1815.0	1815.0	1779.0	1779.0	1779.0	1790.0	1790.0	1803.0	1803.0	1803.0	1796.0	1796.0	1808.0	1808.0	1808.0	1790.0	1790.0	1794.0	1794.0	1794.0	1783.0	1783.0	1752.0	1752.0	1752.0	1743.0	1743.0	1773.0	1773.0	1754.0	1754.0	1754.0	1786.0	1786.0	1759.0	1759.0	1759.0	1794.0	1794.0	1724.0	1724.0	1724.0	1766.0	1766.0	1767.0	1767.0	1767.0	1730.0	1730.0	1755.0	1755.0	1755.0	1722.0	1722.0	1763.0	1763.0	1763.0	1730.0	1730.0	1765.0	1765.0	1765.0	1770.0	1770.0	1760.0	1760.0	1760.0	1753.0	1753.0	1713.0	1713.0	1713.0	1762.0	1762.0	1723.0	1723.0	1723.0	1736.0	1736.0	1731.0	1731.0	1731.0	1747.0	1747.0	1709.0	1709.0	1709.0	1706.0	1706.0	1752.0	1752.0	1752.0	1724.0	1724.0	1720.0	1720.0	1720.0	1729.0	1729.0	1738.0	1738.0	1738.0	1731.0	1731.0	1741.0	1741.0	1741.0	1727.0	1727.0	1706.0	1706.0	1706.0	1744.0	1744.0	1708.0	1708.0	1708.0	1724.0	1724.0	1694.0	1694.0	1694.0	1687.0	1687.0	1740.0	1740.0	1740.0	1682.0	1682.0	1688.0	1688.0	1688.0	1679.0	1679.0	1673.0	1673.0	1673.0	1710.0	1710.0	1697.0	1697.0	1697.0	1707.0	1707.0	1697.0	1697.0	1697.0	1717.0	1717.0	1673.0	1673.0	1673.0	1679.0	1679.0	1673.0	1673.0	1673.0	1699.0	1699.0	1718.0	1718.0	1718.0	1676.0	1676.0	1716.0	1716.0	1716.0	1656.0	1656.0	1696.0	1696.0	1696.0	1652.0	1652.0	1647.0	1647.0	1647.0	1659.0	1659.0	1653.0	1653.0	1653.0	1682.0	1682.0	1707.0	1707.0	1707.0	1674.0	1674.0	1663.0	1663.0	1663.0	1700.0	1700.0	1691.0	1691.0	1691.0	1677.0	1677.0	1667.0	1667.0	1667.0	1673.0	1673.0	1679.0	1679.0	1679.0	1654.0	1654.0	1691.0	1691.0	1691.0	1661.0	1661.0	1703.0	1703.0	1703.0	1716.0	1716.0	1705.0	1705.0	1705.0	1693.0	1693.0	1723.0	1723.0	1723.0	1747.0	1747.0	1723.0	1723.0	1742.0	1742.0	1742.0	1769.0	1769.0	1820.0	1820.0	1820.0	1792.0	1792.0	1819.0	1819.0	1819.0	1832.0	1832.0	1859.0	1859.0	1859.0	1924.0	1924.0	1914.0	1914.0	1914.0	1979.0	1979.0	2018.0	2018.0	2018.0	2035.0	2035.0	2021.0	2021.0	2021.0	2071.0	2071.0	2082.0	2082.0	2082.0	2131.0	2131.0	2145.0	2145.0	2145.0	2177.0	2177.0	2157.0	2157.0	2157.0	2223.0	2223.0	2236.0	2236.0	2236.0	2271.0	2271.0	2307.0	2307.0	2307.0	2287.0	2287.0	2303.0	2303.0	2303.0	2311.0	2311.0	2337.0	2337.0	2337.0	2369.0	2369.0	2375.0	2375.0	2375.0	2408.0	2408.0	2420.0	2420.0	2420.0	2430.0	2430.0	2445.0	2445.0	2445.0	2456.0	2456.0	2427.0	2427.0	2427.0	2483.0	2483.0	2508.0	2508.0	2508.0	2462.0	2462.0	2502.0	2502.0	2502.0	2481.0	2481.0	2512.0	2512.0	2512.0	2502.0	2502.0	2536.0	2536.0	2536.0	2535.0	2535.0	2552.0	2552.0	2552.0	2523.0	2523.0	2558.0	2558.0	2558.0	2556.0	2556.0	2559.0	2559.0	2559.0	2567.0	2567.0	2563.0	2563.0	2563.0	2567.0	2567.0	2548.0	2548.0	2548.0	2575.0	2575.0	2583.0	2583.0	2583.0	2601.0	2601.0	2561.0	2561.0	2561.0	2567.0	2567.0	2573.0	2573.0	2573.0	2588.0	2588.0	2580.0	2580.0	2580.0	2549.0	2549.0	2554.0	2554.0	2554.0	2555.0	2555.0	2608.0	2608.0	2608.0	2574.0	2574.0	2580.0	2580.0	2580.0	2586.0	2586.0	2548.0	2548.0	2548.0	2589.0	2589.0	2590.0	2590.0	2590.0	2562.0	2562.0	2571.0	2571.0	2571.0	2526.0	2526.0	2577.0	2577.0	2577.0	2556.0	2556.0	2550.0	2550.0	2550.0	2559.0	2559.0	2544.0	2544.0	2544.0	2506.0	2506.0	2521.0	2521.0	2534.0	2534.0	2534.0	2501.0	2501.0	2484.0	2484.0	2484.0	2511.0	2511.0	2495.0	2495.0	2495.0	2479.0	2479.0	2469.0	2469.0	2469.0	2450.0	2450.0	2455.0	2455.0	2455.0	2476.0	2476.0	2438.0	2438.0	2438.0	2433.0	2433.0	2450.0	2450.0	2450.0	2438.0	2438.0	2438.0	2438.0	2438.0	2406.0	2406.0	2422.0	2422.0	2422.0	2368.0	2368.0	2368.0	2368.0	2368.0	2331.0	2331.0	2363.0	2363.0	2363.0	2339.0	2339.0	2343.0	2343.0	2343.0	2301.0	2301.0	2281.0	2281.0	2281.0	2300.0	2300.0	2253.0	2253.0	2253.0	2236.0	2236.0	2258.0	2258.0	2258.0	2213.0	2213.0	2206.0	2206.0	2206.0	2228.0	2228.0	2224.0	2224.0	2224.0	2178.0	2178.0	2202.0	2202.0	2202.0	2144.0	2144.0	2159.0	2159.0	2159.0	2183.0	2183.0	2170.0	2170.0	2170.0	2157.0	2157.0	2114.0	2114.0	2114.0	2098.0	2098.0	2099.0	2099.0	2099.0	2089.0	2089.0	2119.0	2119.0	2119.0	2099.0	2099.0	2120.0	2120.0	2120.0	2107.0	2107.0	2097.0	2097.0	2097.0	2048.0	2048.0	2048.0	2048.0	2048.0	2055.0	2055.0	2039.0	2039.0	2039.0	2042.0	2042.0	2026.0	2026.0	2026.0	2033.0	2033.0	2019.0	2019.0	2019.0	2045.0	2045.0	2020.0	2020.0	2020.0	2003.0	2003.0	2010.0	2010.0	2010.0	2022.0	2022.0	2036.0	2036.0	2036.0	2034.0	2034.0	2028.0	2028.0	2028.0	2007.0	2007.0	2001.0	2001.0	2001.0	1979.0	1979.0	1971.0	1971.0	1971.0	2015.0	2015.0	2006.0	2006.0	2006.0	1977.0	1977.0	1995.0	1995.0	1995.0	1989.0	1989.0	1956.0	1956.0	1956.0	1992.0	1992.0	1980.0	1980.0	1980.0	1963.0	1963.0	1950.0	1950.0	1950.0	1940.0	1940.0	1963.0	1963.0	1963.0	1938.0	1938.0	1964.0	1964.0	1933.0	1933.0	1933.0	1950.0	1950.0	1916.0	1916.0	1916.0	1937.0	1937.0	1945.0	1945.0	1945.0	1896.0	1896.0	1951.0	1951.0	1951.0	1901.0	1901.0	1892.0	1892.0	1892.0	1892.0	1892.0	1933.0	1933.0	1933.0	1914.0	1914.0	1926.0	1926.0	1926.0	1890.0	1890.0	1894.0	1894.0	1894.0	1915.0	1915.0	1894.0	1894.0	1894.0	1894.0	1894.0	1895.0	1895.0	1895.0	1892.0	1892.0	1884.0	1884.0	1884.0	1870.0	1870.0	1881.0	1881.0	1881.0	1833.0	1833.0	1884.0	1884.0	1884.0	1845.0	1845.0	1858.0	1858.0	1858.0	1867.0	1867.0	1816.0	1816.0	1816.0	1801.0	1801.0	1841.0	1841.0	1841.0	1800.0	1800.0	1843.0	1843.0	1843.0	1784.0	1784.0	1799.0	1799.0	1799.0	1840.0	1840.0	1805.0	1805.0	1805.0	1811.0	1811.0	1779.0	1779.0	1779.0	1777.0	1777.0	1795.0	1795.0	1795.0	1775.0	1775.0	1807.0	1807.0	1807.0	1811.0	1811.0	1815.0	1815.0	1815.0	1812.0	1812.0	1765.0	1765.0	1765.0	1766.0	1766.0	1807.0	1807.0	1807.0	1765.0	1765.0	1780.0	1780.0	1780.0	1731.0	1731.0	1753.0	1753.0	1753.0	1738.0	1738.0	1739.0	1739.0	1739.0	1763.0	1763.0	1776.0	1776.0	1776.0	1768.0	1768.0	1745.0	1745.0	1745.0	1746.0	1746.0	1728.0	1728.0	1728.0	1743.0	1743.0	1732.0	1732.0	1732.0	1731.0	1731.0	1703.0	1703.0	1703.0	1728.0	1728.0	1757.0	1757.0	1757.0	1756.0	1756.0	1750.0	1750.0	1750.0	1734.0	1734.0	1744.0	1744.0	1744.0	1743.0	1743.0	1711.0	1711.0	1711.0	1747.0	1747.0	1733.0	1733.0	1733.0	1683.0	1683.0	1727.0	1727.0	1727.0	1690.0	1690.0	1684.0	1684.0	1684.0	1727.0	1727.0	1693.0	1693.0	1720.0	1720.0	1720.0	1670.0	1670.0	1680.0	1680.0	1680.0	1701.0	1701.0	1707.0	1707.0	1707.0	1704.0	1704.0	1720.0	1720.0	1720.0	1705.0	1705.0	1699.0	1699.0	1699.0	1720.0	1720.0	1711.0	1711.0	1711.0	1701.0	1701.0	1688.0	1688.0	1688.0	1678.0	1678.0	1703.0	1703.0	1703.0	1698.0	1698.0	1688.0	1688.0	1688.0	1660.0	1660.0	1702.0	1702.0	1702.0	1650.0	1650.0	1660.0	1660.0	1660.0	1709.0	1709.0	1660.0	1660.0	1660.0	1680.0	1680.0	1703.0	1703.0	1703.0	1696.0	1696.0	1653.0	1653.0	1653.0	1647.0	1647.0	1665.0	1665.0	1665.0	1644.0	1644.0	1643.0	1643.0	1643.0	1636.0	1636.0	1648.0	1648.0	1648.0	1646.0	1646.0	1650.0	1650.0	1650.0	1675.0	1675.0	1670.0	1670.0	1670.0	1663.0	1663.0	1693.0	1693.0	1693.0	1642.0	1642.0	1639.0	1639.0	1639.0	1647.0	1647.0	1647.0	1647.0	1647.0	1642.0	1642.0	1672.0	1672.0	1672.0	1680.0	1680.0	1672.0	1672.0	1672.0	1707.0	1707.0	1693.0	1693.0	1693.0	1669.0	1669.0	1678.0	1678.0	1678.0	1688.0	1688.0	1711.0	1711.0	1711.0	1745.0	1745.0	1758.0	1758.0	1758.0	1818.0	1818.0	1815.0	1815.0	1815.0	1810.0	1810.0	1840.0	1840.0	1840.0	1879.0	1879.0	1916.0	1916.0	1916.0	1953.0	1953.0	1969.0	1969.0	1969.0	1976.0	1976.0	1999.0	1999.0	1999.0	2020.0	2020.0	2068.0	2068.0	2068.0	2058.0	2058.0	2086.0	2086.0	2086.0	2120.0	2120.0	2158.0	2158.0	2158.0	2160.0	2160.0	2193.0	2193.0	2193.0	2183.0	2183.0	2240.0	2240.0	2240.0	2259.0	2259.0	2278.0	2278.0	2278.0	2264.0	2264.0	2309.0	2309.0	2309.0	2325.0	2325.0	2342.0	2342.0	2379.0	2379.0	2379.0	2343.0	2343.0	2389.0	2389.0	2389.0	2411.0	2411.0	2427.0	2427.0	2427.0	2406.0	2406.0	2443.0	2443.0	2443.0	2444.0	2444.0	2464.0	2464.0	2464.0	2439.0	2439.0	2485.0	2485.0	2485.0	2485.0	2485.0	2448.0	