1709.0	1709.0	1709.0	1647.0	1647.0	1644.0	1644.0	1644.0	1621.0	1621.0	1627.0	1627.0	1627.0	1582.0	1582.0	1552.0	1552.0	1552.0	1559.0	1559.0	1555.0	1555.0	1555.0	1569.0	1569.0	1543.0	1543.0	1543.0	1542.0	1542.0	1562.0	1562.0	1562.0	1543.0	1543.0	1545.0	1545.0	1545.0	1576.0	1576.0	1558.0	1558.0	1558.0	1560.0	1560.0	1537.0	1537.0	1537.0	1551.0	1551.0	1559.0	1559.0	1559.0	1574.0	1574.0	1561.0	1561.0	1561.0	1575.0	1575.0	1592.0	1592.0	1592.0	1563.0	1563.0	1567.0	1567.0	1567.0	1581.0	1581.0	1574.0	1574.0	1574.0	1584.0	1584.0	1578.0	1578.0	1578.0	1593.0	1593.0	1583.0	1583.0	1583.0	1568.0	1568.0	1563.0	1563.0	1563.0	1579.0	1579.0	1575.0	1575.0	1575.0	1595.0	1595.0	1589.0	1589.0	1589.0	1593.0	1593.0	1588.0	1588.0	1588.0	1592.0	1592.0	1585.0	1585.0	1585.0	1603.0	1603.0	1618.0	1618.0	1618.0	1611.0	1611.0	1606.0	1606.0	1606.0	1609.0	1609.0	1593.0	1593.0	1592.0	1592.0	1592.0	1604.0	1604.0	1630.0	1630.0	1630.0	1588.0	1588.0	1612.0	1612.0	1612.0	1621.0	1621.0	1599.0	1599.0	1599.0	1620.0	1620.0	1609.0	1609.0	1609.0	1617.0	1617.0	1591.0	1591.0	1591.0	1615.0	1615.0	1599.0	1599.0	1599.0	1612.0	1612.0	1631.0	1631.0	1631.0	1616.0	1616.0	1613.0	1613.0	1613.0	1607.0	1607.0	1631.0	1631.0	1631.0	1634.0	1634.0	1643.0	1643.0	1643.0	1630.0	1630.0	1642.0	1642.0	1642.0	1655.0	1655.0	1649.0	1649.0	1649.0	1643.0	1643.0	1655.0	1655.0	1655.0	1645.0	1645.0	1636.0	1636.0	1636.0	1628.0	1628.0	1655.0	1655.0	1655.0	1653.0	1653.0	1635.0	1635.0	1635.0	1657.0	1657.0	1665.0	1665.0	1665.0	1648.0	1648.0	1657.0	1657.0	1657.0	1668.0	1668.0	1665.0	1665.0	1665.0	1675.0	1675.0	1680.0	1680.0	1680.0	1650.0	1650.0	1677.0	1677.0	1677.0	1659.0	1659.0	1653.0	1653.0	1653.0	1662.0	1662.0	1668.0	1668.0	1668.0	1679.0	1679.0	1697.0	1697.0	1697.0	1671.0	1671.0	1679.0	1679.0	1679.0	1666.0	1666.0	1681.0	1681.0	1681.0	1687.0	1687.0	1672.0	1672.0	1672.0	1691.0	1691.0	1696.0	1696.0	1696.0	1684.0	1684.0	1671.0	1671.0	1671.0	1671.0	1671.0	1700.0	1700.0	1700.0	1710.0	1710.0	1693.0	1693.0	1693.0	1687.0	1687.0	1712.0	1712.0	1712.0	1689.0	1689.0	1702.0	1702.0	1702.0	1690.0	1690.0	1699.0	1699.0	1699.0	1706.0	1706.0	1707.0	1707.0	1707.0	1694.0	1694.0	1712.0	1712.0	1712.0	1710.0	1710.0	1704.0	1704.0	1704.0	1711.0	1711.0	1689.0	1689.0	1689.0	1711.0	1711.0	1718.0	1718.0	1718.0	1731.0	1731.0	1700.0	1700.0	1685.0	1685.0	1685.0	1719.0	1719.0	1727.0	1727.0	1727.0	1696.0	1696.0	1699.0	1699.0	1699.0	1729.0	1729.0	1712.0	1712.0	1712.0	1713.0	1713.0	1734.0	1734.0	1734.0	1711.0	1711.0	1729.0	1729.0	1729.0	1707.0	1707.0	1725.0	1725.0	1725.0	1722.0	1722.0	1748.0	1748.0	1748.0	1721.0	1721.0	1723.0	1723.0	1723.0	1754.0	1754.0	1749.0	1749.0	1749.0	1748.0	1748.0	1781.0	1781.0	1781.0	1780.0	1780.0	1787.0	1787.0	1787.0	1790.0	1790.0	1807.0	1807.0	1807.0	1822.0	1822.0	1827.0	1827.0	1827.0	1820.0	1820.0	1853.0	1853.0	1853.0	1844.0	1844.0	1866.0	1866.0	1866.0	1914.0	1914.0	1921.0	1921.0	1921.0	1923.0	1923.0	1942.0	1942.0	1942.0	1942.0	1942.0	1955.0	1955.0	1955.0	1988.0	1988.0	1981.0	1981.0	1981.0	2009.0	2009.0	2019.0	2019.0	2019.0	2028.0	2028.0	2037.0	2037.0	2037.0	2059.0	2059.0	2085.0	2085.0	2085.0	2068.0	2068.0	2079.0	2079.0	2079.0	2121.0	2121.0	2103.0	2103.0	2103.0	2114.0	2114.0	2123.0	2123.0	2123.0	2146.0	2146.0	2140.0	2140.0	2140.0	2159.0	2159.0	2147.0	2147.0	2147.0	2177.0	2177.0	2174.0	2174.0	2174.0	2185.0	2185.0	2206.0	2206.0	2206.0	2187.0	2187.0	2204.0	2204.0	2204.0	2206.0	2206.0	2205.0	2205.0	2205.0	2235.0	2235.0	2221.0	2221.0	2221.0	2247.0	2247.0	2231.0	2231.0	2231.0	2236.0	2236.0	2245.0	2245.0	2245.0	2249.0	2249.0	2252.0	2252.0	2252.0	2249.0	2249.0	2243.0	2243.0	2243.0	2252.0	2252.0	2245.0	2245.0	2245.0	2264.0	2264.0	2260.0	2260.0	2260.0	2242.0	2242.0	2248.0	2248.0	2248.0	2251.0	2251.0	2258.0	2258.0	2273.0	2273.0	2273.0	2258.0	2258.0	2261.0	2261.0	2261.0	2274.0	2274.0	2287.0	2287.0	2287.0	2275.0	2275.0	2256.0	2256.0	2256.0	2274.0	2274.0	2255.0	2255.0	2255.0	2269.0	2269.0	2268.0	2268.0	2268.0	2263.0	2263.0	2271.0	2271.0	2271.0	2278.0	2278.0	2266.0	2266.0	2266.0	2256.0	2256.0	2281.0	2281.0	2281.0	2271.0	2271.0	2270.0	2270.0	2270.0	2251.0	2251.0	2248.0	2248.0	2248.0	2249.0	2249.0	2254.0	2254.0	2254.0	2247.0	2247.0	2266.0	2266.0	2266.0	2244.0	2244.0	2245.0	2245.0	2245.0	2263.0	2263.0	2225.0	2225.0	2225.0	2241.0	2241.0	2225.0	2225.0	2225.0	2230.0	2230.0	2207.0	2207.0	2207.0	2221.0	2221.0	2213.0	2213.0	2213.0	2197.0	2197.0	2218.0	2218.0	2218.0	2191.0	2191.0	2185.0	2185.0	2185.0	2187.0	2187.0	2159.0	2159.0	2159.0	2188.0	2188.0	2189.0	2189.0	2189.0	2160.0	2160.0	2153.0	2153.0	2153.0	2144.0	2144.0	2159.0	2159.0	2159.0	2145.0	2145.0	2142.0	2142.0	2142.0	2139.0	2139.0	2132.0	2132.0	2132.0	2121.0	2121.0	2099.0	2099.0	2099.0	2121.0	2121.0	2102.0	2102.0	2102.0	2097.0	2097.0	2087.0	2087.0	2087.0	2091.0	2091.0	2075.0	2075.0	2075.0	2095.0	2095.0	2075.0	2075.0	2075.0	2069.0	2069.0	2068.0	2068.0	2068.0	2055.0	2055.0	2078.0	2078.0	2078.0	2060.0	2060.0	2066.0	2066.0	2066.0	2066.0	2066.0	2058.0	2058.0	2058.0	2047.0	2047.0	2067.0	2067.0	2067.0	2038.0	2038.0	2043.0	2043.0	2043.0	2033.0	2033.0	2037.0	2037.0	2037.0	2040.0	2040.0	2051.0	2051.0	2051.0	2023.0	2023.0	2015.0	2015.0	2015.0	2023.0	2023.0	2025.0	2025.0	2025.0	2040.0	2040.0	2018.0	2018.0	1993.0	1993.0	1993.0	2001.0	2001.0	2005.0	2005.0	2005.0	2001.0	2001.0	1972.0	1972.0	1972.0	1999.0	1999.0	1991.0	1991.0	1991.0	1975.0	1975.0	1999.0	1999.0	1999.0	1979.0	1979.0	1995.0	1995.0	1995.0	1979.0	1979.0	1983.0	1983.0	1983.0	1979.0	1979.0	1972.0	1972.0	1972.0	1965.0	1965.0	1970.0	1970.0	1970.0	1966.0	1966.0	1961.0	1961.0	1961.0	1954.0	1954.0	1982.0	1982.0	1982.0	1967.0	1967.0	1967.0	1967.0	1967.0	1936.0	1936.0	1950.0	1950.0	1950.0	1954.0	1954.0	1947.0	1947.0	1947.0	1948.0	1948.0	1947.0	1947.0	1947.0	1969.0	1969.0	1948.0	1948.0	1948.0	1946.0	1946.0	1958.0	1958.0	1958.0	1925.0	1925.0	1956.0	1956.0	1956.0	1953.0	1953.0	1935.0	1935.0	1935.0	1914.0	1914.0	1922.0	1922.0	1922.0	1943.0	1943.0	1933.0	1933.0	1933.0	1921.0	1921.0	1949.0	1949.0	1949.0	1930.0	1930.0	1916.0	1916.0	1916.0	1930.0	1930.0	1918.0	1918.0	1918.0	1905.0	1905.0	1934.0	1934.0	1934.0	1899.0	1899.0	1898.0	1898.0	1898.0	1911.0	1911.0	1902.0	1902.0	1902.0	1905.0	1905.0	1904.0	1904.0	1904.0	1898.0	1898.0	1894.0	1894.0	1894.0	1889.0	1889.0	1896.0	1896.0	1896.0	1904.0	1904.0	1889.0	1889.0	1889.0	1920.0	1920.0	1892.0	1892.0	1892.0	1891.0	1891.0	1890.0	1890.0	1890.0	1887.0	1887.0	1881.0	1881.0	1881.0	1894.0	1894.0	1879.0	1879.0	1879.0	1893.0	1893.0	1871.0	1871.0	1871.0	1865.0	1865.0	1889.0	1889.0	1889.0	1876.0	1876.0	1899.0	1899.0	1899.0	1889.0	1889.0	1880.0	1880.0	1880.0	1848.0	1848.0	1870.0	1870.0	1870.0	1879.0	1879.0	1857.0	1857.0	1867.0	1867.0	1867.0	1863.0	1863.0	1839.0	1839.0	1839.0	1875.0	1875.0	1845.0	1845.0	1845.0	1856.0	1856.0	1860.0	1860.0	1860.0	1862.0	1862.0	1867.0	1867.0	1867.0	1833.0	1833.0	1827.0	1827.0	1827.0	1857.0	1857.0	1843.0	1843.0	1843.0	1834.0	1834.0	1827.0	1827.0	1827.0	1830.0	1830.0	1833.0	1833.0	1833.0	1843.0	1843.0	1860.0	1860.0	1860.0	1862.0	1862.0	1846.0	1846.0	1846.0	1841.0	1841.0	1839.0	1839.0	1839.0	1828.0	1828.0	1850.0	1850.0	1850.0	1853.0	1853.0	1820.0	1820.0	1820.0	1837.0	1837.0	1840.0	1840.0	1840.0	1823.0	1823.0	1853.0	1853.0	1853.0	1849.0	1849.0	1830.0	1830.0	1830.0	1816.0	1816.0	1829.0	1829.0	1829.0	1842.0	1842.0	1835.0	1835.0	1835.0	1835.0	1835.0	1823.0	1823.0	1823.0	1832.0	1832.0	1832.0	1832.0	1832.0	1837.0	1837.0	1824.0	1824.0	1824.0	1812.0	1812.0	1849.0	1849.0	1849.0	1837.0	1837.0	1839.0	1839.0	1839.0	1822.0	1822.0	1816.0	1816.0	1816.0	1810.0	1810.0	1818.0	1818.0	1818.0	1811.0	1811.0	1822.0	1822.0	1822.0	1811.0	1811.0	1819.0	1819.0	1819.0	1811.0	1811.0	1813.0	1813.0	1813.0	1820.0	1820.0	1851.0	1851.0	1851.0	1809.0	1809.0	1811.0	1811.0	1811.0	1819.0	1819.0	1842.0	1842.0	1842.0	1812.0	1812.0	1822.0	1822.0	1822.0	1799.0	1799.0	1814.0	1814.0	1814.0	1820.0	1820.0	1799.0	1799.0	1799.0	1819.0	1819.0	1826.0	1826.0	1826.0	1828.0	1828.0	1839.0	1839.0	1839.0	1808.0	1808.0	1802.0	1802.0	1802.0	1804.0	1804.0	1814.0	1814.0	1814.0	1806.0	1806.0	1842.0	1842.0	1842.0	1805.0	1805.0	1835.0	1835.0	1818.0	1818.0	1818.0	1818.0	1818.0	1812.0	1812.0	1812.0	1814.0	1814.0	1835.0	1835.0	1835.0	1816.0	1816.0	1788.0	1788.0	1788.0	1819.0	1819.0	1801.0	1801.0	1801.0	1799.0	1799.0	1830.0	1830.0	1830.0	1805.0	1805.0	1822.0	1822.0	1822.0	1824.0	1824.0	1808.0	1808.0	1808.0	1820.0	1820.0	1833.0	1833.0	1833.0	1847.0	1847.0	1847.0	1847.0	1847.0	1840.0	1840.0	1840.0	1840.0	1840.0	1848.0	1848.0	1854.0	1854.0	1854.0	1844.0	1844.0	1883.0	1883.0	1883.0	1874.0	1874.0	1876.0	1876.0	1876.0	1911.0	1911.0	1921.0	1921.0	1921.0	1932.0	1932.0	1926.0	1926.0	1926.0	1947.0	1947.0	1974.0	1974.0	1974.0	1983.0	1983.0	2012.0	2012.0	2012.0	1992.0	1992.0	2017.0	2017.0	2017.0	2040.0	2040.0	2055.0	2055.0	2055.0	2075.0	2075.0	2078.0	2078.0	2078.0	2091.0	2091.0	2087.0	2087.0	2087.0	2106.0	2106.0	2126.0	2126.0	2126.0	2136.0	2136.0	2155.0	2155.0	2155.0	2152.0	2152.0	2175.0	2175.0	2175.0	2181.0	2181.0	2203.0	2203.0	2203.0	2173.0	2173.0	2215.0	2215.0	2215.0	2205.0	2205.0	2219.0	2219.0	2219.0	2243.0	2243.0	2233.0	2233.0	2233.0	2227.0	2227.0	2268.0	2268.0	2268.0	2252.0	2252.0	2277.0	2277.0	2277.0	2250.0	2250.0	2283.0	2283.0	2283.0	2289.0	2289.0	2273.0	2273.0	2273.0	2272.0	2272.0	2297.0	2297.0	2297.0	2300.0	2300.0	2292.0	2292.0	2292.0	2299.0	2299.0	2302.0	2302.0	2302.0	2320.0	2320.0	2314.0	2314.0	2314.0	2319.0	2319.0	2328.0	2328.0	2328.0	2312.0	2312.0	2313.0	2313.0	2313.0	2323.0	2323.0	2333.0	2333.0	2333.0	2323.0	2323.0	2338.0	2338.0	2338.0	2328.0	2328.0	2342.0	2342.0	2329.0	2329.0	2329.0	2323.0	2323.0	2319.0	2319.0	2319.0	2337.0	2337.0	2324.0	2324.0	2324.0	2328.0	2328.0	2325.0	2325.0	2325.0	2335.0	2335.0	2337.0	2337.0	2337.0	2325.0	2325.0	2350.0	2350.0	2350.0	2326.0	2326.0	2333.0	2333.0	2333.0	2332.0	2332.0	2336.0	2336.0	2336.0	2317.0	2317.0	2323.0	2323.0	2323.0	2330.0	2330.0	2316.0	2316.0	2316.0	2303.0	2303.0	2300.0	2300.0	2300.0	2303.0	2303.0	2327.0	2327.0	2327.0	2325.0	2325.0	2315.0	2315.0	2315.0	2303.0	2303.0	2298.0	2298.0	2298.0	2316.0	2316.0	2316.0	2316.0	2316.0	2277.0	2277.0	2288.0	2288.0	2288.0	2277.0	2277.0	2269.0	2269.0	2269.0	2265.0	2265.0	2257.0	2257.0	2257.0	2261.0	2261.0	2275.0	2275.0	2275.0	2274.0	2274.0	2253.0	2253.0	2253.0	2255.0	2255.0	2231.0	2231.0	2231.0	2248.0	2248.0	2234.0	2234.0	2234.0	2225.0	2225.0	2218.0	2218.0	2218.0	2225.0	2225.0	2212.0	2212.0	2212.0	2212.0	2212.0	2207.0	2207.0	2207.0	2173.0	2173.0	2180.0	2180.0	2180.0	2180.0	2180.0	2172.0	2172.0	2172.0	2179.0	2179.0	2158.0	2158.0	2158.0	2143.0	2143.0	2143.0	2143.0	2143.0	2150.0	2150.0	2122.0	2122.0	2122.0	2111.0	2111.0	2126.0	2126.0	2126.0	2113.0	2113.0	2127.0	2127.0	2127.0	2117.0	2117.0	2107.0	2107.0	2107.0	2126.0	2126.0	2105.0	2105.0	2105.0	2082.0	2082.0	2101.0	2101.0	2101.0	2086.0	2086.0	2071.0	2071.0	2071.0	2089.0	2089.0	2087.0	2087.0	2087.0	2069.0	2069.0	2041.0	2041.0	2041.0	2063.0	2063.0	2053.0	2053.0	2053.0	2062.0	2062.0	2038.0	2038.0	2038.0	2061.0	2061.0	2049.0	2049.0	2037.0	2037.0	2037.0	2018.0	2018.0	2041.0	2041.0	2041.0	2028.0	2028.0	2035.0	2035.0	2035.0	2030.0	2030.0	2012.0	2012.0	2012.0	2010.0	2010.0	2027.0	2027.0	2027.0	2039.0	2039.0	2006.0	2006.0	2006.0	2020.0	2020.0	2009.0	2009.0	2009.0	2020.0	2020.0	2020.0	2020.0	2020.0	1998.0	1998.0	1983.0	1983.0	1983.0	1975.0	1975.0	1974.0	1974.0	1974.0	1980.0	1980.0	1995.0	1995.0	1995.0	1984.0	1984.0	1979.0	1979.0	1979.0	2001.0	2001.0	1978.0	1978.0	1978.0	1983.0	1983.0	1987.0	1987.0	1987.0	1969.0	1969.0	1960.0	1960.0	1960.0	1947.0	1947.0	1991.0	1991.0	1991.0	1946.0	1946.0	1963.0	1963.0	1963.0	1942.0	1942.0	1962.0	1962.0	1962.0	1962.0	1962.0	1939.0	1939.0	1939.0	1954.0	1954.0	1968.0	1968.0	1968.0	1939.0	1939.0	1949.0	1949.0	1949.0	1925.0	1925.0	1962.0	1962.0	1962.0	1928.0	1928.0	1933.0	1933.0	1933.0	1928.0	1928.0	1931.0	1931.0	1931.0	1919.0	1919.0	1913.0	1913.0	1913.0	1935.0	1935.0	1930.0	1930.0	1930.0	1932.0	1932.0	1907.0	1907.0	1907.0	1913.0	1913.0	1920.0	1920.0	1920.0	1909.0	1909.0	1925.0	1925.0	1925.0	1918.0	1918.0	1920.0	1920.0	1920.0	1908.0	1908.0	1914.0	1914.0	1914.0	1905.0	1905.0	1881.0	1881.0	1881.0	1911.0	1911.0	1902.0	1902.0	1902.0	1900.0	1900.0	1900.0	1900.0	1900.0	1886.0	1886.0	1903.0	1903.0	1903.0	1898.0	1898.0	1873.0	1873.0	1873.0	1880.0	1880.0	1882.0	1882.0	1882.0	1873.0	1873.0	1888.0	1888.0	1888.0	1884.0	1884.0	1886.0	1886.0	1886.0	1872.0	1872.0	1871.0	1871.0	1871.0	1862.0	1862.0	1860.0	1860.0	1860.0	1870.0	1870.0	1872.0	1872.0	1879.0	1879.0	1879.0	1874.0	1874.0	1864.0	1864.0	1864.0	1860.0	1860.0	1875.0	1875.0	1875.0	1860.0	1860.0	1857.0	1857.0	1857.0	1846.0	1846.0	1832.0	1832.0	1832.0	1875.0	1875.0	1866.0	1866.0	1866.0	1846.0	1846.0	1857.0	1857.0	1857.0	1827.0	1827.0	1852.0	1852.0	1852.0	1859.0	1859.0	1850.0	1850.0	1850.0	1841.0	1841.0	1860.0	1860.0	1860.0	1840.0	1840.0	1837.0	1837.0	1837.0	1846.0	1846.0	1841.0	1841.0	1841.0	1858.0	1858.0	1832.0	1832.0	1832.0	1823.0	1823.0	1839.0	1839.0	1839.0	1839.0	1839.0	1853.0	1853.0	1853.0	1847.0	1847.0	1821.0	1821.0	1821.0	1819.0	1819.0	1843.0	1843.0	1843.0	1831.0	1831.0	1828.0	1828.0	1828.0	1837.0	1837.0	1837.0	1837.0	1837.0	1836.0	1836.0	1847.0	1847.0	1847.0	1847.0	1847.0	1824.0	1824.0	1824.0	1813.0	1813.0	1829.0	1829.0	1829.0	1828.0	1828.0	1821.0	1821.0	1821.0	1817.0	1817.0	1829.0	1829.0	1829.0	1832.0	1832.0	1824.0	1824.0	1824.0	1814.0	1814.0	1823.0	1823.0	1823.0	1831.0	1831.0	1803.0	1803.0	1803.0	1815.0	1815.0	1828.0	1828.0	1828.0	1814.0	1814.0	1825.0	1825.0	1825.0	1832.0	1832.0	1800.0	1800.0	1800.0	1815.0	1815.0	1839.0	1839.0	1839.0	1824.0	1824.0	1794.0	1794.0	1794.0	1811.0	1811.0	1830.0	1830.0	1830.0	1812.0	1812.0	1818.0	1818.0	1818.0	1821.0	1821.0	1813.0	1813.0	1813.0	1811.0	1811.0	1808.0	1808.0	1808.0	1821.0	1821.0	1819.0	1819.0	1819.0	1813.0	1813.0	1807.0	1807.0	1807.0	1819.0	1819.0	1805.0	1805.0	1805.0	1800.0	1800.0	1812.0	1812.0	1812.0	1786.0	1786.0	1794.0	1794.0	1823.0	1823.0	1823.0	1816.0	1816.0	1782.0	1782.0	1782.0	1807.0	1807.0	1798.0	1798.0	1798.0	1812.0	1812.0	1828.0	1828.0	1828.0	1793.0	1793.0	1797.0	1797.0	1797.0	1811.0	1811.0	1810.0	1810.0	1810.0	1815.0	1815.0	1805.0	1805.0	1805.0	1829.0	1829.0	1830.0	1830.0	1830.0	1818.0	1818.0	1825.0	1825.0	1825.0	1828.0	1828.0	1854.0	1854.0	1854.0	1832.0	1832.0	1866.0	1866.0	1866.0	1854.0	1854.0	1860.0	1860.0	1860.0	1863.0	1863.0	1863.0	1863.0	1863.0	1880.0	1880.0	1903.0	1903.0	1903.0	1908.0	1908.0	1927.0	1927.0	1927.0	1938.0	1938.0	1953.0	1953.0	1953.0	1979.0	1979.0	1989.0	1989.0	1989.0	1970.0	1970.0	2000.0	2000.0	2000.0	2012.0	2012.0	2019.0	2019.0	2019.0	2039.0	2039.0	2057.0	2057.0	2057.0	2069.0	2069.0	2084.0	2084.0	2084.0	2084.0	2084.0	2099.0	2099.0	2099.0	2122.0	2122.0	2140.0	2140.0	2140.0	2144.0	2144.0	2158.0	2158.0	2158.0	2145.0	2145.0	2168.0	2168.0	2168.0	2174.0	2174.0	2179.0	2179.0	2179.0	2199.0	2199.0	2214.0	2214.0	2214.0	2232.0	2232.0	2217.0	2217.0	2217.0	2236.0	2236.0	2224.0	2224.0	2224.0	2253.0	2253.0	