1843.0	1818.0	1818.0	1818.0	1855.0	1855.0	1855.0	1855.0	1855.0	1846.0	1846.0	1821.0	1821.0	1821.0	1855.0	1855.0	1848.0	1848.0	1848.0	1837.0	1837.0	1860.0	1860.0	1860.0	1840.0	1840.0	1884.0	1884.0	1884.0	1835.0	1835.0	1868.0	1868.0	1868.0	1878.0	1878.0	1833.0	1833.0	1833.0	1857.0	1857.0	1872.0	1872.0	1872.0	1849.0	1849.0	1869.0	1869.0	1869.0	1855.0	1855.0	1858.0	1858.0	1858.0	1831.0	1831.0	1901.0	1901.0	1901.0	1870.0	1870.0	1888.0	1888.0	1888.0	1872.0	1872.0	1872.0	1872.0	1872.0	1927.0	1927.0	1913.0	1913.0	1913.0	1946.0	1946.0	1916.0	1916.0	1916.0	1968.0	1968.0	1950.0	1950.0	1950.0	1989.0	1989.0	1993.0	1993.0	1993.0	2053.0	2053.0	2074.0	2074.0	2074.0	2100.0	2100.0	2131.0	2131.0	2131.0	2154.0	2154.0	2190.0	2190.0	2190.0	2187.0	2187.0	2224.0	2224.0	2224.0	2234.0	2234.0	2260.0	2260.0	2260.0	2307.0	2307.0	2328.0	2328.0	2328.0	2337.0	2337.0	2397.0	2397.0	2397.0	2392.0	2392.0	2430.0	2430.0	2430.0	2428.0	2428.0	2452.0	2452.0	2452.0	2446.0	2446.0	2485.0	2485.0	2485.0	2490.0	2490.0	2490.0	2490.0	2490.0	2546.0	2546.0	2539.0	2539.0	2539.0	2535.0	2535.0	2568.0	2568.0	2568.0	2544.0	2544.0	2534.0	2534.0	2534.0	2560.0	2560.0	2544.0	2544.0	2544.0	2547.0	2547.0	2576.0	2576.0	2615.0	2615.0	2615.0	2592.0	2592.0	2591.0	2591.0	2591.0	2586.0	2586.0	2547.0	2547.0	2547.0	2576.0	2576.0	2601.0	2601.0	2601.0	2604.0	2604.0	2571.0	2571.0	2571.0	2580.0	2580.0	2557.0	2557.0	2557.0	2576.0	2576.0	2589.0	2589.0	2589.0	2566.0	2566.0	2576.0	2576.0	2576.0	2600.0	2600.0	2580.0	2580.0	2580.0	2605.0	2605.0	2581.0	2581.0	2581.0	2536.0	2536.0	2584.0	2584.0	2584.0	2588.0	2588.0	2538.0	2538.0	2538.0	2581.0	2581.0	2567.0	2567.0	2567.0	2552.0	2552.0	2531.0	2531.0	2531.0	2563.0	2563.0	2565.0	2565.0	2565.0	2569.0	2569.0	2564.0	2564.0	2564.0	2562.0	2562.0	2555.0	2555.0	2555.0	2538.0	2538.0	2526.0	2526.0	2526.0	2547.0	2547.0	2523.0	2523.0	2523.0	2537.0	2537.0	2549.0	2549.0	2549.0	2527.0	2527.0	2519.0	2519.0	2519.0	2527.0	2527.0	2495.0	2495.0	2495.0	2519.0	2519.0	2507.0	2507.0	2507.0	2511.0	2511.0	2520.0	2520.0	2520.0	2487.0	2487.0	2485.0	2485.0	2485.0	2508.0	2508.0	2511.0	2511.0	2511.0	2468.0	2468.0	2500.0	2500.0	2500.0	2471.0	2471.0	2507.0	2507.0	2507.0	2476.0	2476.0	2453.0	2453.0	2453.0	2497.0	2497.0	2462.0	2462.0	2462.0	2455.0	2455.0	2434.0	2434.0	2434.0	2430.0	2430.0	2412.0	2412.0	2412.0	2417.0	2417.0	2401.0	2401.0	2401.0	2423.0	2423.0	2423.0	2423.0	2423.0	2381.0	2381.0	2379.0	2379.0	2379.0	2392.0	2392.0	2359.0	2359.0	2359.0	2368.0	2368.0	2344.0	2344.0	2344.0	2350.0	2350.0	2311.0	2311.0	2311.0	2353.0	2353.0	2293.0	2293.0	2293.0	2306.0	2306.0	2316.0	2316.0	2316.0	2305.0	2305.0	2296.0	2296.0	2246.0	2246.0	2246.0	2252.0	2252.0	2200.0	2200.0	2200.0	2258.0	2258.0	2200.0	2200.0	2200.0	2197.0	2197.0	2202.0	2202.0	2202.0	2203.0	2203.0	2161.0	2161.0	2161.0	2180.0	2180.0	2187.0	2187.0	2187.0	2164.0	2164.0	2137.0	2137.0	2137.0	2142.0	2142.0	2143.0	2143.0	2143.0	2128.0	2128.0	2110.0	2110.0	2110.0	2106.0	2106.0	2107.0	2107.0	2107.0	2076.0	2076.0	2093.0	2093.0	2093.0	2070.0	2070.0	2090.0	2090.0	2090.0	2075.0	2075.0	2074.0	2074.0	2074.0	2094.0	2094.0	2084.0	2084.0	2084.0	2077.0	2077.0	2083.0	2083.0	2083.0	2091.0	2091.0	2038.0	2038.0	2038.0	2038.0	2038.0	2081.0	2081.0	2081.0	2049.0	2049.0	2051.0	2051.0	2051.0	2044.0	2044.0	2028.0	2028.0	2028.0	2045.0	2045.0	2010.0	2010.0	2010.0	2040.0	2040.0	2059.0	2059.0	2059.0	2044.0	2044.0	2042.0	2042.0	2042.0	1998.0	1998.0	1997.0	1997.0	1997.0	2039.0	2039.0	2024.0	2024.0	2024.0	2008.0	2008.0	2007.0	2007.0	2007.0	1981.0	1981.0	1999.0	1999.0	1999.0	1980.0	1980.0	2028.0	2028.0	2028.0	2002.0	2002.0	1996.0	1996.0	1996.0	1999.0	1999.0	1986.0	1986.0	1986.0	1984.0	1984.0	1993.0	1993.0	1993.0	1972.0	1972.0	1953.0	1953.0	1953.0	1964.0	1964.0	1985.0	1985.0	1985.0	1959.0	1959.0	1961.0	1961.0	1961.0	1974.0	1974.0	1952.0	1952.0	1952.0	1955.0	1955.0	1938.0	1938.0	1938.0	1970.0	1970.0	1961.0	1961.0	1961.0	1974.0	1974.0	1968.0	1968.0	1968.0	1910.0	1910.0	1924.0	1924.0	1924.0	1904.0	1904.0	1947.0	1947.0	1947.0	1915.0	1915.0	1912.0	1912.0	1912.0	1941.0	1941.0	1913.0	1913.0	1941.0	1941.0	1941.0	1906.0	1906.0	1918.0	1918.0	1918.0	1922.0	1922.0	1936.0	1936.0	1936.0	1918.0	1918.0	1877.0	1877.0	1877.0	1874.0	1874.0	1881.0	1881.0	1881.0	1908.0	1908.0	1894.0	1894.0	1894.0	1899.0	1899.0	1882.0	1882.0	1882.0	1870.0	1870.0	1861.0	1861.0	1861.0	1876.0	1876.0	1922.0	1922.0	1922.0	1908.0	1908.0	1908.0	1908.0	1908.0	1866.0	1866.0	1846.0	1846.0	1846.0	1859.0	1859.0	1876.0	1876.0	1876.0	1852.0	1852.0	1858.0	1858.0	1858.0	1887.0	1887.0	1884.0	1884.0	1884.0	1886.0	1886.0	1844.0	1844.0	1844.0	1876.0	1876.0	1866.0	1866.0	1866.0	1844.0	1844.0	1868.0	1868.0	1868.0	1858.0	1858.0	1873.0	1873.0	1873.0	1879.0	1879.0	1858.0	1858.0	1858.0	1847.0	1847.0	1851.0	1851.0	1851.0	1875.0	1875.0	1823.0	1823.0	1823.0	1833.0	1833.0	1867.0	1867.0	1867.0	1841.0	1841.0	1831.0	1831.0	1831.0	1840.0	1840.0	1851.0	1851.0	1851.0	1828.0	1828.0	1825.0	1825.0	1825.0	1857.0	1857.0	1828.0	1828.0	1828.0	1847.0	1847.0	1864.0	1864.0	1864.0	1835.0	1835.0	1845.0	1845.0	1845.0	1840.0	1840.0	1853.0	1853.0	1853.0	1837.0	1837.0	1868.0	1868.0	1868.0	1817.0	1817.0	1837.0	1837.0	1837.0	1810.0	1810.0	1852.0	1852.0	1852.0	1847.0	1847.0	1810.0	1810.0	1810.0	1845.0	1845.0	1849.0	1849.0	1849.0	1853.0	1853.0	1845.0	1845.0	1845.0	1807.0	1807.0	1840.0	1840.0	1840.0	1811.0	1811.0	1823.0	1823.0	1823.0	1793.0	1793.0	1856.0	1856.0	1856.0	1852.0	1852.0	1817.0	1817.0	1817.0	1797.0	1797.0	1843.0	1843.0	1843.0	1822.0	1822.0	1814.0	1814.0	1814.0	1800.0	1800.0	1858.0	1858.0	1820.0	1820.0	1820.0	1846.0	1846.0	1816.0	1816.0	1816.0	1811.0	1811.0	1862.0	1862.0	1862.0	1804.0	1804.0	1862.0	1862.0	1862.0	1809.0	1809.0	1835.0	1835.0	1835.0	1811.0	1811.0	1804.0	1804.0	1804.0	1816.0	1816.0	1839.0	1839.0	1839.0	1797.0	1797.0	1823.0	1823.0	1823.0	1827.0	1827.0	1805.0	1805.0	1805.0	1833.0	1833.0	1827.0	1827.0	1827.0	1834.0	1834.0	1850.0	1850.0	1850.0	1800.0	1800.0	1794.0	1794.0	1794.0	1806.0	1806.0	1825.0	1825.0	1825.0	1845.0	1845.0	1805.0	1805.0	1805.0	1847.0	1847.0	1837.0	1837.0	1837.0	1844.0	1844.0	1844.0	1844.0	1844.0	1814.0	1814.0	1797.0	1797.0	1797.0	1793.0	1793.0	1799.0	1799.0	1799.0	1819.0	1819.0	1799.0	1799.0	1799.0	1795.0	1795.0	1833.0	1833.0	1833.0	1810.0	1810.0	1822.0	1822.0	1822.0	1851.0	1851.0	1816.0	1816.0	1816.0	1829.0	1829.0	1842.0	1842.0	1842.0	1790.0	1790.0	1827.0	1827.0	1827.0	1855.0	1855.0	1807.0	1807.0	1807.0	1829.0	1829.0	1801.0	1801.0	1801.0	1843.0	1843.0	1842.0	1842.0	1842.0	1839.0	1839.0	1824.0	1824.0	1824.0	1853.0	1853.0	1847.0	1847.0	1847.0	1804.0	1804.0	1837.0	1837.0	1837.0	1815.0	1815.0	1812.0	1812.0	1812.0	1821.0	1821.0	1835.0	1835.0	1835.0	1815.0	1815.0	1821.0	1821.0	1821.0	1802.0	1802.0	1826.0	1826.0	1826.0	1849.0	1849.0	1823.0	1823.0	1823.0	1839.0	1839.0	1842.0	1842.0	1842.0	1854.0	1854.0	1807.0	1807.0	1807.0	1812.0	1812.0	1815.0	1815.0	1815.0	1812.0	1812.0	1801.0	1801.0	1801.0	1827.0	1827.0	1863.0	1863.0	1863.0	1814.0	1814.0	1852.0	1852.0	1807.0	1807.0	1807.0	1872.0	1872.0	1814.0	1814.0	1814.0	1805.0	1805.0	1857.0	1857.0	1857.0	1822.0	1822.0	1843.0	1843.0	1843.0	1868.0	1868.0	1807.0	1807.0	1807.0	1848.0	1848.0	1819.0	1819.0	1819.0	1837.0	1837.0	1845.0	1845.0	1845.0	1812.0	1812.0	1835.0	1835.0	1835.0	1853.0	1853.0	1824.0	1824.0	1824.0	1810.0	1810.0	1828.0	1828.0	1828.0	1861.0	1861.0	1831.0	1831.0	1831.0	1829.0	1829.0	1839.0	1839.0	1839.0	1809.0	1809.0	1856.0	1856.0	1856.0	1843.0	1843.0	1830.0	1830.0	1830.0	1877.0	1877.0	1836.0	1836.0	1836.0	1848.0	1848.0	1821.0	1821.0	1821.0	1841.0	1841.0	1823.0	1823.0	1823.0	1823.0	1823.0	1854.0	1854.0	1854.0	1843.0	1843.0	1832.0	1832.0	1832.0	1872.0	1872.0	1865.0	1865.0	1865.0	1833.0	1833.0	1812.0	1812.0	1812.0	1830.0	1830.0	1867.0	1867.0	1867.0	1859.0	1859.0	1844.0	1844.0	1844.0	1850.0	1850.0	1854.0	1854.0	1854.0	1842.0	1842.0	1869.0	1869.0	1869.0	1871.0	1871.0	1900.0	1900.0	1900.0	1901.0	1901.0	1884.0	1884.0	1884.0	1901.0	1901.0	1925.0	1925.0	1925.0	1953.0	1953.0	1970.0	1970.0	1970.0	1959.0	1959.0	1972.0	1972.0	1972.0	2035.0	2035.0	2012.0	2012.0	2012.0	2069.0	2069.0	2099.0	2099.0	2099.0	2108.0	2108.0	2156.0	2156.0	2156.0	2166.0	2166.0	2164.0	2164.0	2164.0	2188.0	2188.0	2230.0	2230.0	2230.0	2225.0	2225.0	2246.0	2246.0	2246.0	2309.0	2309.0	2297.0	2297.0	2297.0	2300.0	2300.0	2331.0	2331.0	2331.0	2366.0	2366.0	2361.0	2361.0	2361.0	2378.0	2378.0	2410.0	2410.0	2410.0	2429.0	2429.0	2424.0	2424.0	2424.0	2408.0	2408.0	2438.0	2438.0	2421.0	2421.0	2421.0	2462.0	2462.0	2446.0	2446.0	2446.0	2455.0	2455.0	2476.0	2476.0	2476.0	2462.0	2462.0	2480.0	2480.0	2480.0	2449.0	2449.0	2461.0	2461.0	2461.0	2492.0	2492.0	2472.0	2472.0	2472.0	2499.0	2499.0	2448.0	2448.0	2448.0	2473.0	2473.0	2458.0	2458.0	2458.0	2463.0	2463.0	2493.0	2493.0	2493.0	2493.0	2493.0	2494.0	2494.0	2494.0	2481.0	2481.0	2471.0	2471.0	2471.0	2478.0	2478.0	2445.0	2445.0	2445.0	2476.0	2476.0	2438.0	2438.0	2438.0	2449.0	2449.0	2471.0	2471.0	2471.0	2459.0	2459.0	2464.0	2464.0	2464.0	2432.0	2432.0	2442.0	2442.0	2442.0	2455.0	2455.0	2439.0	2439.0	2439.0	2449.0	2449.0	2444.0	2444.0	2444.0	2423.0	2423.0	2451.0	2451.0	2451.0	2432.0	2432.0	2420.0	2420.0	2420.0	2411.0	2411.0	2454.0	2454.0	2454.0	2415.0	2415.0	2423.0	2423.0	2423.0	2439.0	2439.0	2436.0	2436.0	2436.0	2445.0	2445.0	2437.0	2437.0	2437.0	2455.0	2455.0	2427.0	2427.0	2427.0	2422.0	2422.0	2412.0	2412.0	2412.0	2397.0	2397.0	2409.0	2409.0	2409.0	2417.0	2417.0	2383.0	2383.0	2383.0	2409.0	2409.0	2394.0	2394.0	2394.0	2384.0	2384.0	2414.0	2414.0	2414.0	2394.0	2394.0	2400.0	2400.0	2400.0	2363.0	2363.0	2392.0	2392.0	2392.0	2372.0	2372.0	2395.0	2395.0	2395.0	2350.0	2350.0	2338.0	2338.0	2338.0	2357.0	2357.0	2325.0	2325.0	2325.0	2363.0	2363.0	2363.0	2363.0	2363.0	2317.0	2317.0	2339.0	2339.0	2339.0	2334.0	2334.0	2276.0	2276.0	2276.0	2279.0	2279.0	2276.0	2276.0	2276.0	2303.0	2303.0	2277.0	2277.0	2277.0	2293.0	2293.0	2237.0	2237.0	2267.0	2267.0	2267.0	2264.0	2264.0	2235.0	2235.0	2235.0	2228.0	2228.0	2237.0	2237.0	2237.0	2173.0	2173.0	2199.0	2199.0	2199.0	2160.0	2160.0	2189.0	2189.0	2189.0	2152.0	2152.0	2190.0	2190.0	2190.0	2135.0	2135.0	2154.0	2154.0	2154.0	2147.0	2147.0	2126.0	2126.0	2126.0	2098.0	2098.0	2077.0	2077.0	2077.0	2105.0	2105.0	2068.0	2068.0	2068.0	2103.0	2103.0	2064.0	2064.0	2064.0	2077.0	2077.0	2095.0	2095.0	2095.0	2095.0	2095.0	2081.0	2081.0	2081.0	2063.0	2063.0	2056.0	2056.0	2056.0	2025.0	2025.0	2066.0	2066.0	2066.0	2040.0	2040.0	2048.0	2048.0	2048.0	2022.0	2022.0	2019.0	2019.0	2019.0	2012.0	2012.0	2031.0	2031.0	2031.0	1998.0	1998.0	2011.0	2011.0	2011.0	1985.0	1985.0	1994.0	1994.0	1994.0	2023.0	2023.0	2041.0	2041.0	2041.0	1976.0	1976.0	2023.0	2023.0	2023.0	2027.0	2027.0	2028.0	2028.0	2028.0	1988.0	1988.0	1993.0	1993.0	1993.0	2019.0	2019.0	2019.0	2019.0	2019.0	2010.0	2010.0	2005.0	2005.0	2005.0	2020.0	2020.0	1973.0	1973.0	1973.0	2021.0	2021.0	2015.0	2015.0	2015.0	2011.0	2011.0	1999.0	1999.0	1999.0	2000.0	2000.0	2006.0	2006.0	2006.0	1960.0	1960.0	1972.0	1972.0	1972.0	1945.0	1945.0	1988.0	1988.0	1988.0	1984.0	1984.0	1951.0	1951.0	1951.0	1986.0	1986.0	1995.0	1995.0	1995.0	1983.0	1983.0	1941.0	1941.0	1941.0	1944.0	1944.0	1937.0	1937.0	1937.0	1927.0	1927.0	1937.0	1937.0	1937.0	1971.0	1971.0	1933.0	1933.0	1933.0	1948.0	1948.0	1908.0	1908.0	1908.0	1953.0	1953.0	1900.0	1900.0	1900.0	1926.0	1926.0	1911.0	1911.0	1913.0	1913.0	1913.0	1934.0	1934.0	1902.0	1902.0	1902.0	1901.0	1901.0	1935.0	1935.0	1935.0	1928.0	1928.0	1903.0	1903.0	1903.0	1909.0	1909.0	1884.0	1884.0	1884.0	1932.0	1932.0	1920.0	1920.0	1920.0	1895.0	1895.0	1872.0	1872.0	1872.0	1879.0	1879.0	1912.0	1912.0	1912.0	1873.0	1873.0	1913.0	1913.0	1913.0	1895.0	1895.0	1895.0	1895.0	1895.0	1888.0	1888.0	1907.0	1907.0	1907.0	1874.0	1874.0	1865.0	1865.0	1865.0	1889.0	1889.0	1906.0	1906.0	1906.0	1875.0	1875.0	1862.0	1862.0	1862.0	1866.0	1866.0	1850.0	1850.0	1850.0	1859.0	1859.0	1853.0	1853.0	1853.0	1870.0	1870.0	1840.0	1840.0	1840.0	1885.0	1885.0	1897.0	1897.0	1897.0	1847.0	1847.0	1831.0	1831.0	1831.0	1876.0	1876.0	1880.0	1880.0	1880.0	1839.0	1839.0	1865.0	1865.0	1865.0	1884.0	1884.0	1877.0	1877.0	1877.0	1862.0	1862.0	1836.0	1836.0	1836.0	1831.0	1831.0	1831.0	1831.0	1831.0	1836.0	1836.0	1826.0	1826.0	1826.0	1854.0	1854.0	1857.0	1857.0	1857.0	1839.0	1839.0	1847.0	1847.0	1847.0	1872.0	1872.0	1846.0	1846.0	1846.0	1865.0	1865.0	1848.0	1848.0	1848.0	1843.0	1843.0	1844.0	1844.0	1844.0	1827.0	1827.0	1844.0	1844.0	1844.0	1849.0	1849.0	1846.0	1846.0	1846.0	1824.0	1824.0	1862.0	1862.0	1862.0	1878.0	1878.0	1855.0	1855.0	1855.0	1827.0	1827.0	1856.0	1856.0	1856.0	1872.0	1872.0	1819.0	1819.0	1819.0	1842.0	1842.0	1820.0	1820.0	1820.0	1827.0	1827.0	1852.0	1852.0	1852.0	1871.0	1871.0	1821.0	1821.0	1821.0	1821.0	1821.0	1824.0	1824.0	1824.0	1842.0	1842.0	1853.0	1853.0	1853.0	1825.0	1825.0	1862.0	1862.0	1829.0	1829.0	1829.0	1854.0	1854.0	1868.0	1868.0	1868.0	1824.0	1824.0	1859.0	1859.0	1859.0	1855.0	1855.0	1812.0	1812.0	1812.0	1816.0	1816.0	1830.0	1830.0	1830.0	1808.0	1808.0	1859.0	1859.0	1859.0	1868.0	1868.0	1814.0	1814.0	1814.0	1822.0	1822.0	1841.0	1841.0	1841.0	1856.0	1856.0	1821.0	1821.0	1821.0	1828.0	1828.0	1876.0	1876.0	1876.0	1810.0	1810.0	1831.0	1831.0	1831.0	1856.0	1856.0	1858.0	1858.0	1858.0	1855.0	1855.0	1821.0	1821.0	1821.0	1839.0	1839.0	1825.0	1825.0	1825.0	1838.0	1838.0	1837.0	1837.0	1837.0	1825.0	1825.0	1852.0	1852.0	1852.0	1842.0	1842.0	1854.0	1854.0	1854.0	1823.0	1823.0	1847.0	1847.0	1847.0	1863.0	1863.0	1821.0	1821.0	1821.0	1864.0	1864.0	1845.0	1845.0	1845.0	1819.0	1819.0	1816.0	1816.0	1816.0	1871.0	1871.0	1844.0	1844.0	1844.0	1825.0	1825.0	1860.0	1860.0	1860.0	1843.0	1843.0	1829.0	1829.0	1829.0	1835.0	1835.0	1835.0	1835.0	1835.0	1851.0	1851.0	1869.0	1869.0	1869.0	1875.0	1875.0	1860.0	1860.0	1860.0	1856.0	1856.0	1851.0	1851.0	1851.0	1832.0	1832.0	1853.0	1853.0	1853.0	1822.0	1822.0	1837.0	1837.0	1837.0	1836.0	1836.0	1845.0	1845.0	1845.0	1852.0	1852.0	1859.0	1859.0	1859.0	1835.0	1835.0	1868.0	1868.0	1868.0	1862.0	1862.0	1850.0	1850.0	1850.0	1836.0	1836.0	1843.0	1843.0	1843.0	1872.0	1872.0	1859.0	1859.0	1859.0	1843.0	1843.0	1844.0	1844.0	1844.0	1862.0	1862.0	1867.0	1867.0	1867.0	1838.0	1838.0	1836.0	1836.0	1836.0	1844.0	1844.0	1844.0	1844.0	1844.0	1859.0	1859.0	1878.0	1878.0	1868.0	1868.0	1868.0	1885.0	1885.0	1859.0	1859.0	1859.0	1845.0	1845.0	1838.0	1838.0	1838.0	1838.0	1838.0	1860.0	1860.0	1860.0	1891.0	1891.0	1853.0	1853.0	1853.0	1847.0	1847.0	1891.0	1891.0	1891.0	1841.0	1841.0	1864.0	1864.0	1864.0	1842.0	1842.0	1862.0	1862.0	1862.0	1869.0	1869.0	1870.0	1870.0	1870.0	1862.0	1862.0	1855.0	1855.0	1855.0	1903.0	1903.0	1896.0	1896.0	1896.0	1886.0	1886.0	1894.0	1894.0	1894.0	1886.0	1886.0	1849.0	1849.0	1849.0	1884.0	1884.0	1845.0	1845.0	1845.0	1866.0	1866.0	1863.0	1863.0	1863.0	1880.0	1880.0	1891.0	1891.0	1891.0	1874.0	1874.0	1845.0	1845.0	1845.0	1878.0	1878.0	1864.0	1864.0	1864.0	1890.0	1890.0	1874.0	1874.0	1874.0	1892.0	1892.0	1886.0	1886.0	1886.0	1875.0	