1941.0	1941.0	1963.0	1963.0	1963.0	1948.0	1948.0	1920.0	1920.0	1920.0	1943.0	1943.0	1907.0	1907.0	1907.0	1929.0	1929.0	1927.0	1927.0	1927.0	1939.0	1939.0	1934.0	1934.0	1934.0	1896.0	1896.0	1899.0	1899.0	1899.0	1932.0	1932.0	1874.0	1874.0	1874.0	1890.0	1890.0	1895.0	1895.0	1895.0	1870.0	1870.0	1892.0	1892.0	1892.0	1908.0	1908.0	1881.0	1881.0	1881.0	1870.0	1870.0	1882.0	1882.0	1882.0	1837.0	1837.0	1828.0	1828.0	1828.0	1823.0	1823.0	1820.0	1820.0	1820.0	1848.0	1848.0	1799.0	1799.0	1799.0	1803.0	1803.0	1845.0	1845.0	1845.0	1841.0	1841.0	1835.0	1835.0	1835.0	1776.0	1776.0	1832.0	1832.0	1832.0	1767.0	1767.0	1761.0	1761.0	1761.0	1781.0	1781.0	1760.0	1760.0	1760.0	1787.0	1787.0	1805.0	1805.0	1805.0	1751.0	1751.0	1776.0	1776.0	1776.0	1786.0	1786.0	1728.0	1728.0	1728.0	1741.0	1741.0	1774.0	1774.0	1774.0	1774.0	1774.0	1753.0	1753.0	1753.0	1767.0	1767.0	1773.0	1773.0	1773.0	1740.0	1740.0	1739.0	1739.0	1739.0	1744.0	1744.0	1709.0	1709.0	1709.0	1690.0	1690.0	1705.0	1705.0	1705.0	1676.0	1676.0	1667.0	1667.0	1667.0	1688.0	1688.0	1663.0	1663.0	1663.0	1707.0	1707.0	1713.0	1713.0	1690.0	1690.0	1690.0	1699.0	1699.0	1680.0	1680.0	1680.0	1715.0	1715.0	1649.0	1649.0	1649.0	1634.0	1634.0	1654.0	1654.0	1654.0	1654.0	1654.0	1653.0	1653.0	1653.0	1681.0	1681.0	1637.0	1637.0	1637.0	1672.0	1672.0	1648.0	1648.0	1648.0	1674.0	1674.0	1663.0	1663.0	1663.0	1626.0	1626.0	1676.0	1676.0	1676.0	1679.0	1679.0	1679.0	1679.0	1679.0	1643.0	1643.0	1619.0	1619.0	1619.0	1660.0	1660.0	1609.0	1609.0	1609.0	1625.0	1625.0	1619.0	1619.0	1619.0	1636.0	1636.0	1664.0	1664.0	1664.0	1664.0	1664.0	1619.0	1619.0	1619.0	1616.0	1616.0	1648.0	1648.0	1648.0	1653.0	1653.0	1671.0	1671.0	1671.0	1607.0	1607.0	1618.0	1618.0	1618.0	1622.0	1622.0	1633.0	1633.0	1633.0	1653.0	1653.0	1635.0	1635.0	1635.0	1663.0	1663.0	1599.0	1599.0	1599.0	1611.0	1611.0	1603.0	1603.0	1603.0	1652.0	1652.0	1646.0	1646.0	1646.0	1638.0	1638.0	1643.0	1643.0	1643.0	1619.0	1619.0	1590.0	1590.0	1590.0	1604.0	1604.0	1607.0	1607.0	1607.0	1645.0	1645.0	1636.0	1636.0	1636.0	1590.0	1590.0	1634.0	1634.0	1634.0	1639.0	1639.0	1583.0	1583.0	1583.0	1572.0	1572.0	1575.0	1575.0	1575.0	1580.0	1580.0	1576.0	1576.0	1576.0	1634.0	1634.0	1593.0	1593.0	1593.0	1609.0	1609.0	1611.0	1611.0	1611.0	1620.0	1620.0	1609.0	1609.0	1609.0	1613.0	1613.0	1600.0	1600.0	1600.0	1609.0	1609.0	1613.0	1613.0	1613.0	1588.0	1588.0	1564.0	1564.0	1564.0	1558.0	1558.0	1587.0	1587.0	1587.0	1561.0	1561.0	1603.0	1603.0	1603.0	1596.0	1596.0	1577.0	1577.0	1577.0	1550.0	1550.0	1562.0	1562.0	1562.0	1557.0	1557.0	1587.0	1587.0	1577.0	1577.0	1577.0	1603.0	1603.0	1614.0	1614.0	1614.0	1640.0	1640.0	1638.0	1638.0	1638.0	1617.0	1617.0	1644.0	1644.0	1644.0	1652.0	1652.0	1688.0	1688.0	1688.0	1736.0	1736.0	1709.0	1709.0	1709.0	1765.0	1765.0	1759.0	1759.0	1759.0	1790.0	1790.0	1833.0	1833.0	1833.0	1847.0	1847.0	1877.0	1877.0	1877.0	1942.0	1942.0	1935.0	1935.0	1935.0	1971.0	1971.0	1970.0	1970.0	1970.0	2014.0	2014.0	2005.0	2005.0	2005.0	2047.0	2047.0	2062.0	2062.0	2062.0	2083.0	2083.0	2104.0	2104.0	2104.0	2163.0	2163.0	2170.0	2170.0	2170.0	2185.0	2185.0	2222.0	2222.0	2222.0	2215.0	2215.0	2232.0	2232.0	2232.0	2216.0	2216.0	2287.0	2287.0	2287.0	2239.0	2239.0	2278.0	2278.0	2278.0	2272.0	2272.0	2307.0	2307.0	2307.0	2338.0	2338.0	2327.0	2327.0	2327.0	2316.0	2316.0	2298.0	2298.0	2298.0	2313.0	2313.0	2362.0	2362.0	2362.0	2353.0	2353.0	2334.0	2334.0	2334.0	2377.0	2377.0	2364.0	2364.0	2364.0	2362.0	2362.0	2377.0	2377.0	2377.0	2387.0	2387.0	2402.0	2402.0	2402.0	2356.0	2356.0	2370.0	2370.0	2370.0	2377.0	2377.0	2389.0	2389.0	2389.0	2411.0	2411.0	2412.0	2412.0	2412.0	2395.0	2395.0	2393.0	2393.0	2393.0	2371.0	2371.0	2390.0	2390.0	2390.0	2380.0	2380.0	2390.0	2390.0	2390.0	2374.0	2374.0	2378.0	2378.0	2378.0	2418.0	2418.0	2409.0	2409.0	2409.0	2384.0	2384.0	2441.0	2441.0	2441.0	2407.0	2407.0	2441.0	2441.0	2441.0	2388.0	2388.0	2373.0	2373.0	2373.0	2415.0	2415.0	2392.0	2392.0	2392.0	2406.0	2406.0	2417.0	2417.0	2417.0	2398.0	2398.0	2388.0	2388.0	2444.0	2444.0	2444.0	2391.0	2391.0	2384.0	2384.0	2384.0	2425.0	2425.0	2382.0	2382.0	2382.0	2375.0	2375.0	2420.0	2420.0	2420.0	2375.0	2375.0	2401.0	2401.0	2401.0	2388.0	2388.0	2393.0	2393.0	2393.0	2358.0	2358.0	2349.0	2349.0	2349.0	2361.0	2361.0	2349.0	2349.0	2349.0	2332.0	2332.0	2327.0	2327.0	2327.0	2310.0	2310.0	2316.0	2316.0	2316.0	2353.0	2353.0	2274.0	2274.0	2274.0	2322.0	2322.0	2329.0	2329.0	2329.0	2309.0	2309.0	2296.0	2296.0	2296.0	2245.0	2245.0	2251.0	2251.0	2251.0	2248.0	2248.0	2249.0	2249.0	2249.0	2248.0	2248.0	2215.0	2215.0	2215.0	2179.0	2179.0	2204.0	2204.0	2204.0	2191.0	2191.0	2131.0	2131.0	2131.0	2128.0	2128.0	2159.0	2159.0	2159.0	2096.0	2096.0	2150.0	2150.0	2150.0	2124.0	2124.0	2062.0	2062.0	2062.0	2068.0	2068.0	2065.0	2065.0	2065.0	2087.0	2087.0	2065.0	2065.0	2065.0	2060.0	2060.0	2034.0	2034.0	2034.0	2021.0	2021.0	2021.0	2021.0	2021.0	2013.0	2013.0	1997.0	1997.0	1997.0	1993.0	1993.0	2001.0	2001.0	2001.0	2031.0	2031.0	2023.0	2023.0	2023.0	1976.0	1976.0	1991.0	1991.0	1991.0	2007.0	2007.0	1995.0	1995.0	1995.0	1963.0	1963.0	1995.0	1995.0	1995.0	1950.0	1950.0	1957.0	1957.0	1957.0	1931.0	1931.0	1932.0	1932.0	1932.0	1969.0	1969.0	1929.0	1929.0	1929.0	1912.0	1912.0	1927.0	1927.0	1927.0	1894.0	1894.0	1904.0	1904.0	1904.0	1892.0	1892.0	1917.0	1917.0	1917.0	1890.0	1890.0	1899.0	1899.0	1899.0	1880.0	1880.0	1917.0	1917.0	1917.0	1869.0	1869.0	1875.0	1875.0	1875.0	1878.0	1878.0	1899.0	1899.0	1903.0	1903.0	1903.0	1896.0	1896.0	1857.0	1857.0	1857.0	1865.0	1865.0	1840.0	1840.0	1840.0	1822.0	1822.0	1848.0	1848.0	1848.0	1840.0	1840.0	1871.0	1871.0	1871.0	1844.0	1844.0	1816.0	1816.0	1816.0	1802.0	1802.0	1825.0	1825.0	1825.0	1799.0	1799.0	1818.0	1818.0	1818.0	1796.0	1796.0	1783.0	1783.0	1783.0	1828.0	1828.0	1828.0	1828.0	1828.0	1799.0	1799.0	1769.0	1769.0	1769.0	1806.0	1806.0	1813.0	1813.0	1813.0	1781.0	1781.0	1783.0	1783.0	1783.0	1796.0	1796.0	1755.0	1755.0	1755.0	1756.0	1756.0	1727.0	1727.0	1727.0	1731.0	1731.0	1722.0	1722.0	1722.0	1735.0	1735.0	1745.0	1745.0	1745.0	1718.0	1718.0	1721.0	1721.0	1721.0	1702.0	1702.0	1767.0	1767.0	1767.0	1721.0	1721.0	1689.0	1689.0	1689.0	1693.0	1693.0	1684.0	1684.0	1684.0	1744.0	1744.0	1686.0	1686.0	1686.0	1711.0	1711.0	1722.0	1722.0	1722.0	1719.0	1719.0	1697.0	1697.0	1697.0	1676.0	1676.0	1689.0	1689.0	1689.0	1661.0	1661.0	1687.0	1687.0	1687.0	1670.0	1670.0	1691.0	1691.0	1691.0	1665.0	1665.0	1663.0	1663.0	1663.0	1700.0	1700.0	1653.0	1653.0	1653.0	1640.0	1640.0	1712.0	1712.0	1712.0	1690.0	1690.0	1645.0	1645.0	1645.0	1635.0	1635.0	1693.0	1693.0	1693.0	1649.0	1649.0	1648.0	1648.0	1648.0	1699.0	1699.0	1679.0	1679.0	1679.0	1632.0	1632.0	1677.0	1677.0	1677.0	1653.0	1653.0	1630.0	1630.0	1630.0	1668.0	1668.0	1660.0	1660.0	1660.0	1692.0	1692.0	1649.0	1649.0	1649.0	1662.0	1662.0	1624.0	1624.0	1624.0	1660.0	1660.0	1620.0	1620.0	1620.0	1629.0	1629.0	1671.0	1671.0	1671.0	1618.0	1618.0	1637.0	1637.0	1626.0	1626.0	1626.0	1617.0	1617.0	1643.0	1643.0	1643.0	1639.0	1639.0	1611.0	1611.0	1611.0	1622.0	1622.0	1654.0	1654.0	1654.0	1653.0	1653.0	1635.0	1635.0	1635.0	1624.0	1624.0	1608.0	1608.0	1608.0	1612.0	1612.0	1626.0	1626.0	1626.0	1610.0	1610.0	1663.0	1663.0	1663.0	1623.0	1623.0	1669.0	1669.0	1669.0	1623.0	1623.0	1683.0	1683.0	1683.0	1619.0	1619.0	1650.0	1650.0	1650.0	1634.0	1634.0	1608.0	1608.0	1608.0	1609.0	1609.0	1649.0	1649.0	1649.0	1663.0	1663.0	1671.0	1671.0	1671.0	1663.0	1663.0	1662.0	1662.0	1662.0	1662.0	1662.0	1624.0	1624.0	1624.0	1648.0	1648.0	1651.0	1651.0	1651.0	1623.0	1623.0	1645.0	1645.0	1645.0	1656.0	1656.0	1631.0	1631.0	1631.0	1656.0	1656.0	1607.0	1607.0	1607.0	1635.0	1635.0	1639.0	1639.0	1639.0	1607.0	1607.0	1622.0	1622.0	1622.0	1632.0	1632.0	1642.0	1642.0	1642.0	1664.0	1664.0	1629.0	1629.0	1629.0	1647.0	1647.0	1593.0	1593.0	1593.0	1596.0	1596.0	1664.0	1664.0	1664.0	1647.0	1647.0	1600.0	1600.0	1600.0	1623.0	1623.0	1610.0	1610.0	1610.0	1623.0	1623.0	1604.0	1604.0	1604.0	1639.0	1639.0	1651.0	1651.0	1651.0	1643.0	1643.0	1659.0	1659.0	1659.0	1674.0	1674.0	1651.0	1651.0	1651.0	1686.0	1686.0	1675.0	1675.0	1675.0	1700.0	1700.0	1740.0	1740.0	1740.0	1725.0	1725.0	1791.0	1791.0	1791.0	1776.0	1776.0	1832.0	1832.0	1832.0	1871.0	1871.0	1839.0	1839.0	1839.0	1867.0	1867.0	1944.0	1944.0	1944.0	1906.0	1906.0	1975.0	1975.0	1975.0	1995.0	1995.0	2013.0	2013.0	2013.0	2090.0	2090.0	2064.0	2064.0	2089.0	2089.0	2089.0	2107.0	2107.0	2192.0	2192.0	2192.0	2153.0	2153.0	2223.0	2223.0	2223.0	2242.0	2242.0	2266.0	2266.0	2266.0	2253.0	2253.0	2295.0	2295.0	2295.0	2319.0	2319.0	2290.0	2290.0	2290.0	2339.0	2339.0	2322.0	2322.0	2322.0	2372.0	2372.0	2356.0	2356.0	2356.0	2361.0	2361.0	2400.0	2400.0	2400.0	2368.0	2368.0	2431.0	2431.0	2431.0	2411.0	2411.0	2439.0	2439.0	2439.0	2400.0	2400.0	2463.0	2463.0	2463.0	2431.0	2431.0	2468.0	2468.0	2468.0	2446.0	2446.0	2418.0	2418.0	2418.0	2474.0	2474.0	2486.0	2486.0	2486.0	2483.0	2483.0	2451.0	2451.0	2451.0	2446.0	2446.0	2505.0	2505.0	2505.0	2482.0	2482.0	2472.0	2472.0	2472.0	2511.0	2511.0	2464.0	2464.0	2464.0	2512.0	2512.0	2471.0	2471.0	2471.0	2496.0	2496.0	2521.0	2521.0	2521.0	2523.0	2523.0	2497.0	2497.0	2497.0	2513.0	2513.0	2510.0	2510.0	2510.0	2513.0	2513.0	2493.0	2493.0	2493.0	2539.0	2539.0	2518.0	2518.0	2518.0	2522.0	2522.0	2495.0	2495.0	2495.0	2512.0	2512.0	2531.0	2531.0	2531.0	2531.0	2531.0	2540.0	2540.0	2540.0	2557.0	2557.0	2544.0	2544.0	2544.0	2506.0	2506.0	2548.0	2548.0	2548.0	2519.0	2519.0	2533.0	2533.0	2533.0	2498.0	2498.0	2501.0	2501.0	2501.0	2495.0	2495.0	2513.0	2513.0	2513.0	2512.0	2512.0	2512.0	2512.0	2512.0	2516.0	2516.0	2529.0	2529.0	2529.0	2511.0	2511.0	2535.0	2535.0	2535.0	2466.0	2466.0	2514.0	2514.0	2514.0	2499.0	2499.0	2499.0	2499.0	2499.0	2494.0	2494.0	2464.0	2464.0	2464.0	2439.0	2439.0	2438.0	2438.0	2438.0	2436.0	2436.0	2411.0	2411.0	2411.0	2443.0	2443.0	2394.0	2394.0	2408.0	2408.0	2408.0	2404.0	2404.0	2343.0	2343.0	2343.0	2358.0	2358.0	2362.0	2362.0	2362.0	2310.0	2310.0	2357.0	2357.0	2357.0	2350.0	2350.0	2285.0	2285.0	2285.0	2268.0	2268.0	2247.0	2247.0	2247.0	2292.0	2292.0	2277.0	2277.0	2277.0	2209.0	2209.0	2215.0	2215.0	2215.0	2254.0	2254.0	2223.0	2223.0	2223.0	2175.0	2175.0	2174.0	2174.0	2174.0	2214.0	2214.0	2160.0	2160.0	2160.0	2140.0	2140.0	2143.0	2143.0	2143.0	2116.0	2116.0	2119.0	2119.0	2119.0	2153.0	2153.0	2161.0	2161.0	2161.0	2094.0	2094.0	2133.0	2133.0	2133.0	2119.0	2119.0	2103.0	2103.0	2103.0	2120.0	2120.0	2093.0	2093.0	2093.0	2121.0	2121.0	2068.0	2068.0	2068.0	2092.0	2092.0	2083.0	2083.0	2083.0	2101.0	2101.0	2028.0	2028.0	2028.0	2039.0	2039.0	2019.0	2019.0	2019.0	2077.0	2077.0	2016.0	2016.0	2016.0	2028.0	2028.0	2049.0	2049.0	2049.0	2052.0	2052.0	2036.0	2036.0	2036.0	2001.0	2001.0	2000.0	2000.0	2000.0	2049.0	2049.0	2009.0	2009.0	2009.0	2020.0	2020.0	1990.0	1990.0	1990.0	1987.0	1987.0	1967.0	1967.0	1967.0	1995.0	1995.0	1994.0	1994.0	1994.0	1989.0	1989.0	1993.0	1993.0	1993.0	1981.0	1981.0	1950.0	1950.0	1950.0	1941.0	1941.0	1944.0	1944.0	1944.0	1933.0	1933.0	1933.0	1933.0	1933.0	1903.0	1903.0	1908.0	1908.0	1908.0	1923.0	1923.0	1911.0	1911.0	1911.0	1899.0	1899.0	1890.0	1890.0	1890.0	1913.0	1913.0	1880.0	1880.0	1880.0	1888.0	1888.0	1894.0	1894.0	1894.0	1876.0	1876.0	1900.0	1900.0	1900.0	1905.0	1905.0	1912.0	1912.0	1912.0	1891.0	1891.0	1881.0	1881.0	1845.0	1845.0	1845.0	1852.0	1852.0	1848.0	1848.0	1848.0	1836.0	1836.0	1833.0	1833.0	1833.0	1846.0	1846.0	1811.0	1811.0	1811.0	1825.0	1825.0	1819.0	1819.0	1819.0	1800.0	1800.0	1805.0	1805.0	1805.0	1801.0	1801.0	1811.0	1811.0	1811.0	1793.0	1793.0	1800.0	1800.0	1800.0	1830.0	1830.0	1805.0	1805.0	1805.0	1813.0	1813.0	1829.0	1829.0	1829.0	1770.0	1770.0	1766.0	1766.0	1766.0	1766.0	1766.0	1818.0	1818.0	1818.0	1763.0	1763.0	1758.0	1758.0	1758.0	1764.0	1764.0	1746.0	1746.0	1746.0	1743.0	1743.0	1767.0	1767.0	1767.0	1736.0	1736.0	1780.0	1780.0	1780.0	1769.0	1769.0	1744.0	1744.0	1744.0	1726.0	1726.0	1781.0	1781.0	1781.0	1718.0	1718.0	1763.0	1763.0	1763.0	1766.0	1766.0	1761.0	1761.0	1761.0	1741.0	1741.0	1754.0	1754.0	1754.0	1703.0	1703.0	1758.0	1758.0	1758.0	1712.0	1712.0	1719.0	1719.0	1719.0	1703.0	1703.0	1700.0	1700.0	1700.0	1716.0	1716.0	1742.0	1742.0	1742.0	1705.0	1705.0	1738.0	1738.0	1738.0	1687.0	1687.0	1692.0	1692.0	1692.0	1718.0	1718.0	1728.0	1728.0	1728.0	1689.0	1689.0	1722.0	1722.0	1722.0	1715.0	1715.0	1720.0	1720.0	1720.0	1699.0	1699.0	1686.0	1686.0	1686.0	1676.0	1676.0	1715.0	1715.0	1715.0	1664.0	1664.0	1671.0	1671.0	1671.0	1673.0	1673.0	1672.0	1672.0	1672.0	1696.0	1696.0	1688.0	1688.0	1688.0	1685.0	1685.0	1687.0	1687.0	1687.0	1702.0	1702.0	1716.0	1716.0	1716.0	1719.0	1719.0	1706.0	1706.0	1706.0	1715.0	1715.0	1702.0	1702.0	1702.0	1727.0	1727.0	1711.0	1711.0	1711.0	1690.0	1690.0	1724.0	1724.0	1678.0	1678.0	1678.0	1673.0	1673.0	1662.0	1662.0	1662.0	1674.0	1674.0	1705.0	1705.0	1705.0	1695.0	1695.0	1718.0	1718.0	1718.0	1696.0	1696.0	1664.0	1664.0	1664.0	1666.0	1666.0	1660.0	1660.0	1660.0	1641.0	1641.0	1676.0	1676.0	1676.0	1648.0	1648.0	1666.0	1666.0	1666.0	1673.0	1673.0	1708.0	1708.0	1708.0	1703.0	1703.0	1703.0	1703.0	1703.0	1688.0	1688.0	1655.0	1655.0	1655.0	1641.0	1641.0	1694.0	1694.0	1694.0	1658.0	1658.0	1701.0	1701.0	1701.0	1640.0	1640.0	1639.0	1639.0	1639.0	1647.0	1647.0	1644.0	1644.0	1644.0	1672.0	1672.0	1646.0	1646.0	1646.0	1686.0	1686.0	1655.0	1655.0	1655.0	1620.0	1620.0	1644.0	1644.0	1644.0	1629.0	1629.0	1654.0	1654.0	1654.0	1637.0	1637.0	1686.0	1686.0	1686.0	1641.0	1641.0	1697.0	1697.0	1697.0	1678.0	1678.0	1712.0	1712.0	1712.0	1685.0	1685.0	1744.0	1744.0	1744.0	1720.0	1720.0	1767.0	1767.0	1767.0	1788.0	1788.0	1756.0	1756.0	1756.0	1801.0	1801.0	1831.0	1831.0	1831.0	1812.0	1812.0	1872.0	1872.0	1872.0	1916.0	1916.0	1952.0	1952.0	1952.0	1925.0	1925.0	2000.0	2000.0	2000.0	2008.0	2008.0	2024.0	2024.0	2024.0	2098.0	2098.0	2073.0	2073.0	2073.0	2137.0	2137.0	2164.0	2164.0	2164.0	2169.0	2169.0	2186.0	2186.0	2186.0	2188.0	2188.0	2252.0	2252.0	2252.0	2286.0	2286.0	2273.0	2273.0	2273.0	2270.0	2270.0	2289.0	2289.0	2289.0	2352.0	2352.0	2315.0	2315.0	2315.0	2381.0	2381.0	2340.0	2340.0	2340.0	2395.0	2395.0	2375.0	2375.0	2375.0	2391.0	2391.0	2408.0	2408.0	2408.0	2428.0	2428.0	2457.0	2457.0	2457.0	2424.0	2424.0	2450.0	2450.0	2444.0	2444.0	2444.0	2482.0	2482.0	2477.0	2477.0	2477.0	2461.0	2461.0	2467.0	2467.0	2467.0	2454.0	2454.0	2515.0	2515.0	2515.0	2499.0	2499.0	2467.0	2467.0	2467.0	2527.0	2527.0	2501.0	2501.0	2501.0	2536.0	2536.0	2516.0	2516.0	2516.0	2491.0	2491.0	2506.0	2506.0	2506.0	2508.0	2508.0	2514.0	2514.0	2514.0	2533.0	2533.0	2543.0	2543.0	2543.0	2534.0	2534.0	2556.0	2556.0	2556.0	2590.0	2590.0	2556.0	2556.0	2556.0	2584.0	2584.0	2573.0	2573.0	2573.0	2552.0	2552.0	2569.0	2569.0	2569.0	2552.0	2552.0	2546.0	2546.0	2546.0	2560.0	2560.0	2552.0	2552.0	2552.0	2530.0	2530.0	2596.0	2596.0	2596.0	2582.0	2582.0	2584.0	2584.0	2584.0	2548.0	2548.0	2578.0	2578.0	2578.0	2589.0	2589.0	2543.0	2543.0	2543.0	2584.0	2584.0	2560.0	2560.0	2560.0	2534.0	2534.0	2525.0	2525.0	2525.0	