1696.0	1687.0	1687.0	1687.0	1675.0	1675.0	1761.0	1761.0	1761.0	1687.0	1687.0	1752.0	1752.0	1752.0	1696.0	1696.0	1753.0	1753.0	1753.0	1697.0	1697.0	1687.0	1687.0	1687.0	1668.0	1668.0	1734.0	1734.0	1734.0	1711.0	1711.0	1711.0	1711.0	1711.0	1662.0	1662.0	1656.0	1656.0	1656.0	1678.0	1678.0	1713.0	1713.0	1713.0	1722.0	1722.0	1702.0	1702.0	1702.0	1706.0	1706.0	1713.0	1713.0	1713.0	1694.0	1694.0	1647.0	1647.0	1647.0	1682.0	1682.0	1727.0	1727.0	1727.0	1713.0	1713.0	1639.0	1639.0	1639.0	1639.0	1639.0	1663.0	1663.0	1663.0	1633.0	1633.0	1663.0	1663.0	1663.0	1674.0	1674.0	1658.0	1658.0	1658.0	1710.0	1710.0	1661.0	1661.0	1661.0	1716.0	1716.0	1680.0	1680.0	1680.0	1671.0	1671.0	1640.0	1640.0	1640.0	1663.0	1663.0	1679.0	1679.0	1679.0	1699.0	1699.0	1654.0	1654.0	1654.0	1648.0	1648.0	1690.0	1690.0	1690.0	1626.0	1626.0	1636.0	1636.0	1636.0	1641.0	1641.0	1663.0	1663.0	1663.0	1616.0	1616.0	1619.0	1619.0	1619.0	1607.0	1607.0	1650.0	1650.0	1650.0	1690.0	1690.0	1693.0	1693.0	1693.0	1639.0	1639.0	1705.0	1705.0	1705.0	1684.0	1684.0	1664.0	1664.0	1664.0	1704.0	1704.0	1677.0	1677.0	1677.0	1765.0	1765.0	1700.0	1700.0	1700.0	1751.0	1751.0	1798.0	1798.0	1798.0	1778.0	1778.0	1873.0	1873.0	1873.0	1891.0	1891.0	1883.0	1883.0	1883.0	1871.0	1871.0	1904.0	1904.0	1904.0	1943.0	1943.0	2042.0	2042.0	2042.0	2016.0	2016.0	2079.0	2079.0	2079.0	2078.0	2078.0	2162.0	2162.0	2197.0	2197.0	2197.0	2167.0	2167.0	2189.0	2189.0	2189.0	2223.0	2223.0	2249.0	2249.0	2249.0	2279.0	2279.0	2332.0	2332.0	2332.0	2335.0	2335.0	2360.0	2360.0	2360.0	2378.0	2378.0	2451.0	2451.0	2451.0	2497.0	2497.0	2458.0	2458.0	2458.0	2520.0	2520.0	2526.0	2526.0	2526.0	2531.0	2531.0	2588.0	2588.0	2588.0	2602.0	2602.0	2638.0	2638.0	2638.0	2647.0	2647.0	2610.0	2610.0	2610.0	2625.0	2625.0	2636.0	2636.0	2636.0	2684.0	2684.0	2674.0	2674.0	2674.0	2680.0	2680.0	2750.0	2750.0	2750.0	2723.0	2723.0	2707.0	2707.0	2707.0	2752.0	2752.0	2761.0	2761.0	2761.0	2739.0	2739.0	2727.0	2727.0	2727.0	2773.0	2773.0	2726.0	2726.0	2726.0	2757.0	2757.0	2735.0	2735.0	2735.0	2815.0	2815.0	2775.0	2775.0	2775.0	2765.0	2765.0	2759.0	2759.0	2759.0	2753.0	2753.0	2754.0	2754.0	2754.0	2750.0	2750.0	2772.0	2772.0	2772.0	2797.0	2797.0	2829.0	2829.0	2829.0	2783.0	2783.0	2763.0	2763.0	2763.0	2766.0	2766.0	2823.0	2823.0	2823.0	2822.0	2822.0	2851.0	2851.0	2851.0	2850.0	2850.0	2842.0	2842.0	2842.0	2862.0	2862.0	2780.0	2780.0	2780.0	2803.0	2803.0	2795.0	2795.0	2795.0	2804.0	2804.0	2827.0	2827.0	2827.0	2851.0	2851.0	2788.0	2788.0	2788.0	2822.0	2822.0	2876.0	2876.0	2876.0	2856.0	2856.0	2794.0	2794.0	2794.0	2823.0	2823.0	2828.0	2828.0	2828.0	2835.0	2835.0	2882.0	2882.0	2882.0	2838.0	2838.0	2868.0	2868.0	2868.0	2802.0	2802.0	2856.0	2856.0	2856.0	2819.0	2819.0	2796.0	2796.0	2796.0	2838.0	2838.0	2857.0	2857.0	2857.0	2786.0	2786.0	2782.0	2782.0	2824.0	2824.0	2824.0	2775.0	2775.0	2824.0	2824.0	2824.0	2802.0	2802.0	2775.0	2775.0	2775.0	2820.0	2820.0	2787.0	2787.0	2787.0	2745.0	2745.0	2763.0	2763.0	2763.0	2759.0	2759.0	2774.0	2774.0	2774.0	2776.0	2776.0	2689.0	2689.0	2689.0	2746.0	2746.0	2746.0	2746.0	2746.0	2743.0	2743.0	2676.0	2676.0	2676.0	2652.0	2652.0	2692.0	2692.0	2692.0	2626.0	2626.0	2683.0	2683.0	2683.0	2597.0	2597.0	2620.0	2620.0	2620.0	2589.0	2589.0	2590.0	2590.0	2590.0	2602.0	2602.0	2605.0	2605.0	2605.0	2535.0	2535.0	2534.0	2534.0	2534.0	2512.0	2512.0	2532.0	2532.0	2532.0	2481.0	2481.0	2477.0	2477.0	2477.0	2538.0	2538.0	2473.0	2473.0	2473.0	2507.0	2507.0	2447.0	2447.0	2447.0	2489.0	2489.0	2452.0	2452.0	2452.0	2405.0	2405.0	2439.0	2439.0	2439.0	2406.0	2406.0	2447.0	2447.0	2447.0	2405.0	2405.0	2436.0	2436.0	2436.0	2426.0	2426.0	2381.0	2381.0	2381.0	2416.0	2416.0	2343.0	2343.0	2343.0	2394.0	2394.0	2383.0	2383.0	2383.0	2311.0	2311.0	2340.0	2340.0	2340.0	2375.0	2375.0	2296.0	2296.0	2296.0	2294.0	2294.0	2282.0	2282.0	2282.0	2349.0	2349.0	2322.0	2322.0	2322.0	2282.0	2282.0	2282.0	2282.0	2282.0	2258.0	2258.0	2324.0	2324.0	2324.0	2326.0	2326.0	2325.0	2325.0	2325.0	2258.0	2258.0	2251.0	2251.0	2251.0	2287.0	2287.0	2299.0	2299.0	2299.0	2290.0	2290.0	2255.0	2255.0	2255.0	2259.0	2259.0	2283.0	2283.0	2283.0	2267.0	2267.0	2240.0	2240.0	2240.0	2185.0	2185.0	2207.0	2207.0	2207.0	2246.0	2246.0	2181.0	2181.0	2181.0	2206.0	2206.0	2223.0	2223.0	2221.0	2221.0	2221.0	2172.0	2172.0	2159.0	2159.0	2159.0	2175.0	2175.0	2136.0	2136.0	2136.0	2138.0	2138.0	2183.0	2183.0	2183.0	2195.0	2195.0	2142.0	2142.0	2142.0	2112.0	2112.0	2129.0	2129.0	2129.0	2127.0	2127.0	2164.0	2164.0	2164.0	2116.0	2116.0	2089.0	2089.0	2089.0	2083.0	2083.0	2121.0	2121.0	2121.0	2071.0	2071.0	2071.0	2071.0	2071.0	2077.0	2077.0	2114.0	2114.0	2114.0	2055.0	2055.0	2104.0	2104.0	2104.0	2084.0	2084.0	2095.0	2095.0	2095.0	2092.0	2092.0	2025.0	2025.0	2025.0	2084.0	2084.0	2065.0	2065.0	2065.0	2071.0	2071.0	2007.0	2007.0	2007.0	2049.0	2049.0	2005.0	2005.0	2005.0	2033.0	2033.0	2022.0	2022.0	2022.0	1963.0	1963.0	1985.0	1985.0	1985.0	1964.0	1964.0	2014.0	2014.0	2014.0	1983.0	1983.0	2026.0	2026.0	2026.0	1961.0	1961.0	1929.0	1929.0	1929.0	1924.0	1924.0	1926.0	1926.0	1926.0	1996.0	1996.0	1985.0	1985.0	1985.0	1904.0	1904.0	1957.0	1957.0	1957.0	1905.0	1905.0	1950.0	1950.0	1950.0	1898.0	1898.0	1880.0	1880.0	1880.0	1943.0	1943.0	1943.0	1943.0	1943.0	1925.0	1925.0	1908.0	1908.0	1908.0	1920.0	1920.0	1921.0	1921.0	1921.0	1843.0	1843.0	1840.0	1840.0	1840.0	1883.0	1883.0	1844.0	1844.0	1844.0	1899.0	1899.0	1890.0	1890.0	1890.0	1884.0	1884.0	1808.0	1808.0	1808.0	1824.0	1824.0	1807.0	1807.0	1807.0	1801.0	1801.0	1806.0	1806.0	1806.0	1787.0	1787.0	1788.0	1788.0	1788.0	1848.0	1848.0	1773.0	1773.0	1773.0	1784.0	1784.0	1762.0	1762.0	1762.0	1833.0	1833.0	1764.0	1764.0	1764.0	1765.0	1765.0	1785.0	1785.0	1785.0	1747.0	1747.0	1798.0	1798.0	1748.0	1748.0	1748.0	1778.0	1778.0	1758.0	1758.0	1758.0	1809.0	1809.0	1793.0	1793.0	1793.0	1724.0	1724.0	1768.0	1768.0	1768.0	1793.0	1793.0	1767.0	1767.0	1767.0	1757.0	1757.0	1723.0	1723.0	1723.0	1708.0	1708.0	1745.0	1745.0	1745.0	1708.0	1708.0	1735.0	1735.0	1735.0	1701.0	1701.0	1729.0	1729.0	1729.0	1717.0	1717.0	1745.0	1745.0	1745.0	1727.0	1727.0	1691.0	1691.0	1691.0	1700.0	1700.0	1763.0	1763.0	1763.0	1748.0	1748.0	1720.0	1720.0	1720.0	1755.0	1755.0	1719.0	1719.0	1719.0	1722.0	1722.0	1762.0	1762.0	1762.0	1744.0	1744.0	1740.0	1740.0	1740.0	1747.0	1747.0	1703.0	1703.0	1703.0	1663.0	1663.0	1739.0	1739.0	1739.0	1675.0	1675.0	1665.0	1665.0	1665.0	1697.0	1697.0	1716.0	1716.0	1716.0	1661.0	1661.0	1664.0	1664.0	1664.0	1677.0	1677.0	1658.0	1658.0	1658.0	1720.0	1720.0	1681.0	1681.0	1681.0	1703.0	1703.0	1658.0	1658.0	1658.0	1687.0	1687.0	1661.0	1661.0	1661.0	1658.0	1658.0	1660.0	1660.0	1660.0	1670.0	1670.0	1696.0	1696.0	1696.0	1659.0	1659.0	1725.0	1725.0	1725.0	1679.0	1679.0	1660.0	1660.0	1660.0	1669.0	1669.0	1722.0	1722.0	1722.0	1683.0	1683.0	1666.0	1666.0	1666.0	1734.0	1734.0	1719.0	1719.0	1719.0	1731.0	1731.0	1740.0	1740.0	1740.0	1661.0	1661.0	1682.0	1682.0	1682.0	1668.0	1668.0	1673.0	1673.0	1673.0	1738.0	1738.0	1650.0	1650.0	1650.0	1729.0	1729.0	1712.0	1712.0	1712.0	1716.0	1716.0	1652.0	1652.0	1652.0	1656.0	1656.0	1649.0	1649.0	1649.0	1714.0	1714.0	1692.0	1692.0	1692.0	1719.0	1719.0	1709.0	1709.0	1651.0	1651.0	1651.0	1725.0	1725.0	1653.0	1653.0	1653.0	1662.0	1662.0	1648.0	1648.0	1648.0	1678.0	1678.0	1684.0	1684.0	1684.0	1647.0	1647.0	1726.0	1726.0	1726.0	1647.0	1647.0	1642.0	1642.0	1642.0	1723.0	1723.0	1641.0	1641.0	1641.0	1703.0	1703.0	1658.0	1658.0	1658.0	1685.0	1685.0	1663.0	1663.0	1663.0	1672.0	1672.0	1719.0	1719.0	1719.0	1688.0	1688.0	1724.0	1724.0	1724.0	1738.0	1738.0	1726.0	1726.0	1726.0	1796.0	1796.0	1759.0	1759.0	1759.0	1823.0	1823.0	1808.0	1808.0	1808.0	1834.0	1834.0	1896.0	1896.0	1896.0	1954.0	1954.0	1936.0	1936.0	1936.0	2013.0	2013.0	1968.0	1968.0	1968.0	2005.0	2005.0	2116.0	2116.0	2116.0	2129.0	2129.0	2108.0	2108.0	2108.0	2143.0	2143.0	2186.0	2186.0	2186.0	2218.0	2218.0	2326.0	2326.0	2326.0	2323.0	2323.0	2377.0	2377.0	2377.0	2388.0	2388.0	2412.0	2412.0	2412.0	2429.0	2429.0	2481.0	2481.0	2481.0	2571.0	2571.0	2553.0	2553.0	2553.0	2639.0	2639.0	2632.0	2632.0	2632.0	2669.0	2669.0	2711.0	2711.0	2711.0	2723.0	2723.0	2784.0	2784.0	2784.0	2741.0	2741.0	2799.0	2799.0	2799.0	2818.0	2818.0	2815.0	2815.0	2815.0	2882.0	2882.0	2934.0	2934.0	2934.0	2896.0	2896.0	2944.0	2944.0	2944.0	2974.0	2974.0	2942.0	2942.0	2942.0	2999.0	2999.0	3049.0	3049.0	3049.0	3013.0	3013.0	3080.0	3080.0	3080.0	3061.0	3061.0	3049.0	3049.0	3049.0	3112.0	3112.0	3133.0	3133.0	3133.0	3146.0	3146.0	3103.0	3103.0	3103.0	3166.0	3166.0	3140.0	3140.0	3140.0	3160.0	3160.0	3148.0	3148.0	3148.0	3148.0	3148.0	3148.0	3148.0	3148.0	3133.0	3133.0	3123.0	3123.0	3101.0	3101.0	3101.0	3116.0	3116.0	3136.0	3136.0	3136.0	3111.0	3111.0	3097.0	3097.0	3097.0	3095.0	3095.0	3130.0	3130.0	3130.0	3092.0	3092.0	3093.0	3093.0	3093.0	3129.0	3129.0	3101.0	3101.0	3101.0	3080.0	3080.0	3108.0	3108.0	3108.0	3138.0	3138.0	3167.0	3167.0	3167.0	3149.0	3149.0	3119.0	3119.0	3119.0	3107.0	3107.0	3159.0	3159.0	3159.0	3126.0	3126.0	3189.0	3189.0	3189.0	3201.0	3201.0	3171.0	3171.0	3171.0	3189.0	3189.0	3179.0	3179.0	3179.0	3230.0	3230.0	3255.0	3255.0	3255.0	3259.0	3259.0	3265.0	3265.0	3265.0	3288.0	3288.0	3236.0	3236.0	3236.0	3265.0	3265.0	3263.0	3263.0	3263.0	3247.0	3247.0	3258.0	3258.0	3258.0	3325.0	3325.0	3265.0	3265.0	3265.0	3266.0	3266.0	3271.0	3271.0	3271.0	3279.0	3279.0	3348.0	3348.0	3348.0	3332.0	3332.0	3352.0	3352.0	3352.0	3286.0	3286.0	3279.0	3279.0	3279.0	3329.0	3329.0	3299.0	3299.0	3299.0	3282.0	3282.0	3322.0	3322.0	3322.0	3342.0	3342.0	3319.0	3319.0	3319.0	3266.0	3266.0	3303.0	3303.0	3303.0	3273.0	3273.0	3260.0	3260.0	3260.0	3255.0	3255.0	3220.0	3220.0	3220.0	3227.0	3227.0	3215.0	3215.0	3215.0	3199.0	3199.0	3206.0	3206.0	3206.0	3219.0	3219.0	3181.0	3181.0	3181.0	3174.0	3174.0	3213.0	3213.0	3213.0	3216.0	3216.0	3146.0	3146.0	3146.0	3181.0	3181.0	3141.0	3141.0	3141.0	3102.0	3102.0	3083.0	3083.0	3083.0	3103.0	3103.0	3089.0	3089.0	3089.0	3064.0	3064.0	3057.0	3057.0	3057.0	3020.0	3020.0	3072.0	3072.0	3072.0	3038.0	3038.0	2983.0	2983.0	2983.0	2991.0	2991.0	2964.0	2964.0	2991.0	2991.0	2991.0	2940.0	2940.0	2999.0	2999.0	2999.0	2961.0	2961.0	2955.0	2955.0	2955.0	2931.0	2931.0	2884.0	2884.0	2884.0	2949.0	2949.0	2897.0	2897.0	2897.0	2935.0	2935.0	2846.0	2846.0	2846.0	2890.0	2890.0	2849.0	2849.0	2849.0	2899.0	2899.0	2903.0	2903.0	2903.0	2846.0	2846.0	2863.0	2863.0	2863.0	2793.0	2793.0	2818.0	2818.0	2818.0	2780.0	2780.0	2812.0	2812.0	2812.0	2766.0	2766.0	2754.0	2754.0	2754.0	2771.0	2771.0	2736.0	2736.0	2736.0	2757.0	2757.0	2709.0	2709.0	2709.0	2779.0	2779.0	2699.0	2699.0	2699.0	2756.0	2756.0	2754.0	2754.0	2754.0	2702.0	2702.0	2724.0	2724.0	2724.0	2678.0	2678.0	2645.0	2645.0	2645.0	2637.0	2637.0	2674.0	2674.0	2674.0	2643.0	2643.0	2669.0	2669.0	2669.0	2623.0	2623.0	2589.0	2589.0	2589.0	2636.0	2636.0	2561.0	2561.0	2561.0	2588.0	2588.0	2591.0	2591.0	2591.0	2534.0	2534.0	2551.0	2551.0	2551.0	2579.0	2579.0	2584.0	2584.0	2584.0	2536.0	2536.0	2512.0	2512.0	2512.0	2507.0	2507.0	2542.0	2542.0	2542.0	2459.0	2459.0	2468.0	2468.0	2468.0	2499.0	2499.0	2459.0	2459.0	2459.0	2422.0	2422.0	2428.0	2428.0	2428.0	2473.0	2473.0	2416.0	2416.0	2416.0	2380.0	2380.0	2453.0	2453.0	2453.0	2387.0	2387.0	2420.0	2420.0	2420.0	2407.0	2407.0	2326.0	2326.0	2326.0	2351.0	2351.0	2333.0	2333.0	2333.0	2300.0	2300.0	2348.0	2348.0	2348.0	2341.0	2341.0	2335.0	2335.0	2335.0	2291.0	2291.0	2260.0	2260.0	2260.0	2314.0	2314.0	2264.0	2264.0	2264.0	2230.0	2230.0	2223.0	2223.0	2223.0	2203.0	2203.0	2228.0	2228.0	2197.0	2197.0	2197.0	2211.0	2211.0	2169.0	2169.0	2169.0	2188.0	2188.0	2157.0	2157.0	2157.0	2166.0	2166.0	2175.0	2175.0	2175.0	2174.0	2174.0	2150.0	2150.0	2150.0	2122.0	2122.0	2096.0	2096.0	2096.0	2099.0	2099.0	2111.0	2111.0	2111.0	2067.0	2067.0	2122.0	2122.0	2122.0	2120.0	2120.0	2059.0	2059.0	2059.0	2098.0	2098.0	2098.0	2098.0	2098.0	2035.0	2035.0	2091.0	2091.0	2091.0	2081.0	2081.0	2011.0	2011.0	2011.0	2055.0	2055.0	2027.0	2027.0	2027.0	1990.0	1990.0	2044.0	2044.0	2044.0	2035.0	2035.0	1959.0	1959.0	1959.0	1959.0	1959.0	1948.0	1948.0	1948.0	2007.0	2007.0	1970.0	1970.0	1970.0	2004.0	2004.0	2009.0	2009.0	2009.0	1923.0	1923.0	1938.0	1938.0	1938.0	1922.0	1922.0	1974.0	1974.0	1974.0	1886.0	1886.0	1945.0	1945.0	1945.0	1936.0	1936.0	1877.0	1877.0	1877.0	1949.0	1949.0	1912.0	1912.0	1912.0	1877.0	1877.0	1851.0	1851.0	1851.0	1853.0	1853.0	1845.0	1845.0	1845.0	1910.0	1910.0	1903.0	1903.0	1903.0	1833.0	1833.0	1832.0	1832.0	1832.0	1886.0	1886.0	1811.0	1811.0	1811.0	1886.0	1886.0	1863.0	1863.0	1863.0	1846.0	1846.0	1823.0	1823.0	1823.0	1802.0	1802.0	1801.0	1801.0	1801.0	1786.0	1786.0	1796.0	1796.0	1796.0	1765.0	1765.0	1803.0	1803.0	1803.0	1837.0	1837.0	1794.0	1794.0	1794.0	1776.0	1776.0	1816.0	1816.0	1816.0	1737.0	1737.0	1768.0	1768.0	1768.0	1779.0	1779.0	1779.0	1779.0	1779.0	1773.0	1773.0	1781.0	1781.0	1781.0	1777.0	1777.0	1772.0	1772.0	1772.0	1766.0	1766.0	1736.0	1736.0	1736.0	1701.0	1701.0	1720.0	1720.0	1720.0	1711.0	1711.0	1751.0	1751.0	1706.0	1706.0	1706.0	1705.0	1705.0	1741.0	1741.0	1741.0	1691.0	1691.0	1684.0	1684.0	1684.0	1743.0	1743.0	1749.0	1749.0	1749.0	1677.0	1677.0	1737.0	1737.0	1737.0	1677.0	1677.0	1734.0	1734.0	1734.0	1671.0	1671.0	1693.0	1693.0	1693.0	1723.0	1723.0	1724.0	1724.0	1724.0	1680.0	1680.0	1744.0	1744.0	1744.0	1713.0	1713.0	1743.0	1743.0	1743.0	1720.0	1720.0	1717.0	1717.0	1717.0	1698.0	1698.0	1683.0	1683.0	1683.0	1715.0	1715.0	1673.0	1673.0	1673.0	1760.0	1760.0	1755.0	1755.0	1755.0	1712.0	1712.0	1746.0	1746.0	1746.0	1743.0	1743.0	1690.0	1690.0	1690.0	1716.0	1716.0	1753.0	1753.0	1753.0	1768.0	1768.0	1774.0	1774.0	1774.0	1744.0	1744.0	1795.0	1795.0	1795.0	1768.0	1768.0	1731.0	1731.0	1731.0	1815.0	1815.0	1805.0	1805.0	1805.0	1753.0	1753.0	1793.0	1793.0	1793.0	1826.0	1826.0	1773.0	1773.0	1773.0	1801.0	1801.0	1850.0	1850.0	1850.0	1851.0	1851.0	1815.0	1815.0	1815.0	1857.0	1857.0	1818.0	1818.0	1818.0	1864.0	1864.0	1909.0	1909.0	1909.0	1917.0	1917.0	1911.0	1911.0	1911.0	1891.0	1891.0	1909.0	1909.0	1909.0	1973.0	1973.0	1961.0	1961.0	1961.0	1995.0	1995.0	2020.0	2020.0	2020.0	2046.0	2046.0	2051.0	2051.0	2051.0	2056.0	2056.0	2098.0	2098.0	2098.0	2160.0	2160.0	2131.0	2131.0	2131.0	2231.0	2231.0	2270.0	2270.0	2270.0	2292.0	2292.0	2266.0	2266.0	2266.0	2376.0	2376.0	2357.0	2357.0	2357.0	2383.0	2383.0	2472.0	2472.0	2472.0	2471.0	2471.0	2497.0	2497.0	2497.0	2520.0	2520.0	2608.0	2608.0	2608.0	2641.0	2641.0	2653.0	2653.0	2736.0	2736.0	2736.0	2771.0	2771.0	2801.0	2801.0	2801.0	2850.0	2850.0	2825.0	2825.0	2825.0	2846.0	2846.0	2937.0	2937.0	2937.0	2959.0	2959.0	2950.0	2950.0	2950.0	3001.0	3001.0	3044.0	3044.0	3044.0	3068.0	3068.0	3103.0	3103.0	3103.0	3131.0	3131.0	3100.0	3100.0	3100.0	3113.0	3113.0	3136.0	3136.0	3136.0	3159.0	3159.0	3180.0	3180.0	3180.0	3266.0	3266.0	3291.0	3291.0	3291.0	3292.0	3292.0	3294.0	3294.0	3294.0	3354.0	3354.0	3299.0	3299.0	3299.0	3385.0	3385.0	3398.0	3398.0	3398.0	3430.0	3430.0	3421.0	3421.0	3421.0	3387.0	