1842.0	1867.0	1867.0	1831.0	1831.0	1831.0	1831.0	1831.0	1832.0	1832.0	1832.0	1881.0	1881.0	1833.0	1833.0	1833.0	1836.0	1836.0	1816.0	1816.0	1816.0	1856.0	1856.0	1832.0	1832.0	1832.0	1825.0	1825.0	1838.0	1838.0	1838.0	1854.0	1854.0	1821.0	1821.0	1821.0	1799.0	1799.0	1847.0	1847.0	1847.0	1824.0	1824.0	1791.0	1791.0	1791.0	1791.0	1791.0	1807.0	1807.0	1801.0	1801.0	1801.0	1795.0	1795.0	1834.0	1834.0	1834.0	1828.0	1828.0	1819.0	1819.0	1819.0	1801.0	1801.0	1792.0	1792.0	1792.0	1806.0	1806.0	1780.0	1780.0	1780.0	1775.0	1775.0	1786.0	1786.0	1786.0	1802.0	1802.0	1798.0	1798.0	1798.0	1820.0	1820.0	1806.0	1806.0	1806.0	1785.0	1785.0	1785.0	1785.0	1785.0	1796.0	1796.0	1796.0	1796.0	1796.0	1779.0	1779.0	1758.0	1758.0	1758.0	1783.0	1783.0	1775.0	1775.0	1775.0	1779.0	1779.0	1786.0	1786.0	1786.0	1767.0	1767.0	1762.0	1762.0	1762.0	1788.0	1788.0	1786.0	1786.0	1786.0	1768.0	1768.0	1767.0	1767.0	1767.0	1754.0	1754.0	1728.0	1728.0	1728.0	1761.0	1761.0	1734.0	1734.0	1734.0	1784.0	1784.0	1776.0	1776.0	1776.0	1738.0	1738.0	1726.0	1726.0	1726.0	1765.0	1765.0	1712.0	1712.0	1712.0	1716.0	1716.0	1717.0	1717.0	1717.0	1765.0	1765.0	1766.0	1766.0	1766.0	1753.0	1753.0	1735.0	1735.0	1735.0	1752.0	1752.0	1747.0	1747.0	1747.0	1765.0	1765.0	1735.0	1735.0	1735.0	1742.0	1742.0	1753.0	1753.0	1753.0	1742.0	1742.0	1768.0	1768.0	1768.0	1722.0	1722.0	1723.0	1723.0	1723.0	1757.0	1757.0	1751.0	1751.0	1751.0	1738.0	1738.0	1760.0	1760.0	1760.0	1722.0	1722.0	1763.0	1763.0	1763.0	1737.0	1737.0	1744.0	1744.0	1744.0	1746.0	1746.0	1773.0	1773.0	1773.0	1718.0	1718.0	1736.0	1736.0	1736.0	1761.0	1761.0	1720.0	1720.0	1720.0	1752.0	1752.0	1753.0	1753.0	1753.0	1742.0	1742.0	1753.0	1753.0	1753.0	1716.0	1716.0	1717.0	1717.0	1717.0	1747.0	1747.0	1759.0	1759.0	1759.0	1726.0	1726.0	1722.0	1722.0	1720.0	1720.0	1720.0	1752.0	1752.0	1694.0	1694.0	1694.0	1718.0	1718.0	1745.0	1745.0	1745.0	1729.0	1729.0	1718.0	1718.0	1718.0	1746.0	1746.0	1739.0	1739.0	1739.0	1729.0	1729.0	1737.0	1737.0	1737.0	1724.0	1724.0	1749.0	1749.0	1749.0	1708.0	1708.0	1749.0	1749.0	1749.0	1740.0	1740.0	1691.0	1691.0	1691.0	1723.0	1723.0	1690.0	1690.0	1690.0	1690.0	1690.0	1735.0	1735.0	1735.0	1751.0	1751.0	1696.0	1696.0	1696.0	1708.0	1708.0	1735.0	1735.0	1735.0	1742.0	1742.0	1715.0	1715.0	1715.0	1757.0	1757.0	1721.0	1721.0	1721.0	1707.0	1707.0	1731.0	1731.0	1731.0	1775.0	1775.0	1747.0	1747.0	1747.0	1770.0	1770.0	1763.0	1763.0	1763.0	1745.0	1745.0	1777.0	1777.0	1777.0	1802.0	1802.0	1767.0	1767.0	1767.0	1832.0	1832.0	1791.0	1791.0	1791.0	1805.0	1805.0	1838.0	1838.0	1838.0	1858.0	1858.0	1885.0	1885.0	1885.0	1855.0	1855.0	1888.0	1888.0	1888.0	1938.0	1938.0	1919.0	1919.0	1919.0	1927.0	1927.0	1935.0	1935.0	1935.0	1943.0	1943.0	1975.0	1975.0	1975.0	1967.0	1967.0	1986.0	1986.0	1986.0	1985.0	1985.0	2046.0	2046.0	2046.0	2053.0	2053.0	2058.0	2058.0	2058.0	2066.0	2066.0	2049.0	2049.0	2049.0	2043.0	2043.0	2073.0	2073.0	2073.0	2060.0	2060.0	2103.0	2103.0	2103.0	2084.0	2084.0	2094.0	2094.0	2094.0	2123.0	2123.0	2117.0	2117.0	2117.0	2100.0	2100.0	2136.0	2136.0	2136.0	2101.0	2101.0	2152.0	2152.0	2152.0	2131.0	2131.0	2146.0	2146.0	2146.0	2162.0	2162.0	2141.0	2141.0	2141.0	2149.0	2149.0	2150.0	2150.0	2150.0	2159.0	2159.0	2155.0	2155.0	2174.0	2174.0	2174.0	2158.0	2158.0	2136.0	2136.0	2136.0	2148.0	2148.0	2130.0	2130.0	2130.0	2165.0	2165.0	2189.0	2189.0	2189.0	2167.0	2167.0	2179.0	2179.0	2179.0	2168.0	2168.0	2178.0	2178.0	2178.0	2191.0	2191.0	2163.0	2163.0	2163.0	2186.0	2186.0	2150.0	2150.0	2150.0	2210.0	2210.0	2175.0	2175.0	2175.0	2189.0	2189.0	2197.0	2197.0	2197.0	2149.0	2149.0	2209.0	2209.0	2209.0	2181.0	2181.0	2189.0	2189.0	2189.0	2163.0	2163.0	2158.0	2158.0	2158.0	2208.0	2208.0	2170.0	2170.0	2170.0	2215.0	2215.0	2161.0	2161.0	2161.0	2200.0	2200.0	2200.0	2200.0	2200.0	2171.0	2171.0	2202.0	2202.0	2202.0	2189.0	2189.0	2189.0	2189.0	2189.0	2221.0	2221.0	2204.0	2204.0	2204.0	2226.0	2226.0	2207.0	2207.0	2207.0	2221.0	2221.0	2189.0	2189.0	2189.0	2175.0	2175.0	2172.0	2172.0	2172.0	2198.0	2198.0	2218.0	2218.0	2218.0	2225.0	2225.0	2187.0	2187.0	2187.0	2164.0	2164.0	2186.0	2186.0	2186.0	2182.0	2182.0	2223.0	2223.0	2223.0	2184.0	2184.0	2212.0	2212.0	2212.0	2196.0	2196.0	2211.0	2211.0	2211.0	2168.0	2168.0	2179.0	2179.0	2179.0	2159.0	2159.0	2177.0	2177.0	2177.0	2166.0	2166.0	2177.0	2177.0	2177.0	2171.0	2171.0	2163.0	2163.0	2163.0	2146.0	2146.0	2141.0	2141.0	2141.0	2148.0	2148.0	2119.0	2119.0	2119.0	2115.0	2115.0	2128.0	2128.0	2128.0	2118.0	2118.0	2117.0	2117.0	2117.0	2095.0	2095.0	2118.0	2118.0	2118.0	2119.0	2119.0	2097.0	2097.0	2097.0	2122.0	2122.0	2083.0	2083.0	2083.0	2116.0	2116.0	2069.0	2069.0	2069.0	2091.0	2091.0	2093.0	2093.0	2099.0	2099.0	2099.0	2048.0	2048.0	2082.0	2082.0	2082.0	2041.0	2041.0	2078.0	2078.0	2078.0	2057.0	2057.0	2032.0	2032.0	2032.0	2071.0	2071.0	2009.0	2009.0	2009.0	2000.0	2000.0	2042.0	2042.0	2042.0	2047.0	2047.0	2039.0	2039.0	2039.0	2028.0	2028.0	2014.0	2014.0	2014.0	1992.0	1992.0	2004.0	2004.0	2004.0	2024.0	2024.0	2024.0	2024.0	2024.0	1997.0	1997.0	1984.0	1984.0	1984.0	2012.0	2012.0	2007.0	2007.0	2007.0	2019.0	2019.0	2023.0	2023.0	2023.0	1978.0	1978.0	2000.0	2000.0	2000.0	2018.0	2018.0	1994.0	1994.0	1994.0	1989.0	1989.0	1969.0	1969.0	1969.0	1992.0	1992.0	1976.0	1976.0	1976.0	1960.0	1960.0	2005.0	2005.0	2005.0	1977.0	1977.0	1959.0	1959.0	1959.0	1995.0	1995.0	1983.0	1983.0	1983.0	1999.0	1999.0	1995.0	1995.0	1995.0	1991.0	1991.0	1986.0	1986.0	1986.0	1974.0	1974.0	1970.0	1970.0	1970.0	1944.0	1944.0	1978.0	1978.0	1978.0	1979.0	1979.0	1988.0	1988.0	1988.0	1957.0	1957.0	1982.0	1982.0	1982.0	1946.0	1946.0	1962.0	1962.0	1962.0	1964.0	1964.0	1943.0	1943.0	1943.0	1976.0	1976.0	1939.0	1939.0	1939.0	1928.0	1928.0	1957.0	1957.0	1957.0	1965.0	1965.0	1910.0	1910.0	1910.0	1919.0	1919.0	1908.0	1908.0	1908.0	1953.0	1953.0	1905.0	1905.0	1905.0	1960.0	1960.0	1946.0	1946.0	1946.0	1903.0	1903.0	1919.0	1919.0	1919.0	1939.0	1939.0	1920.0	1920.0	1920.0	1923.0	1923.0	1931.0	1931.0	1931.0	1934.0	1934.0	1910.0	1910.0	1910.0	1923.0	1923.0	1915.0	1915.0	1915.0	1886.0	1886.0	1926.0	1926.0	1926.0	1890.0	1890.0	1894.0	1894.0	1894.0	1905.0	1905.0	1899.0	1899.0	1904.0	1904.0	1904.0	1881.0	1881.0	1861.0	1861.0	1861.0	1856.0	1856.0	1901.0	1901.0	1901.0	1871.0	1871.0	1870.0	1870.0	1870.0	1883.0	1883.0	1876.0	1876.0	1876.0	1861.0	1861.0	1889.0	1889.0	1889.0	1881.0	1881.0	1856.0	1856.0	1856.0	1875.0	1875.0	1847.0	1847.0	1847.0	1886.0	1886.0	1857.0	1857.0	1857.0	1835.0	1835.0	1831.0	1831.0	1831.0	1871.0	1871.0	1864.0	1864.0	1864.0	1851.0	1851.0	1874.0	1874.0	1874.0	1831.0	1831.0	1819.0	1819.0	1819.0	1855.0	1855.0	1844.0	1844.0	1844.0	1846.0	1846.0	1840.0	1840.0	1840.0	1837.0	1837.0	1856.0	1856.0	1856.0	1853.0	1853.0	1824.0	1824.0	1824.0	1809.0	1809.0	1817.0	1817.0	1817.0	1807.0	1807.0	1806.0	1806.0	1806.0	1807.0	1807.0	1830.0	1830.0	1830.0	1831.0	1831.0	1844.0	1844.0	1844.0	1851.0	1851.0	1844.0	1844.0	1844.0	1799.0	1799.0	1807.0	1807.0	1807.0	1809.0	1809.0	1810.0	1810.0	1810.0	1798.0	1798.0	1799.0	1799.0	1799.0	1821.0	1821.0	1812.0	1812.0	1812.0	1823.0	1823.0	1838.0	1838.0	1838.0	1781.0	1781.0	1796.0	1796.0	1796.0	1831.0	1831.0	1824.0	1824.0	1824.0	1844.0	1844.0	1809.0	1809.0	1809.0	1824.0	1824.0	1815.0	1815.0	1815.0	1788.0	1788.0	1779.0	1779.0	1779.0	1810.0	1810.0	1791.0	1791.0	1791.0	1813.0	1813.0	1821.0	1821.0	1821.0	1769.0	1769.0	1816.0	1816.0	1816.0	1825.0	1825.0	1780.0	1780.0	1780.0	1796.0	1796.0	1805.0	1805.0	1805.0	1783.0	1783.0	1830.0	1830.0	1830.0	1784.0	1784.0	1770.0	1770.0	1770.0	1803.0	1803.0	1798.0	1798.0	1798.0	1806.0	1806.0	1835.0	1835.0	1772.0	1772.0	1772.0	1795.0	1795.0	1767.0	1767.0	1767.0	1772.0	1772.0	1776.0	1776.0	1776.0	1767.0	1767.0	1807.0	1807.0	1807.0	1810.0	1810.0	1818.0	1818.0	1818.0	1801.0	1801.0	1760.0	1760.0	1760.0	1816.0	1816.0	1779.0	1779.0	1779.0	1796.0	1796.0	1807.0	1807.0	1807.0	1778.0	1778.0	1758.0	1758.0	1758.0	1779.0	1779.0	1787.0	1787.0	1787.0	1766.0	1766.0	1803.0	1803.0	1803.0	1759.0	1759.0	1820.0	1820.0	1820.0	1788.0	1788.0	1799.0	1799.0	1799.0	1754.0	1754.0	1803.0	1803.0	1803.0	1784.0	1784.0	1767.0	1767.0	1767.0	1788.0	1788.0	1753.0	1753.0	1753.0	1763.0	1763.0	1752.0	1752.0	1752.0	1767.0	1767.0	1752.0	1752.0	1752.0	1759.0	1759.0	1753.0	1753.0	1753.0	1785.0	1785.0	1768.0	1768.0	1768.0	1802.0	1802.0	1769.0	1769.0	1769.0	1754.0	1754.0	1753.0	1753.0	1753.0	1746.0	1746.0	1771.0	1771.0	1771.0	1755.0	1755.0	1785.0	1785.0	1785.0	1778.0	1778.0	1741.0	1741.0	1741.0	1777.0	1777.0	1740.0	1740.0	1740.0	1777.0	1777.0	1733.0	1733.0	1733.0	1770.0	1770.0	1793.0	1793.0	1793.0	1760.0	1760.0	1782.0	1782.0	1782.0	1792.0	1792.0	1768.0	1768.0	1768.0	1795.0	1795.0	1784.0	1784.0	1784.0	1796.0	1796.0	1769.0	1769.0	1769.0	1806.0	1806.0	1774.0	1774.0	1774.0	1778.0	1778.0	1791.0	1791.0	1791.0	1797.0	1797.0	1782.0	1782.0	1782.0	1782.0	1782.0	1803.0	1803.0	1803.0	1848.0	1848.0	1819.0	1819.0	1819.0	1853.0	1853.0	1850.0	1850.0	1850.0	1888.0	1888.0	1902.0	1902.0	1902.0	1915.0	1915.0	1910.0	1910.0	1910.0	1941.0	1941.0	1963.0	1963.0	1963.0	1966.0	1966.0	1938.0	1938.0	1996.0	1996.0	1996.0	1984.0	1984.0	2025.0	2025.0	2025.0	1985.0	1985.0	2011.0	2011.0	2011.0	2033.0	2033.0	2067.0	2067.0	2067.0	2025.0	2025.0	2044.0	2044.0	2044.0	2102.0	2102.0	2102.0	2102.0	2102.0	2091.0	2091.0	2079.0	2079.0	2079.0	2114.0	2114.0	2089.0	2089.0	2089.0	2101.0	2101.0	2123.0	2123.0	2123.0	2103.0	2103.0	2119.0	2119.0	2119.0	2166.0	2166.0	2180.0	2180.0	2180.0	2139.0	2139.0	2162.0	2162.0	2162.0	2161.0	2161.0	2173.0	2173.0	2173.0	2187.0	2187.0	2178.0	2178.0	2178.0	2173.0	2173.0	2161.0	2161.0	2161.0	2195.0	2195.0	2166.0	2166.0	2166.0	2176.0	2176.0	2160.0	2160.0	2160.0	2167.0	2167.0	2156.0	2156.0	2156.0	2215.0	2215.0	2171.0	2171.0	2171.0	2201.0	2201.0	2162.0	2162.0	2162.0	2176.0	2176.0	2172.0	2172.0	2172.0	2194.0	2194.0	2189.0	2189.0	2189.0	2209.0	2209.0	2213.0	2213.0	2213.0	2174.0	2174.0	2168.0	2168.0	2168.0	2178.0	2178.0	2208.0	2208.0	2208.0	2179.0	2179.0	2212.0	2212.0	2212.0	2203.0	2203.0	2222.0	2222.0	2222.0	2174.0	2174.0	2202.0	2202.0	2202.0	2162.0	2162.0	2165.0	2165.0	2165.0	2230.0	2230.0	2180.0	2180.0	2180.0	2180.0	2180.0	2176.0	2176.0	2176.0	2177.0	2177.0	2243.0	2243.0	2243.0	2209.0	2209.0	2207.0	2207.0	2207.0	2239.0	2239.0	2203.0	2203.0	2203.0	2227.0	2227.0	2215.0	2215.0	2215.0	2212.0	2212.0	2208.0	2208.0	2208.0	2221.0	2221.0	2189.0	2189.0	2189.0	2220.0	2220.0	2190.0	2190.0	2190.0	2238.0	2238.0	2211.0	2211.0	2211.0	2196.0	2196.0	2185.0	2185.0	2185.0	2230.0	2230.0	2211.0	2211.0	2218.0	2218.0	2218.0	2187.0	2187.0	2213.0	2213.0	2213.0	2180.0	2180.0	2226.0	2226.0	2226.0	2200.0	2200.0	2206.0	2206.0	2206.0	2225.0	2225.0	2193.0	2193.0	2193.0	2151.0	2151.0	2219.0	2219.0	2219.0	2198.0	2198.0	2179.0	2179.0	2179.0	2163.0	2163.0	2203.0	2203.0	2203.0	2144.0	2144.0	2139.0	2139.0	2139.0	2182.0	2182.0	2141.0	2141.0	2141.0	2160.0	2160.0	2127.0	2127.0	2127.0	2117.0	2117.0	2132.0	2132.0	2132.0	2138.0	2138.0	2104.0	2104.0	2104.0	2087.0	2087.0	2137.0	2137.0	2137.0	2121.0	2121.0	2081.0	2081.0	2081.0	2102.0	2102.0	2095.0	2095.0	2095.0	2065.0	2065.0	2088.0	2088.0	2088.0	2059.0	2059.0	2055.0	2055.0	2055.0	2089.0	2089.0	2059.0	2059.0	2059.0	2050.0	2050.0	2062.0	2062.0	2062.0	2039.0	2039.0	2078.0	2078.0	2078.0	2023.0	2023.0	2080.0	2080.0	2080.0	2038.0	2038.0	2049.0	2049.0	2049.0	2065.0	2065.0	2013.0	2013.0	2013.0	2055.0	2055.0	2020.0	2020.0	2020.0	2034.0	2034.0	2019.0	2019.0	2019.0	2013.0	2013.0	2014.0	2014.0	2014.0	2041.0	2041.0	2038.0	2038.0	2038.0	2005.0	2005.0	2000.0	2000.0	2000.0	2048.0	2048.0	2033.0	2033.0	2033.0	2045.0	2045.0	2048.0	2048.0	2048.0	1999.0	1999.0	1998.0	1998.0	1998.0	2020.0	2020.0	1987.0	1987.0	1987.0	2022.0	2022.0	1979.0	1979.0	1979.0	2036.0	2036.0	2005.0	2005.0	2005.0	2019.0	2019.0	2016.0	2016.0	2016.0	1993.0	1993.0	1979.0	1979.0	1979.0	1977.0	1977.0	1992.0	1992.0	1992.0	2010.0	2010.0	1986.0	1986.0	1986.0	1985.0	1985.0	1970.0	1970.0	1970.0	1966.0	1966.0	1992.0	1992.0	1970.0	1970.0	1970.0	1964.0	1964.0	1968.0	1968.0	1968.0	1957.0	1957.0	1987.0	1987.0	1987.0	1962.0	1962.0	1956.0	1956.0	1956.0	1978.0	1978.0	1986.0	1986.0	1986.0	1991.0	1991.0	1977.0	1977.0	1977.0	1973.0	1973.0	1940.0	1940.0	1940.0	1966.0	1966.0	1940.0	1940.0	1940.0	1956.0	1956.0	1943.0	1943.0	1943.0	1924.0	1924.0	1924.0	1924.0	1924.0	1915.0	1915.0	1916.0	1916.0	1916.0	1918.0	1918.0	1904.0	1904.0	1904.0	1938.0	1938.0	1918.0	1918.0	1918.0	1912.0	1912.0	1934.0	1934.0	1934.0	1909.0	1909.0	1899.0	1899.0	1899.0	1920.0	1920.0	1916.0	1916.0	1916.0	1902.0	1902.0	1885.0	1885.0	1885.0	1895.0	1895.0	1923.0	1923.0	1923.0	1926.0	1926.0	1936.0	1936.0	1936.0	1880.0	1880.0	1921.0	1921.0	1921.0	1885.0	1885.0	1856.0	1856.0	1856.0	1854.0	1854.0	1878.0	1878.0	1878.0	1870.0	1870.0	1907.0	1907.0	1907.0	1881.0	1881.0	1854.0	1854.0	1854.0	1864.0	1864.0	1891.0	1891.0	1891.0	1864.0	1864.0	1893.0	1893.0	1893.0	1886.0	1886.0	1878.0	1878.0	1878.0	1845.0	1845.0	1846.0	1846.0	1846.0	1844.0	1844.0	1843.0	1843.0	1843.0	1837.0	1837.0	1888.0	1888.0	1888.0	1851.0	1851.0	1837.0	1837.0	1837.0	1885.0	1885.0	1825.0	1825.0	1825.0	1866.0	1866.0	1874.0	1874.0	1874.0	1870.0	1870.0	1834.0	1834.0	1834.0	1829.0	1829.0	1855.0	1855.0	1855.0	1854.0	1854.0	1824.0	1824.0	1824.0	1829.0	1829.0	1830.0	1830.0	1830.0	1863.0	1863.0	1830.0	1830.0	1830.0	1861.0	1861.0	1845.0	1845.0	1845.0	1855.0	1855.0	1823.0	1823.0	1823.0	1847.0	1847.0	1856.0	1856.0	1856.0	1847.0	1847.0	1812.0	1812.0	1831.0	1831.0	1831.0	1819.0	1819.0	1842.0	1842.0	1842.0	1830.0	1830.0	1833.0	1833.0	1833.0	1805.0	1805.0	1838.0	1838.0	1838.0	1803.0	1803.0	1826.0	1826.0	1826.0	1835.0	1835.0	1816.0	1816.0	1816.0	1843.0	1843.0	1844.0	1844.0	1844.0	1815.0	1815.0	1848.0	1848.0	1848.0	1797.0	1797.0	1835.0	1835.0	1835.0	1790.0	1790.0	1807.0	1807.0	1807.0	1814.0	1814.0	1826.0	1826.0	1826.0	1805.0	1805.0	1807.0	1807.0	1807.0	1794.0	1794.0	1825.0	1825.0	1825.0	1822.0	1822.0	1848.0	1848.0	1848.0	1836.0	1836.0	1843.0	1843.0	1843.0	1782.0	1782.0	1801.0	1801.0	1801.0	1801.0	1801.0	1820.0	1820.0	1820.0	1825.0	1825.0	1788.0	1788.0	1788.0	1828.0	1828.0	1831.0	1831.0	1831.0	1817.0	1817.0	1811.0	1811.0	1811.0	1804.0	1804.0	1803.0	1803.0	1803.0	1808.0	1808.0	1798.0	1798.0	1798.0	1803.0	1803.0	1807.0	1807.0	1807.0	1796.0	1796.0	1826.0	1826.0	1826.0	1829.0	1829.0	1789.0	1789.0	1789.0	1789.0	1789.0	1827.0	1827.0	1827.0	1797.0	1797.0	1803.0	1803.0	1803.0	1795.0	1795.0	1814.0	1814.0	1814.0	1782.0	1782.0	1827.0	1827.0	1827.0	1801.0	1801.0	1812.0	1812.0	1812.0	1797.0	1797.0	1832.0	1832.0	1832.0	1794.0	1794.0	1800.0	1800.0	1800.0	1807.0	1807.0	1825.0	1825.0	1825.0	1792.0	1792.0	1812.0	1812.0	1812.0	1823.0	1823.0	1791.0	1791.0	1791.0	1829.0	1829.0	1821.0	1821.0	1821.0	1782.0	1782.0	1797.0	1797.0	1797.0	1817.0	1817.0	1821.0	1821.0	1821.0	1767.0	1767.0	1828.0	1828.0	1828.0	1777.0	1777.0	1784.0	1784.0	1784.0	1816.0	1816.0	1815.0	1815.0	1811.0	1811.0	1811.0	1829.0	1829.0	1822.0	1822.0	1822.0	1827.0	1827.0	1782.0	1782.0	1782.0	1813.0	1813.0	