1779.0	1775.0	1775.0	1700.0	1700.0	1700.0	1696.0	1696.0	1715.0	1715.0	1715.0	1731.0	1731.0	1720.0	1720.0	1720.0	1701.0	1701.0	1779.0	1779.0	1779.0	1736.0	1736.0	1764.0	1764.0	1764.0	1730.0	1730.0	1743.0	1743.0	1743.0	1744.0	1744.0	1765.0	1765.0	1765.0	1725.0	1725.0	1683.0	1683.0	1683.0	1687.0	1687.0	1711.0	1711.0	1711.0	1734.0	1734.0	1734.0	1734.0	1734.0	1753.0	1753.0	1684.0	1684.0	1684.0	1757.0	1757.0	1758.0	1758.0	1758.0	1677.0	1677.0	1728.0	1728.0	1728.0	1730.0	1730.0	1760.0	1760.0	1760.0	1692.0	1692.0	1732.0	1732.0	1732.0	1754.0	1754.0	1729.0	1729.0	1729.0	1709.0	1709.0	1735.0	1735.0	1735.0	1695.0	1695.0	1689.0	1689.0	1689.0	1734.0	1734.0	1758.0	1758.0	1758.0	1764.0	1764.0	1680.0	1680.0	1680.0	1732.0	1732.0	1704.0	1704.0	1704.0	1758.0	1758.0	1678.0	1678.0	1678.0	1697.0	1697.0	1698.0	1698.0	1698.0	1755.0	1755.0	1762.0	1762.0	1762.0	1678.0	1678.0	1676.0	1676.0	1676.0	1680.0	1680.0	1685.0	1685.0	1685.0	1756.0	1756.0	1686.0	1686.0	1686.0	1711.0	1711.0	1755.0	1755.0	1755.0	1676.0	1676.0	1707.0	1707.0	1707.0	1719.0	1719.0	1711.0	1711.0	1711.0	1690.0	1690.0	1750.0	1750.0	1750.0	1719.0	1719.0	1730.0	1730.0	1730.0	1740.0	1740.0	1671.0	1671.0	1671.0	1689.0	1689.0	1679.0	1679.0	1679.0	1709.0	1709.0	1721.0	1721.0	1721.0	1668.0	1668.0	1749.0	1749.0	1749.0	1747.0	1747.0	1708.0	1708.0	1708.0	1680.0	1680.0	1716.0	1716.0	1716.0	1733.0	1733.0	1684.0	1684.0	1684.0	1683.0	1683.0	1690.0	1690.0	1690.0	1758.0	1758.0	1731.0	1731.0	1731.0	1732.0	1732.0	1743.0	1743.0	1695.0	1695.0	1695.0	1713.0	1713.0	1758.0	1758.0	1758.0	1689.0	1689.0	1681.0	1681.0	1681.0	1702.0	1702.0	1720.0	1720.0	1720.0	1680.0	1680.0	1672.0	1672.0	1672.0	1721.0	1721.0	1733.0	1733.0	1733.0	1704.0	1704.0	1682.0	1682.0	1682.0	1697.0	1697.0	1752.0	1752.0	1752.0	1690.0	1690.0	1746.0	1746.0	1746.0	1698.0	1698.0	1694.0	1694.0	1694.0	1673.0	1673.0	1710.0	1710.0	1710.0	1741.0	1741.0	1750.0	1750.0	1750.0	1714.0	1714.0	1677.0	1677.0	1677.0	1734.0	1734.0	1727.0	1727.0	1727.0	1758.0	1758.0	1736.0	1736.0	1736.0	1701.0	1701.0	1683.0	1683.0	1683.0	1690.0	1690.0	1746.0	1746.0	1746.0	1689.0	1689.0	1776.0	1776.0	1776.0	1728.0	1728.0	1732.0	1732.0	1732.0	1769.0	1769.0	1728.0	1728.0	1728.0	1732.0	1732.0	1696.0	1696.0	1696.0	1688.0	1688.0	1688.0	1688.0	1688.0	1751.0	1751.0	1695.0	1695.0	1695.0	1694.0	1694.0	1723.0	1723.0	1723.0	1746.0	1746.0	1775.0	1775.0	1775.0	1793.0	1793.0	1784.0	1784.0	1784.0	1787.0	1787.0	1747.0	1747.0	1747.0	1769.0	1769.0	1790.0	1790.0	1790.0	1795.0	1795.0	1806.0	1806.0	1806.0	1825.0	1825.0	1935.0	1935.0	1935.0	1911.0	1911.0	1900.0	1900.0	1900.0	1931.0	1931.0	1975.0	1975.0	1975.0	2050.0	2050.0	2019.0	2019.0	2019.0	2124.0	2124.0	2080.0	2080.0	2080.0	2152.0	2152.0	2145.0	2145.0	2145.0	2194.0	2194.0	2189.0	2189.0	2189.0	2255.0	2255.0	2300.0	2300.0	2300.0	2298.0	2298.0	2368.0	2368.0	2368.0	2331.0	2331.0	2350.0	2350.0	2350.0	2400.0	2400.0	2395.0	2395.0	2395.0	2446.0	2446.0	2437.0	2437.0	2464.0	2464.0	2464.0	2503.0	2503.0	2503.0	2503.0	2503.0	2539.0	2539.0	2472.0	2472.0	2472.0	2526.0	2526.0	2512.0	2512.0	2512.0	2519.0	2519.0	2592.0	2592.0	2592.0	2550.0	2550.0	2612.0	2612.0	2612.0	2534.0	2534.0	2621.0	2621.0	2621.0	2584.0	2584.0	2605.0	2605.0	2605.0	2565.0	2565.0	2647.0	2647.0	2647.0	2570.0	2570.0	2575.0	2575.0	2575.0	2633.0	2633.0	2584.0	2584.0	2584.0	2662.0	2662.0	2620.0	2620.0	2620.0	2608.0	2608.0	2585.0	2585.0	2585.0	2647.0	2647.0	2656.0	2656.0	2656.0	2658.0	2658.0	2680.0	2680.0	2680.0	2681.0	2681.0	2675.0	2675.0	2675.0	2666.0	2666.0	2605.0	2605.0	2605.0	2686.0	2686.0	2630.0	2630.0	2630.0	2594.0	2594.0	2674.0	2674.0	2674.0	2665.0	2665.0	2658.0	2658.0	2658.0	2600.0	2600.0	2611.0	2611.0	2611.0	2654.0	2654.0	2641.0	2641.0	2641.0	2581.0	2581.0	2582.0	2582.0	2582.0	2635.0	2635.0	2588.0	2588.0	2588.0	2599.0	2599.0	2614.0	2614.0	2614.0	2608.0	2608.0	2549.0	2549.0	2549.0	2609.0	2609.0	2547.0	2547.0	2547.0	2574.0	2574.0	2600.0	2600.0	2600.0	2543.0	2543.0	2584.0	2584.0	2584.0	2553.0	2553.0	2533.0	2533.0	2533.0	2505.0	2505.0	2583.0	2583.0	2583.0	2504.0	2504.0	2534.0	2534.0	2534.0	2560.0	2560.0	2527.0	2527.0	2527.0	2556.0	2556.0	2480.0	2480.0	2480.0	2465.0	2465.0	2452.0	2452.0	2452.0	2446.0	2446.0	2435.0	2435.0	2435.0	2423.0	2423.0	2424.0	2424.0	2424.0	2467.0	2467.0	2474.0	2474.0	2474.0	2389.0	2389.0	2422.0	2422.0	2422.0	2416.0	2416.0	2417.0	2417.0	2417.0	2398.0	2398.0	2415.0	2415.0	2347.0	2347.0	2347.0	2350.0	2350.0	2344.0	2344.0	2344.0	2313.0	2313.0	2348.0	2348.0	2348.0	2357.0	2357.0	2308.0	2308.0	2308.0	2287.0	2287.0	2293.0	2293.0	2293.0	2311.0	2311.0	2288.0	2288.0	2288.0	2217.0	2217.0	2254.0	2254.0	2254.0	2280.0	2280.0	2208.0	2208.0	2208.0	2238.0	2238.0	2186.0	2186.0	2186.0	2176.0	2176.0	2176.0	2176.0	2176.0	2238.0	2238.0	2240.0	2240.0	2240.0	2182.0	2182.0	2228.0	2228.0	2228.0	2231.0	2231.0	2204.0	2204.0	2204.0	2165.0	2165.0	2163.0	2163.0	2163.0	2196.0	2196.0	2120.0	2120.0	2120.0	2202.0	2202.0	2129.0	2129.0	2129.0	2194.0	2194.0	2119.0	2119.0	2119.0	2149.0	2149.0	2158.0	2158.0	2158.0	2090.0	2090.0	2168.0	2168.0	2168.0	2103.0	2103.0	2082.0	2082.0	2082.0	2091.0	2091.0	2159.0	2159.0	2159.0	2133.0	2133.0	2098.0	2098.0	2098.0	2077.0	2077.0	2069.0	2069.0	2069.0	2070.0	2070.0	2087.0	2087.0	2087.0	2093.0	2093.0	2067.0	2067.0	2067.0	2117.0	2117.0	2067.0	2067.0	2067.0	2055.0	2055.0	2121.0	2121.0	2121.0	2113.0	2113.0	2039.0	2039.0	2039.0	2076.0	2076.0	2114.0	2114.0	2114.0	2032.0	2032.0	2119.0	2119.0	2119.0	2080.0	2080.0	2110.0	2110.0	2110.0	2028.0	2028.0	2055.0	2055.0	2055.0	2060.0	2060.0	2091.0	2091.0	2091.0	2029.0	2029.0	1997.0	1997.0	1997.0	2031.0	2031.0	2042.0	2042.0	2042.0	2037.0	2037.0	2074.0	2074.0	2074.0	2051.0	2051.0	1992.0	1992.0	1992.0	2055.0	2055.0	1999.0	1999.0	1999.0	2045.0	2045.0	2004.0	2004.0	2004.0	2004.0	2004.0	1978.0	1978.0	1978.0	2040.0	2040.0	2027.0	2027.0	2027.0	1955.0	1955.0	1951.0	1951.0	1949.0	1949.0	1949.0	1954.0	1954.0	1999.0	1999.0	1999.0	1959.0	1959.0	2020.0	2020.0	2020.0	2013.0	2013.0	1979.0	1979.0	1979.0	1969.0	1969.0	1907.0	1907.0	1907.0	1941.0	1941.0	1931.0	1931.0	1931.0	1939.0	1939.0	1947.0	1947.0	1947.0	1984.0	1984.0	1955.0	1955.0	1955.0	1926.0	1926.0	1884.0	1884.0	1884.0	1972.0	1972.0	1930.0	1930.0	1930.0	1907.0	1907.0	1927.0	1927.0	1927.0	1907.0	1907.0	1864.0	1864.0	1864.0	1884.0	1884.0	1935.0	1935.0	1935.0	1858.0	1858.0	1897.0	1897.0	1897.0	1858.0	1858.0	1892.0	1892.0	1892.0	1942.0	1942.0	1923.0	1923.0	1923.0	1869.0	1869.0	1912.0	1912.0	1912.0	1878.0	1878.0	1842.0	1842.0	1842.0	1900.0	1900.0	1828.0	1828.0	1828.0	1871.0	1871.0	1838.0	1838.0	1838.0	1863.0	1863.0	1822.0	1822.0	1822.0	1870.0	1870.0	1853.0	1853.0	1853.0	1850.0	1850.0	1843.0	1843.0	1843.0	1832.0	1832.0	1840.0	1840.0	1840.0	1796.0	1796.0	1849.0	1849.0	1849.0	1851.0	1851.0	1786.0	1786.0	1786.0	1806.0	1806.0	1783.0	1783.0	1783.0	1820.0	1820.0	1809.0	1809.0	1809.0	1780.0	1780.0	1848.0	1848.0	1848.0	1846.0	1846.0	1809.0	1809.0	1809.0	1850.0	1850.0	1784.0	1784.0	1784.0	1812.0	1812.0	1790.0	1790.0	1790.0	1836.0	1836.0	1840.0	1840.0	1840.0	1754.0	1754.0	1801.0	1801.0	1801.0	1811.0	1811.0	1828.0	1828.0	1828.0	1826.0	1826.0	1823.0	1823.0	1823.0	1826.0	1826.0	1821.0	1821.0	1821.0	1804.0	1804.0	1743.0	1743.0	1743.0	1750.0	1750.0	1819.0	1819.0	1819.0	1733.0	1733.0	1727.0	1727.0	1727.0	1739.0	1739.0	1805.0	1805.0	1794.0	1794.0	1794.0	1759.0	1759.0	1734.0	1734.0	1734.0	1800.0	1800.0	1749.0	1749.0	1749.0	1725.0	1725.0	1751.0	1751.0	1751.0	1726.0	1726.0	1789.0	1789.0	1789.0	1778.0	1778.0	1792.0	1792.0	1792.0	1811.0	1811.0	1775.0	1775.0	1775.0	1758.0	1758.0	1821.0	1821.0	1821.0	1762.0	1762.0	1813.0	1813.0	1813.0	1800.0	1800.0	1771.0	1771.0	1771.0	1849.0	1849.0	1866.0	1866.0	1866.0	1808.0	1808.0	1900.0	1900.0	1900.0	1907.0	1907.0	1905.0	1905.0	1905.0	1942.0	1942.0	1951.0	1951.0	1951.0	1913.0	1913.0	1979.0	1979.0	1979.0	1958.0	1958.0	2060.0	2060.0	2060.0	2010.0	2010.0	2068.0	2068.0	2068.0	2124.0	2124.0	2125.0	2125.0	2125.0	2122.0	2122.0	2107.0	2107.0	2107.0	2206.0	2206.0	2144.0	2144.0	2144.0	2169.0	2169.0	2258.0	2258.0	2258.0	2201.0	2201.0	2243.0	2243.0	2243.0	2289.0	2289.0	2285.0	2285.0	2285.0	2256.0	2256.0	2344.0	2344.0	2344.0	2275.0	2275.0	2372.0	2372.0	2372.0	2366.0	2366.0	2318.0	2318.0	2318.0	2407.0	2407.0	2333.0	2333.0	2333.0	2372.0	2372.0	2347.0	2347.0	2347.0	2353.0	2353.0	2368.0	2368.0	2368.0	2360.0	2360.0	2451.0	2451.0	2451.0	2378.0	2378.0	2418.0	2418.0	2418.0	2402.0	2402.0	2384.0	2384.0	2384.0	2457.0	2457.0	2465.0	2465.0	2465.0	2418.0	2418.0	2411.0	2411.0	2411.0	2420.0	2420.0	2427.0	2427.0	2427.0	2416.0	2416.0	2409.0	2409.0	2409.0	2407.0	2407.0	2434.0	2434.0	2434.0	2444.0	2444.0	2458.0	2458.0	2458.0	2408.0	2408.0	2410.0	2410.0	2410.0	2435.0	2435.0	2430.0	2430.0	2430.0	2475.0	2475.0	2408.0	2408.0	2408.0	2403.0	2403.0	2398.0	2398.0	2483.0	2483.0	2483.0	2436.0	2436.0	2477.0	2477.0	2477.0	2420.0	2420.0	2472.0	2472.0	2472.0	2444.0	2444.0	2436.0	2436.0	2436.0	2391.0	2391.0	2399.0	2399.0	2399.0	2457.0	2457.0	2406.0	2406.0	2406.0	2422.0	2422.0	2435.0	2435.0	2435.0	2458.0	2458.0	2368.0	2368.0	2368.0	2443.0	2443.0	2405.0	2405.0	2405.0	2391.0	2391.0	2355.0	2355.0	2355.0	2412.0	2412.0	2429.0	2429.0	2429.0	2406.0	2406.0	2342.0	2342.0	2342.0	2346.0	2346.0	2406.0	2406.0	2406.0	2377.0	2377.0	2375.0	2375.0	2375.0	2372.0	2372.0	2379.0	2379.0	2379.0	2311.0	2311.0	2312.0	2312.0	2312.0	2303.0	2303.0	2313.0	2313.0	2313.0	2351.0	2351.0	2346.0	2346.0	2346.0	2319.0	2319.0	2294.0	2294.0	2294.0	2288.0	2288.0	2305.0	2305.0	2305.0	2232.0	2232.0	2220.0	2220.0	2220.0	2269.0	2269.0	2223.0	2223.0	2223.0	2184.0	2184.0	2173.0	2173.0	2173.0	2200.0	2200.0	2185.0	2185.0	2185.0	2225.0	2225.0	2136.0	2136.0	2136.0	2132.0	2132.0	2152.0	2152.0	2152.0	2128.0	2128.0	2139.0	2139.0	2139.0	2094.0	2094.0	2166.0	2166.0	2166.0	2111.0	2111.0	2097.0	2097.0	2097.0	2120.0	2120.0	2091.0	2091.0	2091.0	2081.0	2081.0	2053.0	2053.0	2053.0	2095.0	2095.0	2046.0	2046.0	2046.0	2117.0	2117.0	2037.0	2037.0	2037.0	2070.0	2070.0	2037.0	2037.0	2037.0	2026.0	2026.0	2019.0	2019.0	2019.0	2101.0	2101.0	2044.0	2044.0	2044.0	2054.0	2054.0	2032.0	2032.0	2032.0	2043.0	2043.0	1997.0	1997.0	1997.0	2009.0	2009.0	2071.0	2071.0	2071.0	2072.0	2072.0	2065.0	2065.0	2065.0	1995.0	1995.0	1999.0	1999.0	1983.0	1983.0	1983.0	2038.0	2038.0	2040.0	2040.0	2040.0	2010.0	2010.0	1985.0	1985.0	1985.0	1987.0	1987.0	2011.0	2011.0	2011.0	1976.0	1976.0	1976.0	1976.0	1976.0	2008.0	2008.0	2032.0	2032.0	2032.0	1961.0	1961.0	1973.0	1973.0	1973.0	2009.0	2009.0	1947.0	1947.0	1947.0	2015.0	2015.0	2012.0	2012.0	2012.0	1983.0	1983.0	1994.0	1994.0	1994.0	1979.0	1979.0	1959.0	1959.0	1959.0	1963.0	1963.0	1943.0	1943.0	1943.0	1999.0	1999.0	1988.0	1988.0	1988.0	1920.0	1920.0	1995.0	1995.0	1995.0	1927.0	1927.0	1962.0	1962.0	1962.0	1927.0	1927.0	1947.0	1947.0	1947.0	1986.0	1986.0	1897.0	1897.0	1897.0	1939.0	1939.0	1915.0	1915.0	1915.0	1936.0	1936.0	1909.0	1909.0	1909.0	1890.0	1890.0	1895.0	1895.0	1895.0	1888.0	1888.0	1912.0	1912.0	1912.0	1911.0	1911.0	1889.0	1889.0	1889.0	1945.0	1945.0	1946.0	1946.0	1946.0	1920.0	1920.0	1871.0	1871.0	1871.0	1857.0	1857.0	1925.0	1925.0	1925.0	1850.0	1850.0	1868.0	1868.0	1868.0	1923.0	1923.0	1855.0	1855.0	1855.0	1873.0	1873.0	1850.0	1850.0	1850.0	1911.0	1911.0	1890.0	1890.0	1890.0	1900.0	1900.0	1862.0	1862.0	1862.0	1820.0	1820.0	1884.0	1884.0	1884.0	1891.0	1891.0	1845.0	1845.0	1845.0	1856.0	1856.0	1887.0	1887.0	1887.0	1804.0	1804.0	1809.0	1809.0	1809.0	1796.0	1796.0	1828.0	1828.0	1828.0	1791.0	1791.0	1845.0	1845.0	1845.0	1857.0	1857.0	1843.0	1843.0	1843.0	1779.0	1779.0	1808.0	1808.0	1808.0	1856.0	1856.0	1809.0	1809.0	1809.0	1843.0	1843.0	1842.0	1842.0	1842.0	1839.0	1839.0	1766.0	1766.0	1826.0	1826.0	1826.0	1838.0	1838.0	1840.0	1840.0	1840.0	1759.0	1759.0	1811.0	1811.0	1811.0	1825.0	1825.0	1779.0	1779.0	1779.0	1747.0	1747.0	1746.0	1746.0	1746.0	1766.0	1766.0	1807.0	1807.0	1807.0	1739.0	1739.0	1811.0	1811.0	1811.0	1800.0	1800.0	1777.0	1777.0	1777.0	1725.0	1725.0	1729.0	1729.0	1729.0	1732.0	1732.0	1732.0	1732.0	1732.0	1710.0	1710.0	1713.0	1713.0	1713.0	1730.0	1730.0	1797.0	1797.0	1797.0	1722.0	1722.0	1723.0	1723.0	1723.0	1794.0	1794.0	1739.0	1739.0	1739.0	1779.0	1779.0	1769.0	1769.0	1769.0	1774.0	1774.0	1708.0	1708.0	1708.0	1706.0	1706.0	1704.0	1704.0	1704.0	1753.0	1753.0	1693.0	1693.0	1693.0	1704.0	1704.0	1692.0	1692.0	1692.0	1777.0	1777.0	1770.0	1770.0	1770.0	1687.0	1687.0	1765.0	1765.0	1765.0	1739.0	1739.0	1770.0	1770.0	1770.0	1781.0	1781.0	1751.0	1751.0	1751.0	1703.0	1703.0	1775.0	1775.0	1775.0	1788.0	1788.0	1732.0	1732.0	1732.0	1763.0	1763.0	1778.0	1778.0	1778.0	1787.0	1787.0	1831.0	1831.0	1831.0	1805.0	1805.0	1813.0	1813.0	1813.0	1854.0	1854.0	1868.0	1868.0	1868.0	1906.0	1906.0	1924.0	1924.0	1924.0	1897.0	1897.0	1975.0	1975.0	1975.0	1945.0	1945.0	2007.0	2007.0	2007.0	2005.0	2005.0	2047.0	2047.0	2047.0	2070.0	2070.0	2114.0	2114.0	2114.0	2119.0	2119.0	2182.0	2182.0	2182.0	2127.0	2127.0	2177.0	2177.0	2177.0	2186.0	2186.0	2260.0	2260.0	2260.0	2212.0	2212.0	2286.0	2286.0	2286.0	2239.0	2239.0	2315.0	2315.0	2315.0	2295.0	2295.0	2284.0	2284.0	2284.0	2286.0	2286.0	2363.0	2363.0	2363.0	2319.0	2319.0	2347.0	2347.0	2389.0	2389.0	2389.0	2404.0	2404.0	2401.0	2401.0	2401.0	2388.0	2388.0	2416.0	2416.0	2416.0	2425.0	2425.0	2391.0	2391.0	2391.0	2423.0	2423.0	2376.0	2376.0	2376.0	2374.0	2374.0	2420.0	2420.0	2420.0	2394.0	2394.0	2399.0	2399.0	2399.0	2395.0	2395.0	2426.0	2426.0	2426.0	2402.0	2402.0	2392.0	2392.0	2392.0	2395.0	2395.0	2426.0	2426.0	2426.0	2462.0	2462.0	2407.0	2407.0	2407.0	2409.0	2409.0	2405.0	2405.0	2405.0	2477.0	2477.0	2453.0	2453.0	2453.0	2435.0	2435.0	2407.0	2407.0	2407.0	2429.0	2429.0	2421.0	2421.0	2421.0	2402.0	2402.0	2478.0	2478.0	2478.0	2474.0	2474.0	2424.0	2424.0	2424.0	2397.0	2397.0	2468.0	2468.0	2468.0	2415.0	2415.0	2401.0	2401.0	2401.0	2462.0	2462.0	2471.0	2471.0	2471.0	2386.0	2386.0	2427.0	2427.0	2427.0	2444.0	2444.0	2402.0	2402.0	2402.0	2398.0	2398.0	2440.0	2440.0	2440.0	2371.0	2371.0	2443.0	2443.0	2443.0	2439.0	2439.0	2373.0	2373.0	2373.0	2428.0	2428.0	2425.0	2425.0	2425.0	2364.0	2364.0	2361.0	2361.0	2361.0	2352.0	2352.0	2362.0	2362.0	2362.0	2324.0	2324.0	2332.0	2332.0	2332.0	2319.0	2319.0	2398.0	2398.0	2398.0	2319.0	2319.0	2333.0	2333.0	2333.0	2307.0	2307.0	2356.0	2356.0	2356.0	2291.0	2291.0	2267.0	2267.0	2267.0	2272.0	2272.0	2319.0	2319.0	2319.0	2271.0	2271.0	2239.0	2239.0	2239.0	2236.0	2236.0	2233.0	2233.0	2233.0	2209.0	2209.0	2207.0	2207.0	2207.0	2197.0	2197.0	2172.0	2172.0	2172.0	2179.0	2179.0	2171.0	2171.0	2171.0	2146.0	2146.0	2153.0	2153.0	2153.0	2138.0	2138.0	2206.0	2206.0	2188.0	2188.0	2188.0	2150.0	2150.0	2138.0	2138.0	2138.0	2088.0	2088.0	2136.0	2136.0	2136.0	2089.0	2089.0	2069.0	2069.0	2069.0	2099.0	2099.0	2104.0	2104.0	2104.0	2049.0	2049.0	2097.0	2097.0	2097.0	2030.0	2030.0	2113.0	2113.0	2113.0	2081.0	2081.0	2017.0	2017.0	2017.0	2015.0	2015.0	2063.0	2063.0	2063.0	1998.0	1998.0	2028.0	2028.0	2028.0	1993.0	1993.0	2032.0	2032.0	2032.0	2004.0	2004.0	2058.0	2058.0	